depth(m) lower_95.4(kyr) lower_68.2(kyr) median(kyr) mean(kyr) upper_68.2(kyr) upper_95.4(kyr)
0.045000 0.018034 0.136279 0.449482 0.449865 0.784985 0.954727
0.167500 0.339896 0.509068 0.861338 0.922910 1.307620 2.041331
0.290000 0.619591 0.869351 1.256245 1.384281 1.848842 2.901917
0.412500 0.965891 1.234110 1.808233 1.942222 2.704536 4.030133
0.535000 1.286271 1.603338 2.160600 2.381791 3.182503 4.540645
0.660000 1.623197 2.017568 2.720143 2.966344 3.868071 4.995576
0.785000 2.001993 2.560155 3.486726 3.574950 4.563400 5.860247
0.910000 2.492830 3.133549 4.150550 4.232046 5.366918 6.324448
1.035000 2.815668 3.689282 4.898795 4.944576 6.124490 7.322634
1.162500 3.485868 4.743892 5.715478 5.813574 6.939582 7.688345
1.290000 4.597720 5.678200 6.728117 6.668760 7.612499 8.638645
1.417500 5.727181 6.609056 7.752482 7.599887 8.405899 9.198136
1.545000 6.802338 7.542171 8.536203 8.435474 9.291236 10.080171
1.670000 7.813964 8.674785 9.337026 9.354468 9.987648 10.787809
1.755000 8.463784 9.166247 9.895146 9.890987 10.558659 11.247599
1.840000 9.104384 9.663299 10.367119 10.355980 11.053282 11.547457
1.942500 9.870208 10.294287 10.948276 10.971338 11.630085 12.339497
2.045000 10.396698 10.751472 11.504572 11.504953 12.145869 12.886099
2.120000 10.685985 11.162518 11.764927 11.841376 12.429565 13.151684
2.200000 10.974223 11.545648 12.319769 12.270071 12.962582 13.712417
2.280000 11.463664 11.989221 12.626855 12.672628 13.371207 14.133705
2.403333 11.798078 12.506070 13.255722 13.264213 13.958202 14.916069
2.526667 12.282899 13.028056 13.746557 13.841925 14.552808 15.421522
2.650000 12.864483 13.535622 14.273817 14.366989 15.194046 16.154890
2.777857 13.389585 14.014241 14.886398 14.934035 15.894432 16.728446
2.905714 13.666660 14.400898 15.338946 15.417576 16.407975 17.220764
3.033571 13.913570 14.809727 15.826979 15.851662 16.920665 17.584329
3.161429 14.157152 15.121949 16.415133 16.334764 17.593173 18.203409
3.289286 14.479474 15.402940 16.781573 16.749766 18.028699 19.163566
3.417143 14.821023 15.784946 17.281180 17.201905 18.349470 19.491527
3.545000 15.065644 16.072185 17.750195 17.602855 18.692443 20.310901
3.667500 15.292056 16.422198 18.259161 17.964304 18.979906 20.604597
3.790000 15.723581 16.751508 18.537613 18.319710 19.440672 21.024561
3.912500 16.244713 17.102855 18.840604 18.671987 19.806175 21.425061
4.035000 16.721045 17.433210 19.144685 19.015576 20.166293 21.706660
4.162500 17.032339 17.842178 19.517571 19.386273 20.740889 22.348147
4.290000 17.403308 18.119644 19.881183 19.722400 21.095952 22.537038
4.417500 17.680491 18.515245 20.239125 20.070714 21.332299 22.866531
4.545000 18.046056 18.984224 20.610937 20.420036 21.647508 23.213795
4.690385 18.403065 19.422752 20.943797 20.809191 22.155058 23.590695
4.835769 18.750033 19.663985 21.335755 21.199693 22.588471 24.021833
4.981154 19.046792 19.914779 21.716642 21.616243 23.037060 24.448481
5.126538 19.350233 20.337021 22.092200 22.022249 23.379334 24.988562
5.271923 19.636229 20.805682 22.430668 22.394274 23.720889 25.569414
5.417308 20.056487 21.044731 22.754013 22.762908 24.112695 26.020427
5.562692 20.335876 21.496244 23.130013 23.185146 24.501647 26.884943
5.708077 20.556611 21.822514 23.532728 23.544159 24.879988 27.264302
5.853462 20.934290 22.301833 23.989236 23.930548 25.232687 27.498972
5.998846 21.524546 22.703706 24.388768 24.348306 25.747904 28.126645
6.144231 21.762491 23.101588 24.718083 24.742146 26.185724 28.695399
6.289615 22.023877 23.402859 25.132676 25.177962 26.605068 29.296802
6.435000 22.466522 24.212138 25.647261 25.638665 26.984251 29.813487
6.562500 22.776606 24.815248 26.106346 26.060325 27.237214 30.206653
6.690000 23.133668 25.055660 26.469476 26.484576 27.742472 30.470684
6.817500 23.777422 25.476814 26.934549 26.960756 28.400780 30.885600
6.945000 24.106595 25.850209 27.498599 27.433811 28.775385 31.330673
7.085714 24.355816 26.371181 27.944796 27.994807 29.508083 32.677931
7.226429 24.983905 26.850874 28.396107 28.596432 30.403002 33.449489
7.367143 25.809620 27.231992 28.956104 29.167534 30.926899 35.562852
7.507857 26.136382 27.785595 29.473024 29.842371 31.741105 37.005732
7.648571 26.779214 28.287137 30.047739 30.469430 32.774914 37.626371
7.789286 27.433264 28.884942 30.676434 31.099508 33.224646 38.629178
7.930000 27.955337 29.458401 31.162734 31.706294 33.752424 38.970852
8.058750 28.269215 29.962785 31.739762 32.279377 35.141223 39.273929
8.187500 28.620782 30.522951 32.360071 32.798662 35.569563 39.668936
8.316250 28.811485 31.034010 32.946840 33.364861 36.038529 39.913210
8.445000 29.172393 31.476314 33.592987 33.925613 36.480882 40.286155
8.582500 29.466257 31.855172 34.236435 34.566114 37.198430 40.671146
8.720000 30.426257 32.498983 34.848558 35.222379 37.845274 41.507685
8.857500 30.820183 32.830497 35.521153 35.828166 38.468796 42.018021
8.995000 31.333633 33.372292 35.927382 36.389106 39.248981 42.877592
9.132500 31.462044 33.934744 36.674805 36.969728 40.044519 43.227958
9.270000 32.334896 34.344373 37.411318 37.525960 40.529568 43.767073
9.407500 32.517222 34.909029 37.948750 38.161393 41.194935 45.068609
9.545000 32.815720 35.445472 38.304256 38.677252 41.781188 45.786708
9.682500 33.133366 35.954578 38.895226 39.308043 42.486191 46.508825
9.820000 33.710384 36.415678 39.391831 39.933171 43.722220 47.816026
9.957500 34.080342 36.906299 39.955090 40.484058 44.567322 48.310215
10.095000 34.437737 37.430649 40.635394 41.099355 45.278851 49.310177
10.217500 34.764723 37.623261 41.336268 41.632512 46.017967 49.822878
10.340000 35.023609 38.216949 41.687216 42.187821 46.922580 50.363307
10.462500 35.279484 38.954603 42.547708 42.748098 47.670070 50.736653
10.585000 35.583428 39.420159 42.937281 43.270630 47.949411 51.319805
10.710000 36.142298 40.000701 43.727758 43.798398 48.393812 51.831257
10.835000 36.527460 40.598430 44.429154 44.320974 48.993963 52.305426
10.960000 36.846463 41.034348 44.914090 44.811150 49.309506 52.643857
11.085000 37.553391 41.523983 45.470178 45.356505 49.954589 53.060917
11.210000 37.913650 41.985629 46.062599 45.896462 50.524828 53.545015
11.335000 38.281137 42.492084 46.603077 46.391214 51.076397 54.200908
11.460000 38.473753 42.846037 46.947996 46.920860 51.761545 54.583878
11.585000 38.772820 43.233250 47.445752 47.427594 52.246035 54.911823
11.710000 39.043652 43.706170 47.989520 47.965738 52.728407 55.327240
11.835000 39.873367 44.253821 48.503453 48.443717 53.270985 55.774831
11.960000 41.122299 44.760241 49.153063 48.985356 53.628636 56.447501
12.085000 42.012742 45.264277 49.602985 49.514651 53.860300 56.654226
12.223889 42.452656 45.772674 50.067993 50.151443 54.348744 57.088005
12.362778 42.769188 46.354456 50.614290 50.764902 54.717517 57.536382
12.501667 43.544411 46.830984 51.426342 51.340814 55.076767 58.801764
12.640556 44.200961 47.615079 51.906554 51.842559 55.442500 59.374604
12.779444 45.110064 48.273987 52.629402 52.386777 55.888187 59.756129
12.918333 45.581313 48.736780 53.259813 52.836807 56.247170 60.127378
13.057222 45.817206 49.591544 53.609311 53.341872 56.793949 60.423756
13.196111 46.828179 50.156421 53.952600 53.870420 57.622547 60.723724
13.335000 47.605188 50.620296 54.475618 54.418192 58.043789 61.005590
13.473889 48.195868 51.147283 54.915084 54.932285 58.748067 61.356394
13.612778 48.751008 51.938815 55.302318 55.517597 59.281469 61.685996
13.751667 49.235698 52.937903 55.727590 56.073332 59.792034 61.970921
13.890556 49.907986 53.627127 56.211260 56.683586 60.222755 62.195406
14.029444 50.802026 54.392967 57.383915 57.329636 60.618030 62.914662
14.168333 51.084987 54.746000 58.085343 57.853746 61.172285 63.407539
14.307222 51.430991 55.418536 58.595859 58.393789 61.789045 63.679020
14.446111 51.827322 56.206178 59.116486 58.974770 62.047510 64.154262
14.585000 52.148650 57.129741 59.578104 59.571027 62.682679 64.388767
14.716250 52.418374 57.561632 60.303677 60.079323 63.061485 64.824967
14.847500 52.825509 57.909031 60.797175 60.544772 63.481650 65.457923
14.978750 53.614349 58.559505 61.210217 61.055911 63.915457 66.025487
15.110000 54.394454 58.923852 61.951501 61.567039 64.278541 66.308313
15.241250 55.487925 59.334876 62.445562 62.086703 64.629641 66.715296
15.372500 56.545991 60.124069 63.084936 62.681635 65.118980 67.067961
15.503750 57.536534 60.694289 63.718745 63.263462 65.704611 67.769319
15.635000 58.033450 61.198491 64.390292 63.875775 66.294905 68.573148
15.760000 58.555324 61.852165 64.945992 64.436439 66.843766 68.883599
15.885000 58.936660 62.672169 65.545829 65.063855 67.325928 69.219134
16.010000 59.380377 63.371587 65.978666 65.626449 67.723507 69.509480
16.135000 60.019489 63.867597 66.574315 66.250521 68.267094 69.894193
16.260000 61.237819 64.505871 67.366992 66.915299 68.922914 70.780654
16.385000 62.160509 65.165516 67.805232 67.490298 69.455746 71.399387
16.510000 64.262814 65.947428 68.337730 68.139846 70.006544 71.791169
16.635000 65.005922 67.134981 68.939433 68.886109 70.739558 72.179549
16.760000 65.704670 68.150361 69.765400 69.671991 71.525545 73.111106
16.885000 66.798903 68.899518 70.590116 70.540717 72.505294 73.928528
17.010000 67.834574 69.642883 71.289715 71.449965 73.295879 75.221206
17.135000 68.907909 70.668689 72.225109 72.356062 74.150761 76.289878
17.260000 69.620474 71.194625 73.234137 73.168438 75.004097 77.502735
17.385000 70.412839 72.164031 74.144055 74.153220 76.122291 78.416560
17.510000 70.874906 72.684099 74.911813 74.870331 77.027734 79.340235
17.635000 71.386144 73.388072 75.895607 75.806635 77.735554 80.408827
17.760000 72.293684 74.335102 76.388468 76.573692 78.860116 81.597135
17.885000 72.909201 75.129465 77.309423 77.387924 79.724369 82.118355
18.010000 73.320719 76.061262 77.913334 78.216121 80.523306 82.576695
18.135000 74.066676 76.946540 78.901253 79.099126 82.201544 84.132751
18.262500 74.642888 77.675084 79.489758 79.915764 82.868928 85.918779
18.390000 75.495222 78.078818 80.134504 80.640321 83.576893 86.377183
18.517500 76.272340 79.022730 80.795650 81.411434 84.403737 88.122206
18.645000 76.958747 79.584302 81.843043 82.257811 85.217844 88.700218
18.786429 77.383174 80.479004 82.890667 83.182492 86.116795 89.437452
18.927857 78.191458 81.130381 83.867430 84.021659 86.928940 91.147372
19.069286 79.088033 81.676515 84.773740 84.922652 88.170090 91.818445
19.210714 79.602292 82.317647 85.481338 85.734508 89.012943 92.561914
19.352143 80.417451 83.326681 86.378126 86.569218 89.780302 93.967596
19.493571 80.778175 83.906141 86.943251 87.342080 90.714838 94.950300
19.635000 81.284380 84.563966 88.086242 88.211007 91.311503 96.552629
19.762500 81.613964 85.000199 88.817909 88.840518 92.293886 97.161220
19.890000 82.016008 85.744018 89.282194 89.434992 92.842567 97.702563
20.017500 82.255256 86.457225 90.446350 90.159262 93.317119 98.524991
20.145000 83.205502 87.309380 91.168830 90.862447 94.038893 99.412180
20.270000 83.991284 87.935197 92.035555 91.562205 94.603381 99.917056
20.395000 84.543058 88.430904 92.558483 92.241199 95.280649 100.684301
20.520000 85.943838 88.988826 93.171471 92.957796 95.894502 101.287257
20.645000 86.573956 89.823172 94.286479 93.695238 96.348387 102.170900
20.786429 87.027593 90.696312 95.030800 94.601836 97.405208 102.767297
20.927857 89.226355 91.999576 95.677973 95.480269 98.268175 103.709496
21.069286 90.102302 93.076414 96.226541 96.289828 99.400077 104.525759
21.210714 91.037468 94.082154 96.954725 97.141543 99.842561 105.407795
21.352143 92.113720 94.782083 97.900239 97.919638 100.461961 106.261093
21.493571 92.464676 95.909754 98.694064 98.829092 101.664691 107.555224
21.635000 93.562490 96.693180 99.406728 99.677363 102.494525 107.891699
21.762500 94.454459 97.224816 99.901487 100.321418 103.355857 108.198989
21.890000 95.993073 97.662280 100.687299 101.069549 104.506072 109.073849
22.017500 96.647599 98.144343 101.555027 101.821240 105.582652 109.429326
22.145000 97.147066 98.894570 102.162444 102.493666 106.202162 109.777964
22.267500 97.722754 99.904842 102.850024 103.197986 106.677954 110.227264
22.390000 98.277697 100.436874 103.364858 103.789764 107.310390 110.797585
22.512500 98.696752 101.247374 104.138706 104.556246 108.207108 111.301311
22.635000 99.094467 101.962145 104.790703 105.184830 108.705468 111.958732
22.760000 99.574584 102.635419 105.306553 105.838009 109.582895 112.722627
22.885000 99.867197 103.278155 105.904234 106.507056 109.779516 113.460412
23.010000 100.421387 104.110812 106.598760 107.163726 110.343327 114.232315
23.135000 101.185422 104.748921 107.370125 107.863798 111.359036 114.814943
23.260000 102.093606 105.400073 108.051554 108.492883 112.373374 115.161780
23.385000 102.518006 106.268053 108.926973 109.243268 112.775777 115.812768
23.510000 103.271990 106.722970 109.633506 110.007968 114.016759 116.792787
23.635000 103.602432 107.305394 110.445600 110.821246 114.727432 117.772143
23.760000 104.883406 108.394628 111.625138 111.731007 115.414737 118.075727
23.885000 106.866239 109.318029 112.225446 112.529678 116.295211 119.439499
24.010000 107.468728 110.372818 113.076249 113.425760 116.858237 120.139070
24.135000 108.307432 111.358727 114.102033 114.273678 117.559589 120.695256
24.260000 108.857016 112.222533 114.970694 115.120936 118.192917 121.270332
24.385000 110.160922 113.060851 116.124293 116.035692 118.854640 121.799355
24.510000 111.034118 113.772123 117.313383 116.904700 119.707996 122.609731
24.635000 113.011980 114.960736 118.308395 117.867512 120.414241 123.159630
24.760000 113.951526 115.641390 119.130264 118.774995 121.119809 124.380221
24.885000 114.791325 116.891419 120.088037 119.603788 121.707121 124.684752
25.010000 115.535772 117.731512 120.840780 120.604274 122.711083 125.569042
25.135000 116.382885 118.973310 121.566805 121.471100 123.831008 126.393991
25.235000 116.715699 119.764845 122.120434 122.135458 124.530916 126.775567
25.335000 117.197698 120.412443 122.932590 122.871447 125.297638 127.415741
25.460000 118.388292 121.712824 124.100293 123.906347 126.385569 128.292506
25.585000 118.912774 122.526889 124.974424 124.803213 127.084005 129.558388
25.710000 119.942285 123.455115 126.053342 125.781084 128.220678 130.198770
25.835000 120.514214 124.107839 126.737944 126.693568 129.231856 131.462476
25.960000 122.212355 125.223919 127.712930 127.706790 129.921576 132.757838
26.085000 122.708985 125.973098 128.912095 128.663816 131.199513 134.046483
26.210000 123.174816 126.773769 129.785506 129.538001 132.065446 134.857057
26.335000 124.892058 127.763386 130.575976 130.537571 133.344607 135.965282
26.460000 125.749427 128.406798 131.699495 131.668341 134.701559 138.427046
26.585000 126.556199 129.112160 132.833280 132.655544 135.806906 139.234762
26.710000 126.893964 130.238667 133.594589 133.532020 136.744908 139.984340
26.835000 127.932155 131.361564 134.439806 134.402437 137.673942 140.582281
26.960000 129.183578 132.605577 135.198968 135.250835 138.357752 141.627039
27.085000 130.626065 133.497124 136.090876 136.137670 138.942363 142.130642
27.210000 131.202212 134.173165 136.995958 136.883950 139.690657 142.495034
27.335000 131.873161 134.789540 137.722856 137.582639 140.286468 143.223970
27.477857 132.416272 135.471352 138.798408 138.423182 141.349947 143.878674
27.620714 133.047874 136.102142 139.363546 139.207393 142.298632 144.940195
27.763571 133.610794 136.676427 139.878023 139.906157 143.047555 145.405463
27.906429 134.127985 137.538023 140.784974 140.648553 143.873455 146.214367
28.049286 134.791935 138.674607 141.584692 141.446715 144.397823 147.237626
28.192143 135.983253 139.620126 142.380863 142.211360 144.942561 147.622942
28.335000 136.607300 140.292817 143.135318 142.959068 145.487163 148.117283
28.460000 137.334184 140.725924 144.049394 143.585542 145.915415 148.769279
28.585000 137.917777 141.155498 144.741847 144.139143 146.583938 149.372038
28.710000 138.682419 141.615828 145.151914 144.676473 147.208375 149.634818
28.835000 139.115249 142.548702 145.619188 145.261125 147.714973 150.731860
28.960000 139.614753 143.213066 146.091865 145.832193 148.313525 151.339615
29.085000 140.294466 143.599554 146.602986 146.341446 148.671305 151.640207
29.210000 140.644861 144.008615 147.100995 146.845180 149.458171 152.135277
29.335000 140.957984 144.436327 147.694436 147.359079 150.081980 152.577910
29.460000 141.576723 144.805763 148.165698 147.857688 150.510932 153.144092
29.585000 142.197115 145.626304 148.683362 148.408587 151.112234 153.337897
29.710000 142.742944 146.039931 149.145197 148.912067 151.657012 153.633317
29.835000 143.066696 146.587002 149.645617 149.389030 152.300179 154.080161
29.960000 144.115295 147.057587 150.043390 149.876358 152.721617 154.462279
30.085000 144.762736 147.564142 150.603338 150.328247 153.062784 154.866815
30.210000 145.190613 148.018285 150.900113 150.762533 153.742359 155.234624
30.335000 145.822056 148.416003 151.236991 151.166020 154.184410 155.747341
30.477857 146.170774 149.161896 151.651663 151.684627 154.549492 156.685716
30.620714 146.413286 149.718557 152.021565 152.159475 155.387022 157.176091
30.763571 147.164538 150.138779 152.446538 152.603005 155.864781 157.537965
30.906429 147.430067 150.486608 152.897667 153.055996 156.339178 157.878984
31.049286 147.908086 150.806976 153.365009 153.491815 156.695889 158.257164
31.192143 148.266402 151.296221 153.756460 153.921355 157.066004 158.648372
31.335000 148.661404 151.751649 154.366108 154.377286 157.433594 159.155915
31.477857 149.047258 152.109709 154.841134 154.777644 157.891290 159.517882
31.620714 149.287088 152.498709 155.315266 155.214479 158.237608 159.954681
31.763571 150.250770 153.056871 155.740436 155.639713 158.561945 160.401718
31.906429 150.682946 153.456923 156.004248 156.051254 158.879542 160.725078
32.049286 151.052188 153.986450 156.703964 156.551080 159.540279 161.379226
32.192143 151.433939 154.310250 157.101965 156.966964 159.913718 161.790605
32.335000 151.904379 154.804460 157.554853 157.440509 160.325916 162.373824
32.477857 152.326287 155.342604 158.032602 157.913728 160.769185 163.015147
32.620714 153.101609 155.736003 158.486189 158.400426 161.146757 163.353567
32.763571 153.502707 156.172330 158.864866 158.829572 161.523498 163.874812
32.906429 153.889877 156.621804 159.230258 159.260159 161.945780 164.448807
33.049286 154.306726 157.131682 159.643020 159.755383 162.428756 165.026423
33.192143 154.820082 157.542740 160.113464 160.214142 162.904445 165.451122
33.335000 155.124687 158.002350 160.536720 160.687413 163.212694 165.884506
33.460000 155.498778 158.291204 160.963504 161.141415 163.590540 166.303152
33.585000 155.846144 158.738631 161.308435 161.572903 164.293626 166.580188
33.710000 156.291450 159.105342 161.872066 162.002904 164.637692 167.445459
33.835000 157.557330 159.552406 162.366954 162.450285 165.251131 168.716060
33.960000 158.331605 159.980964 162.897770 162.931825 165.809051 169.115772
34.085000 158.889838 160.534140 163.288160 163.377639 166.202677 169.756978
34.210000 159.415381 161.150144 163.649601 163.878375 166.674574 169.924841
34.335000 159.965009 161.705384 164.191722 164.301352 167.039115 170.505438
34.477857 160.327274 162.230618 164.621681 164.812514 167.482056 170.965453
34.620714 160.636249 162.684788 165.097712 165.277019 167.839427 171.398321
34.763571 161.089594 163.232077 165.505023 165.888324 168.386443 172.236161
34.906429 161.411870 163.620605 166.189008 166.411388 169.165268 172.836835
35.049286 161.649922 164.066433 166.815586 166.883895 169.559390 173.451060
35.192143 162.100181 164.401344 167.333325 167.397740 170.071403 173.865682
35.335000 163.217592 164.945994 167.810707 167.942549 170.624679 174.380877
35.465000 163.675680 165.512321 168.194235 168.412964 170.979282 175.002963
35.595000 164.032063 166.069940 168.674457 168.995347 171.607966 175.653501
35.725000 164.418347 166.523455 169.190276 169.571924 172.340091 176.552031
35.855000 165.276472 167.030696 169.643791 170.096403 173.018983 177.146228
35.985000 165.677325 167.366363 170.325671 170.636319 173.663274 177.617370
