depth(m) lower_95.4(kyr) lower_68.2(kyr) median(kyr) mean(kyr) upper_68.2(kyr) upper_95.4(kyr)
0.120000 0.020882 0.183758 0.505960 0.514632 0.832262 0.970626
0.230000 1.283699 2.001541 2.882238 3.069004 3.952192 6.434873
0.330000 3.280923 4.163886 6.450358 6.337429 8.347431 9.714001
0.430000 7.385531 9.570989 10.780415 10.683358 11.909344 13.370122
0.530000 11.649556 13.011236 14.112711 14.119391 15.181194 16.445221
0.630000 14.993193 16.200297 17.130463 17.093896 17.959828 19.017077
0.730000 16.520149 17.858847 18.889475 18.852954 19.958702 21.121115
0.870000 18.869414 19.668995 20.811963 20.919913 22.086882 23.380299
1.000000 20.573669 21.633239 22.734477 22.803804 23.966106 25.474151
1.130000 21.786855 23.092141 24.358057 24.462153 25.919956 27.444271
1.230000 23.238475 24.397132 25.704315 25.840247 27.283267 29.071116
1.330000 24.762674 25.890685 27.367834 27.510633 28.902026 31.618961
1.450000 26.127839 27.779406 29.236724 29.454317 30.889196 33.928937
1.590000 28.344129 29.859151 31.361833 31.614418 33.272989 36.846662
1.690000 29.818982 31.402306 33.097172 33.330366 35.240840 38.909378
1.790000 30.918999 33.293912 34.952988 35.282184 37.368442 40.610144
1.870000 31.869612 34.679789 36.374079 36.642029 38.727551 43.153756
1.980000 35.006608 36.419212 38.313500 38.758543 41.482588 45.022505
2.070000 36.787821 37.693464 40.001866 40.395067 43.279433 46.144139
2.180000 38.047930 39.538655 41.889571 42.423649 45.210589 48.773838
2.280000 39.155383 41.373959 43.760732 44.242082 47.245255 50.705560
2.380000 40.904345 43.614048 46.143517 46.352824 49.183812 54.360993
2.470000 42.147247 45.146881 47.845352 47.920605 50.901725 55.215228
2.590000 43.830587 47.025126 50.059036 50.117024 53.235610 57.048314
2.670000 45.079797 48.219989 51.191295 51.490001 54.606564 58.299374
2.780000 47.178733 50.075040 53.151278 53.557845 57.135173 60.033261
2.870000 49.395941 51.758795 55.081347 55.287408 58.856821 61.441607
2.960000 50.433348 53.434958 56.755289 56.912737 60.601788 62.747525
3.090000 51.677205 55.833515 59.047523 59.252456 62.904796 65.480942
3.180000 53.840605 57.654729 60.994178 61.061206 64.684024 66.732085
3.280000 55.868345 60.504577 63.998168 63.830847 67.143749 69.411015
3.390000 59.425383 64.001730 66.829686 66.608585 69.465903 71.563222
3.480000 61.045048 66.856400 69.538168 69.221763 71.615975 73.193523
3.570000 66.702301 70.506156 72.849269 72.496503 74.190599 77.083581
3.670000 70.467498 73.028125 74.974237 75.082716 77.089646 80.311419
3.780000 73.952733 75.972560 78.161958 78.363609 80.558638 83.511625
3.880000 76.351578 78.697804 80.785078 81.240135 83.921057 90.161964
3.990000 79.227223 81.054148 83.684710 84.468948 87.357677 94.532548
4.100000 81.207492 84.970141 88.076794 88.372241 92.846800 98.495293
4.200000 83.306126 87.883990 91.902068 91.731669 95.556518 101.024571
4.280000 86.278471 90.672191 94.893435 94.690951 98.564951 102.701596
4.370000 88.821130 93.956652 97.736055 97.771523 102.084685 104.364170
4.430000 91.784972 96.365189 100.238497 99.977441 104.200618 105.870943
4.460000 92.250905 97.559848 101.206185 101.052055 105.020130 107.015396
4.550000 95.845576 101.133517 103.689049 104.087332 108.060915 111.876297
4.670000 100.080953 104.736272 108.008424 107.990006 111.433427 114.482900
4.790000 103.062305 107.566465 111.934209 111.421728 114.444449 117.782936
4.900000 109.104661 111.938901 115.264150 114.860885 117.675772 120.662767
5.020000 112.809111 115.146955 118.173641 117.926938 120.630667 122.907555
5.120000 115.172414 117.633501 120.399342 120.279134 123.058256 125.166284
5.220000 117.650069 119.833385 122.704253 122.446706 124.884483 126.805738
5.320000 120.121914 122.251261 125.319531 125.201731 127.715478 130.082089
5.420000 123.166633 126.540370 129.598374 129.307756 132.127811 134.802886
5.520000 126.697633 130.555019 133.024931 133.299026 136.675334 139.720964
5.620000 131.157937 133.788676 136.549373 136.839515 139.873901 142.870946
5.720000 134.613188 136.414862 139.478647 139.548319 142.754571 145.914029
5.820000 136.914415 138.525710 141.929608 141.932645 145.376778 147.672087
5.920000 138.576799 140.966532 144.140545 144.247975 147.588741 150.765109
6.020000 140.738163 143.104895 146.443543 146.514254 149.631418 153.694836
6.130000 143.375960 145.364663 148.956945 148.950696 151.744266 155.746553
6.230000 145.079539 147.743090 151.472552 151.091856 154.221838 156.780836
6.330000 147.356323 150.077175 153.419996 153.056764 155.914596 158.115979
6.430000 148.682747 152.237716 155.352913 155.065260 157.639517 160.060173
6.530000 150.448994 154.352459 157.536281 157.165722 159.814339 161.724843
6.630000 153.501913 156.992144 159.526286 159.259551 161.857128 163.750450
6.720000 154.788634 158.963943 161.228175 161.079577 163.447694 166.139452
6.820000 158.670202 160.816112 163.485663 163.326873 165.272903 167.875074
6.910000 160.616471 162.838993 165.418596 165.362837 167.805666 170.779432
7.000000 162.744852 165.079227 167.521055 167.587870 169.929338 173.646935
7.090000 164.462496 167.806528 170.243283 170.237896 172.558713 175.654432
7.180000 167.855054 170.005861 172.878142 172.921576 175.757707 179.318931
7.270000 170.155796 172.253413 174.996551 175.362078 178.233614 182.388397
7.360000 171.980176 174.621414 177.475929 177.607548 180.923868 183.715601
7.450000 174.169955 176.929476 179.660406 179.753508 183.332329 185.336148
7.530000 176.084870 178.822949 181.632036 181.795374 185.195692 188.142261
7.620000 178.416914 181.217923 184.087240 184.260499 187.447220 189.571014
7.710000 180.345381 184.067272 186.593276 186.785757 190.000627 192.201075
7.790000 184.796738 187.094164 189.088621 189.589483 192.381347 195.629767
7.880000 188.356320 190.261999 193.142668 193.247775 196.233794 198.250600
7.950000 190.152883 192.927787 195.839929 195.534864 198.460977 200.692701
8.030000 193.262238 195.681019 197.815802 197.898602 200.240442 203.278951
8.100000 194.983486 197.711100 199.819509 199.810295 202.408350 204.310960
8.180000 197.320347 199.672977 202.173314 202.362749 205.248284 207.598192
8.260000 199.213347 201.977813 204.501826 204.648466 207.952976 211.366937
8.340000 201.829434 204.314992 206.695837 207.053587 210.103000 213.089489
8.420000 204.487416 206.617743 208.878686 209.252334 211.815860 214.686349
8.500000 205.872185 209.103493 211.274636 211.530270 214.336429 216.412171
8.590000 209.280248 211.896875 214.168240 214.186472 216.899431 218.549388
8.680000 212.110501 214.375515 217.319302 217.282958 219.907209 223.313216
8.770000 214.923291 217.924430 220.718704 220.832403 223.773612 226.560346
8.870000 218.363684 220.689266 224.259982 224.062007 227.497620 229.497510
8.980000 222.277003 223.653421 227.195204 227.229406 230.566838 232.403465
9.080000 224.609422 227.176743 230.242540 230.130840 233.368984 235.574561
9.190000 227.405452 230.607862 233.195916 233.227972 235.898405 238.580941
9.290000 229.491032 233.347552 235.963923 235.671272 238.358294 240.162611
9.400000 232.173937 236.364768 238.533118 238.598782 240.993890 242.619059
9.490000 236.512418 238.773790 241.058643 241.045942 243.008785 245.557937
9.580000 238.510459 240.989741 243.958143 243.854763 246.529079 249.173712
9.680000 240.912916 244.221981 246.805326 246.820191 249.422447 251.850698
9.780000 245.683843 247.659374 250.186973 250.316931 252.878950 257.724093
9.870000 248.018868 249.839472 253.068186 253.230801 256.412123 259.310030
9.960000 249.973562 252.498597 255.360004 255.737931 259.383637 261.872851
10.060000 252.326249 255.008505 257.868342 258.170994 261.855215 264.245640
10.160000 253.744378 257.457310 260.135114 260.384874 264.033494 266.744321
10.270000 256.128152 259.604001 262.411593 262.698918 265.961804 269.029223
10.380000 259.428244 261.583381 264.837751 265.087583 268.773523 271.188360
10.500000 261.653834 264.405185 267.689182 267.660505 271.382753 273.597377
10.550000 262.606370 265.359432 269.001273 268.897364 272.985559 274.815735
10.610000 263.672596 267.455179 270.547885 270.539603 274.162501 276.069325
10.710000 266.450598 270.692999 273.524445 273.143265 276.077562 277.447126
10.730000 266.908347 271.029811 273.959158 273.626968 276.537022 277.829074
10.840000 269.812578 274.279846 276.721055 276.481633 278.859995 280.133504
10.910000 273.650530 276.898126 279.000163 278.721295 280.490055 281.447595
10.940000 275.181228 277.931603 279.743034 279.663352 281.384162 282.417984
11.030000 278.618561 280.552436 282.301902 282.283381 283.875675 285.763423
11.120000 281.161469 283.521527 284.635574 284.868470 286.563368 289.072986
11.200000 283.285222 285.183624 286.668593 286.943378 288.753727 291.694806
11.230000 283.788925 285.802449 287.403041 287.650386 289.662906 292.245685
11.280000 285.085290 286.739562 288.754444 288.870080 290.972818 293.017488
11.320000 286.345699 287.637654 289.815897 289.753865 291.691745 294.128481
11.360000 286.892600 288.462190 290.644206 290.679688 292.592820 295.012476
11.410000 287.868262 289.719455 291.623269 291.991112 293.971421 296.765664
11.490000 289.926321 292.052965 293.604421 294.274356 296.762630 301.480923
11.590000 292.351763 294.571989 297.411307 297.627209 300.962857 304.613165
11.710000 295.713829 297.644764 301.012742 301.123661 304.771157 306.898264
11.800000 297.560138 299.638794 304.213371 303.931414 307.470784 309.307374
11.870000 298.935972 302.203397 306.084846 305.988906 308.962526 311.352634
11.940000 301.467507 304.800512 308.644154 308.158503 311.066924 313.500405
12.030000 303.713172 307.632618 311.043477 310.916633 313.791088 316.347074
12.090000 307.167625 310.418281 312.226374 312.538673 315.207368 318.405768
12.200000 310.842559 312.980790 314.744581 315.112003 317.546758 320.159357
12.330000 314.104487 315.551911 317.950444 317.899951 319.818312 322.109137
12.380000 315.486705 316.930237 319.135165 319.037182 321.092721 323.079379
12.430000 316.482901 318.039174 320.197352 320.254095 322.355938 323.950606
12.510000 318.141849 319.784814 321.885956 322.047629 323.985125 325.675500
12.530000 318.653190 320.552321 322.414393 322.580893 324.531892 326.061923
12.620000 321.390292 323.334075 324.888179 324.986709 326.845491 328.327007
12.640000 321.849719 323.742846 325.364479 325.479163 327.285368 328.617310
12.710000 323.338188 325.506578 327.128147 326.984112 328.638992 329.814233
12.790000 324.721575 327.002843 328.815887 328.573336 330.228667 331.311486
12.810000 324.990572 327.296513 329.242730 328.958822 330.586027 331.700661
12.890000 327.045283 329.098232 331.173585 330.900206 332.646159 333.692485
12.970000 329.135458 331.347756 333.128599 332.929079 334.712951 335.866613
13.050000 331.721789 333.438097 335.399846 335.295263 337.104238 338.797940
13.180000 336.765133 337.964304 339.974078 340.065078 342.122608 345.359186
13.200000 337.187505 338.840497 340.469967 340.712847 342.687837 345.731865
13.270000 339.159958 340.542090 342.513906 342.784804 345.329273 347.208057
13.290000 339.770779 341.162218 342.920764 343.356443 345.767722 347.902818
13.330000 340.770932 342.603164 344.256835 344.625387 346.951182 349.002286
13.370000 341.668376 343.699181 345.919759 345.882590 348.241275 350.306331
13.390000 342.658058 344.173162 346.531630 346.503357 348.753514 350.687725
13.460000 344.128978 346.046715 348.276488 348.299759 350.471680 352.412710
13.540000 346.114769 348.319412 350.372280 350.336145 352.744027 353.593852
13.560000 346.588516 348.811720 350.798166 350.823859 353.077568 354.070431
13.670000 348.666466 351.390113 353.572906 353.271111 355.362203 356.387687
13.770000 350.633170 353.658128 355.620481 355.392458 357.102476 358.521369
13.850000 352.515397 355.204437 357.198829 357.044842 358.836555 360.259198
13.910000 355.202650 357.009015 358.501214 358.550180 360.070079 361.850950
13.960000 356.411911 358.195052 359.815489 359.831866 361.460444 363.281163
14.020000 357.109095 359.761316 361.641299 361.423181 363.031546 365.160276
14.080000 358.369485 361.382123 363.174527 363.269089 365.060132 368.227296
14.180000 362.469668 364.357168 366.890558 367.293701 370.738593 374.698467
14.320000 365.507185 367.820199 371.204024 371.853054 375.612748 379.930361
14.460000 369.416822 371.170844 375.345379 375.671472 380.073879 383.018906
14.590000 373.472217 376.755574 380.084146 379.990721 384.003941 386.951899
14.690000 376.262692 379.681312 383.466257 383.139791 386.330124 389.011789
14.770000 378.116253 382.711843 385.516468 385.556722 388.484056 391.469012
14.860000 382.482201 386.115189 388.346114 388.275125 390.889123 393.322860
14.950000 384.900998 388.386145 390.520371 390.562249 393.259887 394.514960
15.060000 388.801957 390.910230 393.152817 393.293385 395.913540 397.404309
15.180000 391.752405 394.280352 396.792827 396.471277 398.737731 399.767550
15.255000 393.215144 395.722939 398.394478 398.125084 400.157893 400.926468
15.330000 395.459295 398.432829 400.109608 399.844265 401.672792 402.643539
15.420000 397.498949 400.467470 402.015842 401.718752 402.916656 403.972139
15.470000 400.242231 401.673230 402.891007 402.787907 403.899493 404.808250
15.520000 401.912602 402.853035 403.837578 403.812121 404.788447 405.588474
15.600000 402.926690 404.200088 405.215653 405.180384 406.173509 407.248185
15.630000 403.547999 404.635740 405.714731 405.677356 406.689173 407.892645
15.740000 405.335055 406.393180 407.520738 407.522219 408.666959 409.879440
15.850000 407.082492 408.128866 409.191549 409.259730 410.303982 411.655456
15.950000 408.512073 409.655853 410.857908 410.908688 412.313427 413.360558
16.060000 410.363801 411.748677 412.964961 413.140517 414.567598 416.847190
16.170000 412.187093 414.069893 416.052935 416.143298 417.936353 420.584926
16.270000 415.925074 418.156637 420.812781 421.036072 423.898808 426.749164
16.410000 421.434929 423.502191 426.728803 426.609123 429.646980 431.924442
16.510000 425.260392 427.019366 429.852821 429.987079 432.839881 436.139265
16.610000 427.631211 430.330107 433.029216 433.050716 435.670027 438.482727
16.710000 429.891339 432.992176 435.275861 435.619869 438.189350 441.421546
16.820000 432.924923 435.619376 438.091996 438.270310 441.250087 444.046651
16.920000 435.748953 438.192337 441.040351 440.987672 443.882124 445.897326
17.020000 437.835841 440.919968 443.895199 443.677564 446.028586 449.006826
17.110000 440.277066 443.179695 445.860808 445.585455 447.880020 450.898285
17.210000 442.219839 445.402539 447.695729 447.541378 449.874080 452.716601
17.310000 444.389179 447.234686 449.472369 449.465012 451.632002 454.993362
17.410000 446.974076 448.981691 451.419982 451.282958 453.298702 455.992814
17.510000 448.716293 450.793808 452.882875 452.933169 455.257257 458.016234
17.610000 450.276389 452.232882 454.653848 454.551899 456.685245 459.765875
17.710000 451.681985 453.742881 456.156308 456.052933 458.493154 460.924802
17.805000 453.275844 455.382779 457.546062 457.548675 459.842991 462.156635
17.900000 455.108637 457.026094 459.034480 459.194863 461.537480 463.645277
17.930000 455.509025 457.498844 459.840675 459.758369 462.173851 464.372467
18.000000 456.624805 458.709270 461.170327 461.056716 463.492116 465.319165
18.030000 456.975743 459.253126 461.721856 461.583399 464.129646 465.769666
18.100000 458.404213 460.365115 462.806484 462.740038 464.953897 468.288598
18.200000 460.781845 461.979665 464.432330 464.473549 466.465868 470.003377
18.300000 462.198267 463.738158 466.215146 466.247882 468.705909 471.752197
18.410000 463.601495 465.740554 468.486539 468.326495 470.788329 473.199138
18.510000 465.015299 467.622335 470.326022 470.496853 473.353789 475.504316
18.610000 466.589163 470.663380 473.430009 473.370948 476.666868 479.429348
18.710000 470.876213 473.775992 476.793393 476.590771 479.765035 480.907249
18.810000 474.056575 478.110983 480.419154 480.337482 482.632242 484.821842
18.910000 478.539864 481.473004 483.175951 483.142893 485.096444 486.416360
19.050000 482.483322 484.340056 486.359503 486.568536 488.453476 494.945230
19.150000 484.971432 486.927986 489.316680 489.532723 491.690725 496.608250
19.250000 487.352437 489.930423 492.682118 492.616729 495.440902 498.077053
19.350000 489.204504 492.562774 495.308377 495.187144 497.449247 500.572949
19.450000 491.046385 495.402223 497.704890 497.475199 499.770632 501.946346
19.550000 493.767620 497.278371 500.105500 499.692411 501.923675 503.986766
19.650000 495.464957 500.057812 501.958346 501.866847 503.841034 505.738093
19.750000 501.482250 502.935019 504.926766 504.769423 506.310343 507.917390
19.850000 504.580601 505.720309 507.269204 507.270226 508.931444 510.710431
19.950000 506.678707 508.096944 509.422465 509.464852 511.062386 512.570981
20.050000 508.241398 510.062971 511.606205 511.744390 513.339716 515.371057
20.150000 510.578695 512.203523 513.735185 513.944551 515.745745 518.023510
20.250000 512.549717 514.831878 516.792226 516.935572 518.871256 521.709401
20.270000 513.063961 515.294362 517.444445 517.587935 519.685525 522.833888
20.350000 515.594405 517.942627 520.667610 520.847257 523.617610 527.409777
20.430000 517.917096 520.692586 523.398460 523.969399 527.102458 530.656830
20.510000 521.204487 524.841509 527.385188 527.411644 530.021716 534.280487
20.610000 526.758936 529.644498 532.562300 532.556554 535.059764 540.088785
20.700000 528.164871 533.056927 536.099947 536.754846 540.628659 545.931340
20.810000 533.587761 537.105775 540.217644 541.037268 545.821537 549.786894
20.910000 536.087091 539.938927 544.683355 545.037294 549.901511 553.492759
20.985000 538.890152 542.782351 548.003102 547.690571 552.397237 555.709967
21.060000 541.627817 545.665463 550.401483 550.343077 554.959074 557.205295
21.135000 543.340580 548.583598 553.101604 552.798856 557.017126 558.965919
21.210000 546.103499 551.549407 555.830424 555.266153 558.843400 561.094254
21.290000 548.694149 554.246564 558.378592 557.559336 560.837505 562.938364
21.370000 551.221524 557.014984 560.453402 559.854351 562.356464 564.843700
21.460000 556.942380 561.094999 563.411381 562.942200 564.828811 566.773179
21.560000 562.733337 564.486983 565.968822 566.103399 567.683759 569.719037
21.620000 564.542606 566.431744 568.008102 567.979127 569.598251 571.466375
21.680000 566.931962 568.495759 569.922254 569.941144 571.478937 573.320672
21.760000 569.248567 570.267150 572.107060 572.002595 573.561971 575.435143
21.830000 570.848072 572.126679 573.709934 573.793603 575.216931 577.448778
21.900000 572.027838 573.752745 575.507843 575.447770 576.835136 579.808708
22.010000 574.676626 576.065456 578.031506 577.903698 579.413065 582.248277
22.150000 578.434753 580.042594 581.740178 581.698603 583.068583 585.640260
22.280000 582.285452 583.566047 585.825882 585.835455 588.039437 589.868912
22.410000 585.389242 587.292814 589.459923 589.415853 591.553201 593.532093
22.500000 587.936734 590.113523 592.222313 592.233881 594.416623 596.767287
22.600000 591.183356 593.148630 595.820338 595.645730 597.891255 601.051227
22.700000 593.609824 596.088159 599.123948 598.888672 601.533055 604.052732
22.780000 596.024588 598.280431 602.015586 601.783975 604.514824 608.382889
22.870000 598.626344 602.765916 606.257232 606.053693 609.194625 611.530153
22.950000 604.671490 608.255838 610.218750 610.364932 612.731172 615.154412
23.010000 607.323649 611.236111 613.580908 613.395519 615.832519 617.971915
23.080000 610.313509 614.369669 616.558526 616.478876 618.729213 620.420230
23.140000 614.788283 617.839886 619.544885 619.352647 621.040278 622.467034
23.220000 619.127138 620.965030 622.406069 622.468042 624.169489 625.180775
23.300000 621.579395 622.621131 624.308567 624.288740 626.084437 626.933069
23.390000 623.448522 624.154326 626.054325 625.977156 627.754373 628.751759
23.480000 625.017415 625.825142 627.751261 627.655909 629.716908 630.677193
23.560000 626.160752 627.104887 629.011644 629.029574 630.919748 632.455640
23.650000 627.339788 628.634812 630.390076 630.463830 632.281062 634.307922
23.760000 629.377485 630.371366 632.344736 632.330644 633.859525 635.799636
