depth(m) lower_95.4(kyr) lower_68.2(kyr) median(kyr) mean(kyr) upper_68.2(kyr) upper_95.4(kyr)
0.010000 0.037181 0.162977 0.468323 0.493486 0.850707 0.980036
0.110000 1.124917 1.621834 2.145806 2.486736 3.347000 5.736851
0.210000 2.376280 3.012132 4.259670 4.448535 6.047153 8.349551
0.310000 3.712159 5.145254 6.662902 6.754294 8.516964 10.536374
0.410000 11.812849 13.479768 15.314057 15.145762 16.629836 17.708590
0.510000 13.909784 15.965250 17.283194 17.278316 18.880527 20.236195
0.610000 16.262944 17.752201 18.975091 19.082329 20.538070 22.114809
0.710000 18.098398 19.257445 20.705449 20.772211 22.307777 25.304303
0.810000 19.413212 20.665970 22.348107 22.421883 24.112828 26.152595
0.910000 20.705889 22.361221 24.185230 24.127725 25.822481 27.150811
1.010000 22.748680 24.360548 25.811856 25.727501 27.364399 28.546978
1.110000 24.651932 25.869750 27.404523 27.333249 28.845581 29.706949
1.210000 26.127648 27.375736 28.630552 28.711598 29.989891 31.054404
1.310000 27.194431 28.558875 30.183794 30.106328 31.480499 33.729851
1.410000 28.466609 29.907610 31.257287 31.457165 32.952841 35.647757
1.510000 29.586951 31.165372 32.787378 32.990592 35.100202 37.179891
1.610000 30.609739 32.209061 34.180514 34.302526 36.406816 38.562553
1.710000 31.464088 33.585925 35.701619 35.649986 37.726920 39.843893
1.810000 32.871626 34.842484 36.847635 36.923420 38.903942 40.835498
1.910000 34.249383 36.137450 38.351831 38.351684 40.780582 42.447724
2.010000 35.319134 37.349972 39.501894 39.669236 42.336319 44.810221
2.110000 36.290852 38.681558 40.892940 41.089454 43.895969 46.157558
2.210000 37.538605 40.163605 42.538238 42.614597 45.196220 47.256964
2.310000 39.071067 41.647248 43.847320 44.043051 46.549377 48.925153
2.410000 40.735907 43.066892 45.596122 45.553844 47.897531 50.173324
2.510000 42.779500 44.522130 47.349969 47.078654 49.428819 52.310958
2.610000 43.767659 46.066232 48.852020 48.726841 50.986179 54.487494
2.710000 44.781408 47.295492 50.476000 50.342110 52.778702 55.854472
2.810000 45.940333 49.197848 51.730702 51.916831 54.761413 57.537791
2.910000 48.258440 51.244808 53.608020 53.546379 56.124139 58.820900
3.010000 50.039524 52.464650 55.098410 55.026060 57.841452 59.387260
3.110000 51.392271 53.929420 56.494245 56.514259 59.275334 61.345873
3.210000 52.924030 55.641404 57.917222 57.945739 60.428306 62.257304
3.310000 54.412108 56.900711 59.358157 59.361070 61.853425 63.819548
3.410000 56.045805 58.058458 60.755730 60.710319 63.522906 64.544486
3.520000 57.666881 59.895811 62.273167 62.199181 64.918186 65.824235
3.630000 59.599556 61.379913 64.082141 63.820221 66.094314 67.313668
3.740000 61.796617 63.563835 65.640517 65.540374 67.582540 68.742571
3.840000 63.304649 65.698130 67.207967 67.224086 69.056176 70.028750
3.940000 65.094078 67.821397 69.508839 69.354043 71.041219 72.720930
4.040000 69.847089 71.922971 73.773639 74.017128 76.569523 78.920450
4.140000 74.065102 75.374553 77.060169 77.277050 79.185244 81.812975
4.240000 76.619471 77.651590 80.143123 80.012533 81.897848 84.540134
4.340000 78.579200 79.545350 82.113267 82.221754 84.229765 87.926433
4.440000 80.005369 81.866440 84.166034 84.224729 86.898717 89.166060
4.540000 80.698896 83.863070 86.494578 86.418914 89.027984 91.095957
4.640000 83.316640 85.570392 88.418766 88.341019 90.645447 92.994335
4.740000 85.615408 88.795395 90.440633 90.520931 92.842071 94.735512
4.840000 87.597521 90.730266 92.954363 92.587015 94.374504 96.261213
4.940000 90.814222 92.878315 94.902226 94.649723 96.366527 98.235641
5.040000 93.462203 94.846481 96.716464 96.832100 98.718646 100.653970
5.140000 95.300631 96.684074 99.067942 98.880150 100.682079 103.674365
5.240000 96.458901 98.237261 100.464031 100.637018 102.785289 105.457849
5.340000 97.925879 100.013669 102.195852 102.356810 104.644554 106.955608
5.440000 99.939243 101.629606 104.325059 104.340263 106.916844 109.799244
5.540000 101.296262 103.688854 106.408930 106.456091 109.141894 111.865971
5.640000 103.209844 105.654927 108.365623 108.528826 111.355618 114.008559
5.740000 104.717998 107.667997 110.949713 110.962203 114.190076 117.033292
5.840000 107.109330 109.961714 113.759227 113.650188 116.964712 121.133499
5.940000 109.425890 113.173494 116.947032 116.648798 119.928744 122.586834
6.040000 113.158341 116.582051 119.453927 119.623220 122.787615 125.800106
6.140000 117.191500 120.516990 122.437008 122.886469 125.359348 129.518028
6.240000 119.631085 123.541347 126.279996 126.197750 129.252668 132.741710
6.340000 126.152867 128.066557 131.693415 131.674519 135.071018 137.949348
6.440000 128.116743 131.273191 135.555073 135.256311 139.696006 141.464003
6.573333 131.151063 134.961667 138.924107 138.805288 142.441763 145.690647
6.706667 133.959687 138.276769 142.457373 142.090032 145.438872 148.976540
6.840000 136.565452 140.918909 145.835509 145.040362 148.528908 151.809924
6.940000 139.255305 143.223081 147.650780 147.297513 151.005935 154.170902
7.040000 140.751761 145.332858 149.366837 149.369172 153.416560 156.980972
7.140000 143.802568 147.983332 151.820436 151.750272 155.311523 158.295856
7.240000 146.623586 150.346394 153.534690 153.723769 157.576670 159.354668
7.335000 149.094857 152.277628 155.693602 155.586887 159.344309 161.138610
7.430000 150.760831 154.264454 157.062881 157.364410 161.040275 162.721403
7.530000 153.118268 155.562609 159.223999 159.259119 162.688364 164.674553
7.630000 155.333671 158.317960 161.009227 161.161901 164.536412 167.655781
7.730000 156.853073 159.913179 163.272187 163.052006 166.102557 169.304782
7.830000 159.084873 161.749331 164.879110 164.752069 167.820285 172.036122
7.930000 160.888197 163.182175 166.761690 166.439862 169.112392 173.261197
8.030000 162.664243 165.073776 168.362568 168.074072 170.544414 174.601103
8.130000 164.782351 167.179759 170.318617 170.135156 172.742839 176.980523
8.230000 166.974750 169.100744 172.305590 172.140905 174.863056 178.595566
8.330000 168.169869 170.994258 174.428722 174.397811 177.129945 180.539185
8.430000 169.768445 173.534775 176.580779 176.634924 180.115072 182.472086
8.530000 172.095538 175.601192 178.537740 178.829779 182.568391 185.508812
8.630000 174.109454 177.687813 180.956667 180.998764 184.599463 187.422802
8.730000 176.035380 180.023022 183.934305 183.405120 186.979511 188.817068
8.830000 179.704054 182.543625 186.151626 185.814234 188.812785 191.218917
8.930000 183.340435 185.466493 188.169798 188.176986 190.656396 193.690367
9.030000 186.457731 188.396315 190.910476 190.831620 193.148995 196.414052
9.130000 189.249630 191.485998 193.006037 193.327194 195.930697 197.449144
9.230000 192.002123 193.918400 195.741471 195.936042 198.185986 200.244571
9.330000 193.844468 196.068499 198.457522 198.328295 200.635670 202.571757
9.430000 196.903450 198.425511 200.605942 200.663969 202.538507 204.872209
9.530000 198.393534 200.050799 202.523373 202.346199 204.403900 206.110362
9.630000 200.486918 201.753979 204.008556 204.032556 205.942109 208.235180
9.753333 201.863338 203.882326 206.200074 206.178919 207.981440 210.885108
9.876667 203.819641 205.795199 208.272513 208.465261 210.744011 213.672028
10.000000 205.521919 207.618765 210.282802 210.468186 212.923795 215.671380
10.100000 207.028186 209.569985 212.067522 212.237564 214.729996 218.046728
10.200000 209.289345 212.031004 213.996939 214.179065 216.479813 220.474891
10.300000 209.852182 214.312456 216.207107 216.422894 218.769396 222.489894
10.400000 214.462036 216.958030 218.952205 219.564087 222.880474 225.830171
10.500000 217.476501 220.407865 223.168293 223.506866 226.318498 230.476086
10.633333 220.088898 223.636938 228.077589 227.750713 231.640733 234.447913
10.766667 223.914179 227.722165 231.419851 231.311287 235.146858 237.261605
10.900000 226.565596 231.336248 235.274099 234.866080 238.650987 241.972673
11.000000 230.794498 233.611087 237.736013 237.527563 240.809142 243.776892
11.100000 232.585443 237.458364 240.077557 240.156411 243.263897 245.489598
11.200000 234.652562 240.639337 243.003721 243.002351 246.330395 248.571206
11.300000 236.851198 242.922650 246.473102 246.061559 250.045216 253.064061
11.400000 241.182735 245.614588 249.085891 248.777084 252.061157 255.064100
11.500000 244.389707 247.700417 251.517284 251.132222 254.308068 257.781822
11.600000 247.416666 250.373553 253.617775 253.434480 256.282370 259.620226
11.700000 250.661152 252.206103 255.640781 255.606015 258.098427 261.849081
11.800000 251.980621 254.738406 257.476782 257.591718 260.651173 263.626321
11.900000 254.645200 256.682108 259.367328 259.489338 262.888153 265.250018
12.000000 256.683658 258.255009 261.446441 261.453917 264.906319 267.278663
12.100000 258.351780 260.150274 262.879976 263.308145 267.102077 269.344134
12.200000 259.810111 262.253147 264.533471 265.149640 269.227527 270.989444
12.300000 261.787604 264.312965 267.062293 267.219658 270.786556 273.437612
12.400000 263.472957 266.479594 269.242810 269.451049 272.481491 274.822981
12.500000 265.676537 269.336471 272.128295 272.022664 274.694590 277.797983
12.600000 268.410398 271.986197 275.165976 274.934912 277.328914 279.764409
12.700000 272.622570 275.937869 279.353464 279.243307 282.541383 284.954279
12.800000 273.940349 278.708387 283.469217 283.109389 287.025727 290.464672
12.944000 278.101928 282.203829 286.732107 286.714936 291.425631 294.748584
13.088000 279.386738 285.850545 289.628294 289.913748 294.440031 299.185025
13.232000 285.120568 289.064478 293.223863 293.356625 297.493029 303.388392
13.376000 288.240455 292.440856 297.115004 297.195559 302.656973 307.072752
13.520000 290.966633 295.249804 299.811557 300.555782 306.358603 311.028222
13.664000 295.352084 299.651070 304.556149 304.718458 310.026869 314.528242
13.808000 298.551242 302.753342 308.362845 308.306214 313.765006 318.140026
13.952000 301.204503 306.446327 312.058214 312.131845 317.599629 324.852193
14.096000 303.722424 309.842178 316.269119 315.815558 320.982079 327.663667
14.240000 309.581169 313.712874 319.540541 319.588670 324.622249 330.439077
14.384000 313.533046 317.770845 323.474184 323.460241 328.607850 333.414113
14.528000 315.800609 320.915781 327.111137 326.832106 332.278788 336.366355
14.672000 317.898352 324.057303 329.862976 329.969689 336.341396 339.095515
14.816000 321.038119 327.628528 333.795839 333.574152 339.090043 343.023971
14.960000 324.266033 331.519873 337.196725 337.085310 342.691932 346.737252
15.104000 327.732722 335.050474 340.038864 340.247366 346.453743 349.958586
15.248000 332.772979 338.347559 343.311248 343.487606 349.205177 353.736565
15.392000 336.573915 342.616439 346.599373 346.860720 351.954194 356.323112
15.536000 340.441032 345.238716 350.149974 350.323845 355.461790 360.036051
15.680000 342.668248 347.966816 353.044884 353.591819 359.186579 364.998024
15.824000 345.787870 351.532933 356.818615 357.140165 362.942715 368.050525
15.968000 349.430219 354.431873 360.590910 360.443732 366.060402 370.144886
16.112000 353.055600 358.263378 363.976759 363.758603 369.118913 372.831503
16.256000 358.399874 362.515780 367.192008 367.198046 371.755583 376.598793
16.400000 362.505892 366.524634 370.170044 370.412838 374.672711 378.316010
16.500000 365.947175 369.370967 372.788780 373.147935 376.898315 380.263036
16.600000 367.824508 372.157078 375.521683 375.435194 379.192347 381.799214
16.700000 370.966224 374.512785 377.918175 377.924330 381.739788 383.487256
16.800000 373.689142 377.173827 380.841926 380.679592 384.369807 386.565717
16.900000 375.704573 379.968584 383.294375 383.246265 386.945616 389.430660
17.000000 377.844652 382.238074 385.558269 385.633268 388.939908 392.131397
17.100000 379.112530 384.123752 388.433137 387.973121 391.764855 394.018682
17.200000 382.593233 386.804930 391.233694 390.802524 394.867729 396.951102
17.300000 387.303859 389.540060 393.784319 393.581274 397.186068 400.863051
17.400000 391.169281 393.096153 396.204282 396.436301 399.279180 403.753794
17.500000 393.499975 396.821792 399.270626 399.674999 402.789775 407.378715
17.600000 398.224675 400.792417 402.631483 403.488685 406.477088 411.667526
17.700000 402.278894 404.569758 407.112984 407.679985 411.096919 414.368833
17.800000 406.179195 410.463162 412.910892 412.524288 414.629149 417.405345
17.900000 412.369634 414.922890 417.784372 417.673458 420.029360 423.630024
18.000000 417.472837 419.294977 421.905635 421.995388 425.354182 427.487219
18.100000 421.747055 423.715977 426.266844 426.216624 428.421246 431.509344
18.200000 423.878330 427.329857 429.312138 429.256100 431.438670 433.072504
18.300000 425.242413 429.570938 431.278421 431.466580 433.464070 436.167909
18.400000 427.269727 431.698204 433.428521 433.403441 435.543284 437.333497
18.500000 431.348189 433.326328 435.316943 435.299139 437.545140 439.506806
18.600000 432.853530 435.233290 437.120571 437.160060 439.358260 441.567002
18.700000 434.471495 436.838655 438.850446 438.946731 441.069447 443.319593
18.800000 436.078979 438.873380 440.447375 440.707060 442.727891 445.468257
18.900000 438.450711 440.930861 442.611656 442.589075 444.482536 446.847727
19.000000 440.391617 442.804018 444.634728 444.715615 446.921866 449.666897
19.145455 443.546171 445.825745 448.274279 448.919583 453.017963 457.223308
19.290909 446.501117 449.155870 452.034493 453.246717 458.250349 465.068303
19.436364 449.560691 452.815661 457.930931 458.600615 465.679044 471.645399
19.581818 453.143664 456.429933 463.252903 463.911056 470.278766 475.443656
19.727273 456.128557 461.165469 468.752706 468.627005 476.182267 480.417991
19.872727 459.450055 465.630085 473.749560 473.600988 480.880234 486.836801
20.018182 463.994846 471.070382 478.306852 478.336647 484.837138 490.028503
20.163636 469.553943 475.327044 483.649500 482.963704 489.677692 494.459554
20.309091 474.653895 482.017219 487.990046 487.685686 493.354362 497.473615
20.454545 479.280961 488.899959 492.781203 492.795408 497.990278 499.591027
20.600000 491.155683 494.876043 499.097191 498.472325 501.551860 503.388870
20.700000 496.440952 500.125162 503.461571 502.829058 505.124837 507.236837
20.800000 503.947051 505.350195 507.403482 507.715717 510.130747 512.031497
20.900000 507.169529 508.388411 510.834756 510.709075 512.850093 513.983832
21.000000 508.816260 510.731370 513.200129 512.846824 514.545310 515.474435
21.100000 511.161493 513.537702 515.075194 514.896338 516.349347 517.129333
21.200000 514.207880 515.609496 516.834545 516.718486 517.865362 518.787217
21.300000 516.259128 517.462937 518.521724 518.461069 519.415962 520.867318
21.400000 517.994288 519.000897 520.177148 520.110855 521.191620 522.149291
21.500000 519.326912 520.407646 521.558808 521.554286 522.736528 523.858384
21.600000 521.184298 521.993353 523.093284 523.163948 524.425621 525.752293
21.700000 522.224187 523.446602 524.485962 524.579194 525.859792 527.297258
21.800000 523.858449 525.008865 526.331164 526.329017 527.693821 528.752056
21.900000 525.672043 526.732501 528.128794 528.361784 530.015900 531.323668
22.000000 527.705103 529.137819 530.643807 530.762741 533.056058 534.248339
22.100000 530.616781 532.603664 534.531999 534.615907 536.789742 538.536164
22.200000 535.283481 536.310106 537.914152 538.168457 540.046150 541.806759
22.300000 536.900268 538.347048 540.423394 540.326105 542.225019 544.178502
22.400000 539.212489 540.468835 542.567582 542.469664 544.308809 547.082340
22.500000 541.132723 542.171345 544.449929 544.255316 545.884492 548.030704
22.600000 542.785699 544.094183 546.368667 546.194050 548.003632 550.088904
22.700000 544.584651 546.461419 548.799855 548.626553 550.351833 552.434287
22.800000 546.533586 548.691944 551.150097 551.304317 553.757663 555.961961
22.900000 549.209215 550.868322 553.777100 553.884879 556.705769 558.802239
23.000000 551.693529 553.294109 556.527113 556.294968 559.134286 561.207664
23.100000 553.757838 555.621728 558.836945 558.563667 561.370868 563.380877
23.200000 556.003061 558.532853 560.962819 560.998597 563.556665 566.208327
23.300000 557.770544 561.171381 563.189603 563.433640 565.888121 567.904976
23.400000 561.359104 564.513969 567.245569 566.985085 569.779512 571.407328
23.500000 567.105831 568.781191 570.751884 570.702404 572.154915 574.898511
23.600000 570.413910 571.546712 573.229566 573.330524 574.907923 577.673276
23.700000 572.321393 573.886884 575.561908 575.688187 577.501964 579.717613
23.800000 574.168200 575.927539 577.777684 577.911755 579.919434 582.031188
23.900000 576.413270 578.217516 580.125847 580.290729 582.613303 584.023085
24.000000 578.327654 581.407470 583.168702 583.207786 585.425090 587.024989
24.100000 581.833904 584.507939 586.430949 586.271795 587.922606 589.304454
24.200000 585.674353 587.544913 588.770857 588.739109 590.091701 591.070562
24.300000 588.188425 590.291059 591.600591 591.373478 592.544091 593.313197
24.400000 591.725505 592.787913 594.307705 594.274734 595.882152 597.084971
24.500000 593.135298 594.679792 596.565110 596.588704 598.421165 599.793842
24.600000 595.182977 596.795540 598.613939 598.770709 600.709339 603.143405
24.700000 597.333279 598.628416 600.623126 600.785162 602.783863 605.070762
24.800000 600.315822 601.188371 603.372362 603.426666 605.599051 607.614114
24.900000 602.534303 604.134593 605.989540 606.015906 607.873029 609.909517
25.000000 605.161608 607.177261 608.810109 608.709946 610.296788 611.880902
25.100000 607.145564 610.123409 611.707777 611.541272 613.265345 614.179668
25.200000 611.602315 612.808507 614.879606 614.876520 616.721724 619.418474
25.300000 615.282561 617.038855 619.405375 619.535427 622.113614 624.221311
25.400000 621.021366 623.726849 625.531545 625.397983 627.256739 629.144667
25.500000 624.820595 626.558644 628.081357 628.180165 629.969690 631.160295
25.600000 626.841672 628.634352 630.489250 630.396659 631.921242 633.548106
25.700000 629.258277 630.921925 632.417301 632.484518 634.176421 635.953857
25.800000 631.841500 633.134461 635.009207 634.936774 636.566069 637.773249
25.900000 633.844737 635.290475 637.134321 637.132594 638.973424 640.736736
26.000000 635.876443 637.260031 639.194586 639.310940 641.091395 643.547654
26.100000 638.049261 639.491908 641.474559 641.575181 643.702591 645.305061
26.200000 640.402872 641.846967 644.078763 644.028974 646.111614 647.651937
26.300000 641.852644 644.021405 646.250212 646.264943 648.698541 650.319802
26.400000 643.780513 646.215392 648.492052 648.520835 650.692226 652.660999
26.500000 646.136912 648.332719 650.746695 650.883905 653.145320 656.478615
26.600000 648.726249 651.312446 653.343106 653.546473 655.899953 659.018708
26.700000 652.125616 653.792858 656.068884 656.721210 659.744581 663.182858
26.800000 654.343158 656.871080 659.239569 659.782498 663.228571 665.997406
26.900000 656.204078 658.639843 662.577893 662.550363 666.871935 669.592753
27.000000 658.083353 661.144730 665.652920 665.746590 669.534932 673.408090
27.100000 659.190804 664.013660 668.933433 668.680737 673.531361 677.069905
27.200000 663.579176 667.607067 672.128780 671.796369 675.847201 679.168906
27.300000 667.583134 671.905634 675.906378 675.673497 679.417725 681.516764
27.400000 670.669177 675.088022 679.978357 679.095351 682.714574 684.526491
27.500000 675.133607 680.614717 683.868203 683.213474 685.948607 687.323749
27.600000 677.769103 683.869862 686.800436 686.014318 688.313649 689.429239
27.700000 685.129323 687.513678 689.287808 688.998165 690.328349 691.452713
27.800000 690.210420 691.296554 692.072135 692.030235 692.813305 693.762578
27.900000 692.675319 693.213123 694.011003 694.033075 694.821649 695.609529
28.000000 693.926246 695.092252 695.707057 695.740704 696.567588 697.437996
28.100000 695.645299 696.890170 697.493874 697.556279 698.293459 699.612167
28.200000 697.642529 698.487433 699.229141 699.300822 700.186295 701.284601
28.300000 699.697673 700.412762 701.203957 701.362109 702.147334 703.572291
28.400000 701.546253 702.542153 703.738226 703.872456 705.259704 706.389703
28.500000 704.028450 705.585523 707.914283 708.011938 709.761208 713.734049
