depth(m) lower_95(kyr) lower_68(kyr) median(kyr) mean(kyr) upper_68(kyr) upper_95(kyr)
45.860000 309.557056 310.223266 311.248221 311.389436 312.656049 313.909709
45.935000 309.894459 310.580768 311.619699 311.803458 313.153480 314.522831
46.010000 310.205914 310.903026 311.991215 312.216951 313.633521 315.175044
46.060000 310.398926 311.112274 312.243858 312.481927 313.914318 315.602037
46.160000 310.901479 311.603776 312.788998 313.090475 314.634056 316.594252
46.210000 311.121728 311.852364 313.109365 313.382987 314.917118 316.917381
46.310000 311.601280 312.359445 313.755409 314.015017 315.665737 317.761292
46.410000 312.035689 312.968253 314.496989 314.716666 316.455523 318.592407
46.551667 312.761935 313.807077 315.545342 315.692420 317.612126 319.526174
46.693333 313.621605 314.737469 316.621501 316.753775 318.598150 320.812800
46.835000 314.345641 315.854485 317.735792 317.821538 319.718543 321.735681
46.976667 315.337899 316.876515 318.739804 318.855583 320.904846 322.828763
47.118333 316.361540 317.872305 319.804193 319.883986 321.899044 323.740912
47.260000 317.294517 319.000950 320.888515 320.929422 322.871645 324.575342
47.401667 318.346429 320.149353 321.967875 321.965596 323.869617 325.334594
47.543333 319.385204 321.172752 322.981339 322.969883 324.773161 326.159243
47.685000 320.504177 322.261834 323.995189 324.004559 325.773142 326.997821
47.826667 321.857747 323.442174 325.084485 325.002406 326.575883 327.775228
47.968333 323.045111 324.597909 326.049488 326.008304 327.455552 328.542780
48.110000 324.506695 325.734383 326.981325 326.941863 328.228767 329.278719
48.185000 324.971307 326.200007 327.432332 327.416030 328.610222 329.778785
48.260000 325.507002 326.699349 327.901063 327.857104 329.020876 330.234223
48.393333 326.313146 327.475446 328.654597 328.591353 329.690045 330.706930
48.526667 327.101691 328.260645 329.338133 329.290919 330.314569 331.236699
48.660000 327.847675 329.024624 329.973961 329.961650 330.912937 331.892933
48.710000 328.095667 329.290331 330.226574 330.216977 331.175806 332.184868
48.810000 328.613471 329.778917 330.738240 330.710732 331.675310 332.647650
48.910000 329.132745 330.293667 331.244799 331.238629 332.232835 333.205220
48.960000 329.289223 330.562928 331.544258 331.520178 332.524452 333.523961
49.010000 329.588922 330.840545 331.850780 331.829437 332.850685 333.862533
49.060000 329.918323 331.220613 332.209739 332.180277 333.182607 334.255786
49.172500 331.069781 332.127663 333.134866 333.172943 334.273109 335.487764
49.285000 332.037507 333.090181 334.256816 334.256382 335.441388 336.447728
49.397500 333.057036 334.265423 335.433131 335.331792 336.381997 337.173742
49.510000 334.371173 335.416310 336.451437 336.340768 337.201260 337.956003
49.560000 334.788246 335.809615 336.760882 336.684905 337.538906 338.239170
49.685000 335.792489 336.810208 337.578552 337.509802 338.238988 338.840133
49.810000 336.989320 337.650955 338.277193 338.261154 338.886488 339.383381
49.885000 337.433901 338.072503 338.656309 338.642119 339.223334 339.760466
49.960000 337.984801 338.466672 338.994120 339.004911 339.541771 340.085359
50.010000 338.232582 338.725329 339.232867 339.231466 339.757951 340.269624
50.060000 338.455338 338.936995 339.452772 339.445719 339.960021 340.536354
50.110000 338.736515 339.153664 339.644898 339.656021 340.143077 340.700920
50.185000 339.088964 339.470891 339.931826 339.945876 340.413502 341.005441
50.260000 339.388134 339.749385 340.197535 340.222501 340.659643 341.283981
50.310000 339.578833 339.938742 340.382226 340.404122 340.842756 341.434987
50.410000 339.911661 340.285447 340.703820 340.730148 341.169153 341.764159
50.460000 340.094018 340.451222 340.875769 340.899750 341.317099 341.915938
50.560000 340.446157 340.785959 341.169895 341.207344 341.624069 342.199730
50.660000 340.786617 341.110905 341.459370 341.514788 341.909055 342.506654
50.710000 340.926958 341.283619 341.626000 341.675824 342.078737 342.632452
50.810000 341.282413 341.601474 341.918028 341.975003 342.366817 342.909670
50.860000 341.460665 341.761416 342.068878 342.135076 342.513366 343.062455
50.960000 341.784986 342.053024 342.369399 342.430924 342.847466 343.337729
51.010000 341.923438 342.212346 342.530428 342.589200 342.991053 343.480152
51.110000 342.195729 342.516884 342.830522 342.882842 343.293536 343.756443
51.160000 342.380820 342.670694 342.982425 343.037689 343.441560 343.908271
51.273333 342.721818 342.996241 343.293116 343.356790 343.777425 344.195936
51.386667 343.048711 343.305859 343.624361 343.678530 344.095262 344.466553
51.500000 343.346745 343.620120 343.948833 343.996445 344.420563 344.803171
51.575000 343.585204 343.848015 344.170653 344.222760 344.632020 345.009759
51.650000 343.806009 344.074717 344.405873 344.455816 344.877290 345.252552
51.700000 343.964892 344.240061 344.560325 344.614635 345.041253 345.421888
51.800000 344.278987 344.529885 344.881810 344.922559 345.334193 345.707692
51.850000 344.438414 344.708019 345.062360 345.099869 345.508411 345.969161
51.900000 344.612807 344.888639 345.245967 345.286455 345.722761 346.130993
51.950000 344.770766 345.065372 345.440790 345.479844 345.920888 346.331748
52.000000 344.929053 345.248128 345.644857 345.677932 346.127970 346.559752
52.050000 345.129404 345.435457 345.874111 345.893902 346.333959 346.846917
52.100000 345.323613 345.635001 346.083295 346.117511 346.588723 347.156608
52.150000 345.497376 345.842732 346.320203 346.344834 346.853566 347.413623
52.200000 345.704258 346.041406 346.554949 346.584661 347.132813 347.676587
52.250000 345.903683 346.280002 346.802235 346.830674 347.391921 347.975800
52.300000 346.120341 346.518871 347.045473 347.088589 347.674500 348.282919
52.350000 346.316821 346.735316 347.296474 347.339606 347.967909 348.579238
52.400000 346.532846 346.960652 347.538970 347.577951 348.202120 348.784857
52.500000 346.923256 347.421577 347.997159 348.049032 348.701345 349.262661
52.550000 347.142918 347.641160 348.234234 348.285328 348.954470 349.515970
52.600000 347.319574 347.865267 348.467161 348.526888 349.216392 349.773037
52.650000 347.550905 348.100000 348.711330 348.768308 349.473085 350.027275
52.700000 347.814178 348.337724 349.002598 349.018120 349.705418 350.215924
52.800000 348.307973 348.846945 349.564163 349.530189 350.187786 350.778479
52.850000 348.549753 349.102275 349.839824 349.795358 350.449461 351.023865
52.900000 348.778654 349.374495 350.144425 350.094205 350.766880 351.328289
53.000000 349.400447 350.068499 350.769229 350.759705 351.436378 352.172405
53.100000 349.970555 350.693472 351.367424 351.367407 352.034027 352.777538
53.200000 350.387654 351.236360 351.940711 351.945648 352.698563 353.354163
53.250000 350.768018 351.519417 352.225652 352.233086 352.977719 353.643258
53.325000 351.096561 351.902490 352.635851 352.638686 353.417146 353.980163
53.400000 351.508062 352.337460 353.027201 353.045130 353.836745 354.346944
53.450000 351.778555 352.592674 353.295910 353.316315 354.114084 354.616819
53.500000 351.987543 352.860566 353.571970 353.579066 354.382707 354.860155
53.550000 352.266658 353.109008 353.831318 353.831841 354.613679 355.152101
53.600000 352.526131 353.361501 354.108861 354.087808 354.829124 355.353539
53.650000 352.778304 353.661878 354.387389 354.348992 355.062314 355.561239
53.700000 353.082480 353.947046 354.645794 354.612759 355.295630 355.826223
53.800000 353.752702 354.547547 355.187183 355.145728 355.742386 356.419272
53.850000 354.009393 354.812043 355.456405 355.408369 355.955799 356.718025
53.900000 354.356133 355.085958 355.722570 355.666364 356.170886 357.070700
53.950000 354.641718 355.375840 355.977493 355.929689 356.363991 357.272085
54.000000 354.937188 355.628550 356.208729 356.178458 356.595893 357.646202
54.050000 355.222674 355.916085 356.445068 356.430103 356.806172 357.959408
54.100000 355.555161 356.199296 356.646873 356.666680 357.021674 358.249162
54.150000 355.886405 356.462120 356.851089 356.896919 357.251238 358.470960
54.200000 356.132636 356.707529 357.051241 357.126453 357.483776 358.800321
54.250000 356.389403 356.919309 357.249093 357.344887 357.715822 359.076452
54.300000 356.632018 357.120719 357.447581 357.555778 357.934845 359.250480
54.350000 356.852462 357.325512 357.638717 357.767585 358.166031 359.474441
54.450000 357.302377 357.641915 357.983972 358.161999 358.655681 360.073529
54.550000 357.636240 357.987270 358.333315 358.548725 359.134349 360.539855
54.650000 357.996639 358.326599 358.694663 358.948244 359.751208 361.068726
54.700000 358.205837 358.505790 358.881674 359.157311 360.030735 361.290145
54.750000 358.412648 358.701304 359.083207 359.378496 360.260406 361.509056
54.800000 358.570750 358.894634 359.334933 359.613508 360.543969 361.721810
54.850000 358.784379 359.106427 359.605836 359.851853 360.783446 361.936501
54.900000 358.995209 359.327863 359.900684 360.098282 361.020682 362.127397
55.000000 359.351479 359.731253 360.455232 360.612512 361.614810 362.546969
55.050000 359.547630 359.966951 360.757944 360.864548 361.852656 362.710532
55.150000 359.948355 360.455275 361.347143 361.409320 362.390349 363.116547
55.200000 360.181999 360.760217 361.665069 361.698473 362.673540 363.377214
55.250000 360.406893 361.061766 361.973257 361.996450 362.927191 363.594457
55.300000 360.638577 361.408395 362.315402 362.322834 363.233827 363.926714
55.375000 361.083179 361.936268 362.906667 362.851890 363.737937 364.493376
55.450000 361.528357 362.527643 363.487464 363.400810 364.224588 364.973471
55.500000 361.974739 362.882510 363.848647 363.760433 364.580541 365.257696
55.600000 362.724001 363.584083 364.573000 364.506315 365.341852 365.940834
55.650000 363.030875 363.926412 364.965414 364.846280 365.693852 366.216066
55.700000 363.330927 364.217802 365.286264 365.156910 365.983804 366.513296
55.750000 363.600520 364.514151 365.605842 365.459883 366.257356 366.806694
55.800000 363.880594 364.822941 365.912754 365.742777 366.529874 367.049838
55.850000 364.138582 365.023851 366.191891 366.013918 366.824132 367.329658
55.900000 364.346387 365.289956 366.440595 366.264355 367.068869 367.595438
56.000000 364.845843 365.807314 366.892328 366.740798 367.510321 368.152529
56.050000 365.098236 366.048588 367.137281 366.993806 367.730341 368.404687
56.150000 365.551374 366.532384 367.594983 367.459407 368.174735 369.178502
56.200000 365.771909 366.778665 367.838634 367.703426 368.404591 369.545873
56.250000 366.006881 367.020409 368.043226 367.940396 368.636157 369.848014
56.300000 366.250773 367.264641 368.263553 368.169632 368.881422 370.179386
56.350000 366.524806 367.507664 368.462307 368.394675 369.122660 370.439917
56.450000 366.944989 367.924299 368.827143 368.804034 369.559211 371.037228
56.550000 367.326425 368.306280 369.169464 369.191901 369.966207 371.553306
56.650000 367.773989 368.656626 369.529944 369.590896 370.402060 371.997831
56.725000 368.040879 368.932635 369.818958 369.892597 370.730991 372.400161
56.800000 368.318768 369.220448 370.129958 370.197110 371.050651 372.766673
56.850000 368.555564 369.412728 370.314793 370.401160 371.268202 373.068975
56.970000 369.038907 369.809247 370.804486 370.893405 371.822493 373.649707
57.020000 369.262883 370.005408 371.011462 371.117420 372.100354 374.004434
57.070000 369.436089 370.199463 371.223566 371.347866 372.385347 374.192422
57.120000 369.672044 370.396669 371.463409 371.577899 372.781619 374.412386
57.170000 369.970214 370.587528 371.707912 371.820573 373.125340 374.625952
57.220000 370.212579 370.814872 371.936625 372.051833 373.451089 374.831851
57.270000 370.487336 371.019067 372.178531 372.287187 373.794389 375.030975
57.370000 370.923151 371.517391 372.576425 372.735865 374.397652 375.360101
57.470000 371.334825 371.908464 372.976872 373.171696 374.924971 375.692428
57.520000 371.483363 372.155947 373.195794 373.398523 375.181605 375.872201
57.570000 371.744929 372.374016 373.408533 373.638847 375.397249 376.049353
57.620000 371.956050 372.654618 373.624682 373.863816 375.600942 376.221703
57.670000 372.186876 372.886487 373.829540 374.090599 375.849479 376.394660
57.720000 372.424286 373.155330 374.015925 374.321640 376.025755 376.532274
57.820000 372.872225 373.659159 374.435251 374.759276 376.392291 376.834145
57.870000 373.162502 373.940605 374.649112 374.986874 376.612084 377.052263
57.920000 373.380844 374.165969 374.861686 375.206225 376.767734 377.200868
57.970000 373.592656 374.399223 375.068656 375.427846 376.957883 377.357863
58.020000 373.805564 374.616128 375.283180 375.645707 377.126412 377.545926
58.070000 374.074080 374.844088 375.501900 375.863494 377.316878 377.751062
58.120000 374.272299 375.058991 375.730632 376.085412 377.509583 378.018483
58.220000 374.909389 375.537655 376.242275 376.525193 377.844664 378.374504
58.270000 375.216291 375.751852 376.491940 376.748967 378.015588 378.602041
58.320000 375.483683 375.936147 376.767774 376.972464 378.199488 378.890243
58.370000 375.718624 376.188674 376.998908 377.202365 378.406194 379.081584
58.420000 375.994139 376.420872 377.246085 377.430120 378.584210 379.333394
58.470000 376.218811 376.661610 377.479845 377.663244 378.798484 379.496109
58.520000 376.440674 376.889586 377.738064 377.893182 379.006213 379.662448
58.570000 376.692791 377.132678 377.975175 378.128233 379.206763 380.009374
58.620000 376.914780 377.369403 378.207193 378.354744 379.432466 380.265712
58.670000 377.102279 377.590753 378.435374 378.578249 379.651174 380.476247
58.720000 377.348386 377.817762 378.682011 378.809855 379.882049 380.655968
58.770000 377.588680 378.033909 378.909785 379.035208 380.081798 380.963619
58.870000 377.955949 378.456091 379.323812 379.472671 380.579718 381.617923
58.920000 378.171105 378.695311 379.569366 379.712084 380.832739 381.889553
58.970000 378.431527 378.901103 379.820809 379.955086 381.090457 382.229029
59.020000 378.711309 379.167561 380.076148 380.216550 381.342287 382.515880
59.070000 378.915545 379.410680 380.313691 380.466929 381.592929 382.711903
59.120000 379.120477 379.661974 380.566617 380.738188 381.842428 382.934708
59.170000 379.331851 379.884917 380.873089 381.007556 382.093127 383.336702
59.220000 379.600543 380.121061 381.153646 381.274304 382.377407 383.749721
59.270000 379.827134 380.391254 381.456027 381.542198 382.630220 383.979554
59.320000 380.026687 380.654893 381.718437 381.815565 382.888500 384.258273
59.420000 380.522444 381.292990 382.342071 382.406571 383.479749 384.835046
59.520000 380.988760 381.944270 382.935026 382.991771 384.074418 385.307297
59.570000 381.226475 382.240375 383.218016 383.277041 384.353805 385.605339
59.620000 381.489258 382.508919 383.516235 383.554516 384.591181 385.873848
59.720000 381.984257 383.179478 384.112584 384.168939 385.148155 386.601864
59.770000 382.353100 383.463095 384.414934 384.458430 385.472936 386.855880
59.820000 382.735443 383.766964 384.722787 384.749654 385.736548 387.106291
59.920000 383.397719 384.407389 385.234526 385.338042 386.385417 387.754035
60.020000 384.040912 384.998403 385.760253 385.923871 386.998762 388.477760
60.070000 384.291725 385.274122 386.025409 386.180124 387.243215 388.767433
60.120000 384.520291 385.515553 386.272319 386.446654 387.474162 389.108596
60.170000 384.799759 385.794296 386.514771 386.705048 387.750687 389.306334
60.270000 385.363803 386.243688 386.979588 387.202451 388.415731 389.721740
60.370000 385.902637 386.725619 387.483413 387.704212 388.933861 390.166587
60.470000 386.467376 387.202736 388.023459 388.238207 389.474297 390.774960
60.520000 386.773310 387.471336 388.292386 388.499509 389.717849 391.002813
60.620000 387.261159 388.003350 388.891117 389.078171 390.269746 391.536906
60.670000 387.499031 388.311508 389.208089 389.372876 390.653901 391.784869
60.720000 387.741252 388.597358 389.567762 389.676789 390.938017 391.987454
60.820000 388.386520 389.244988 390.328613 390.377014 391.538853 392.484656
60.920000 389.210220 390.093321 391.113045 391.118383 392.153254 393.029803
61.020000 389.769411 390.824517 391.853246 391.859888 392.919061 393.937729
61.120000 390.535147 391.663210 392.667739 392.701598 393.734090 394.732476
61.220000 391.649551 392.728415 393.783541 393.809629 394.930297 396.149592
61.320000 392.747882 393.795854 394.889376 394.905796 395.956039 397.344852
61.420000 393.961597 395.005743 396.022632 396.063768 397.160772 398.328243
61.520000 395.418509 396.339980 397.380258 397.410029 398.473767 399.599126
61.620000 397.225947 398.284027 399.262008 399.226375 400.205154 400.943126
61.670000 397.754942 398.748317 399.735031 399.685366 400.598134 401.306815
61.720000 398.175359 399.221504 400.260705 400.151695 401.046122 401.687794
61.770000 398.613031 399.706590 400.691543 400.587875 401.437950 402.067208
61.820000 399.011861 400.117390 401.099222 400.983833 401.794656 402.412792
61.920000 400.198188 401.053777 401.810403 401.754423 402.447681 403.013842
62.020000 401.037597 401.727060 402.374565 402.361810 402.989278 403.764667
62.120000 401.620760 402.259509 402.847965 402.889714 403.511732 404.287930
62.220000 402.204883 402.757165 403.289585 403.360042 404.015844 404.756611
62.270000 402.421593 402.984783 403.515362 403.595718 404.308112 405.004294
62.320000 402.652173 403.181760 403.714215 403.818510 404.541520 405.220439
62.370000 402.902248 403.390426 403.917636 404.037606 404.811161 405.518765
62.420000 403.059383 403.599280 404.132541 404.250671 405.035289 405.691982
62.470000 403.242746 403.807152 404.352013 404.470046 405.249816 405.886242
62.520000 403.480140 403.997059 404.565323 404.694148 405.500679 406.136284
62.595000 403.735168 404.301510 404.922315 405.041739 405.852126 406.638518
62.670000 404.094656 404.605912 405.288064 405.390962 406.185557 407.156334
62.770000 404.499141 405.005343 405.807585 405.895521 406.760006 407.967759
62.820000 404.729200 405.257307 406.073882 406.171431 407.075699 408.422428
62.920000 405.141004 405.780575 406.709643 406.843673 407.840336 409.354784
63.065000 405.855203 406.803618 408.098558 408.247696 409.827735 411.356466
63.210000 406.752940 407.936656 409.591245 409.738399 411.628162 413.396343
63.355000 407.778637 409.316137 411.101840 411.242406 413.264008 415.021532
63.500000 409.010136 410.695689 412.739201 412.786378 414.861943 416.752867
63.645000 410.407034 412.076799 414.190130 414.258940 416.384044 418.288276
63.790000 411.749140 413.684445 415.778297 415.797771 417.971690 419.875791
63.935000 413.206632 415.201370 417.294010 417.311001 419.514802 421.336267
64.080000 414.790456 416.756638 418.822329 418.821003 420.804875 422.723829
64.225000 416.416665 418.292026 420.181482 420.221844 422.173167 423.795011
64.370000 418.269472 419.890438 421.560038 421.641667 423.487465 425.049034
64.445000 419.055644 420.597483 422.206357 422.276826 424.010544 425.754848
64.520000 419.768220 421.249021 422.812613 422.873077 424.529034 426.132250
64.640000 420.804380 422.360738 423.875633 423.890612 425.511395 426.907645
64.760000 421.812020 423.487916 424.998809 424.974681 426.555531 427.716868
64.880000 423.088835 424.605187 426.108528 426.006831 427.424682 428.460227
65.000000 424.357385 425.739764 427.131640 427.006181 428.201844 428.944804
65.120000 425.898244 427.067289 428.124003 428.005423 428.927825 429.416857
65.195000 426.501121 427.658046 428.608869 428.472714 429.267811 429.729562
65.270000 427.130058 428.192984 429.003635 428.896127 429.604294 430.034667
65.395000 428.214843 428.932586 429.579172 429.494836 430.066195 430.396379
65.520000 428.952151 429.597014 430.085355 430.033101 430.478204 430.840762
65.620000 429.496433 430.057451 430.465832 430.432053 430.837079 431.176989
65.670000 429.791482 430.273571 430.651241 430.633367 431.009074 431.372510
65.745000 430.068320 430.558410 430.904412 430.893273 431.257212 431.601513
65.820000 430.411607 430.822786 431.156969 431.151297 431.505478 431.833073
65.870000 430.574727 431.001390 431.320564 431.318810 431.662058 431.989747
65.970000 430.953349 431.320298 431.625914 431.628681 431.957172 432.301087
