depth(m) lower_95(kyr) lower_68(kyr) median(kyr) mean(kyr) upper_68(kyr) upper_95(kyr)
43.340000 299.916472 300.913774 301.787067 301.787986 302.666810 303.588199
43.472222 300.739377 301.660151 302.820266 302.873710 303.942531 305.874896
43.604444 301.394528 302.542940 303.832126 304.025712 305.500430 307.558395
43.736667 302.212794 303.419238 304.983322 305.167501 306.960329 308.871542
43.868889 302.925005 304.443105 306.197220 306.348717 308.269542 310.201957
44.001111 303.865362 305.588641 307.427629 307.523850 309.516867 311.848590
44.133333 304.855110 306.693607 308.638527 308.721534 310.815442 313.118466
44.265556 305.857601 307.801362 309.771733 309.909911 312.223038 314.202495
44.397778 307.039463 308.912684 310.851647 311.033783 313.367810 315.207537
44.530000 308.433383 309.998225 311.912523 312.084700 314.455071 316.217245
44.650000 309.161420 310.944521 312.804534 312.976657 315.263357 316.746659
44.770000 310.027002 311.885877 313.715187 313.801935 316.013385 317.407432
44.840000 310.635849 312.258639 314.142848 314.234196 316.467543 317.719895
44.973000 311.533136 313.021891 314.916158 314.958440 317.070884 318.260273
45.106000 312.302508 313.767084 315.776311 315.660262 317.591935 318.761573
45.239000 312.885790 314.505485 316.388429 316.294648 318.116760 319.255853
45.372000 313.461948 315.156531 317.022298 316.895004 318.578308 319.747732
45.505000 314.312363 315.911325 317.603276 317.508011 319.121884 320.293024
45.638000 314.993504 316.691854 318.215848 318.126000 319.623936 320.803985
45.771000 315.747458 317.361091 318.785799 318.714971 320.124437 321.201786
45.904000 316.325297 318.001987 319.402063 319.294906 320.552019 321.614673
46.037000 317.026970 318.681171 319.946962 319.860944 321.061601 322.080880
46.170000 317.745239 319.344558 320.503234 320.410525 321.521476 322.504692
46.260000 318.317688 319.746982 320.847448 320.789126 321.850510 322.817436
46.350000 318.781095 320.183106 321.231164 321.160588 322.207193 323.145517
46.472000 319.321758 320.662982 321.692935 321.632634 322.618751 323.549492
46.594000 319.968540 321.135361 322.157480 322.112558 323.093601 324.017090
46.716000 320.572103 321.680109 322.608278 322.589767 323.523801 324.476067
46.838000 321.169193 322.200783 323.058893 323.065761 323.936183 324.918243
46.960000 321.664808 322.712790 323.497201 323.534477 324.439489 325.328157
47.045000 321.959866 323.039138 323.823069 323.857417 324.787062 325.665852
47.130000 322.312262 323.367349 324.149671 324.192165 325.063577 326.054656
47.230000 322.695019 323.727375 324.542030 324.568833 325.489382 326.408644
47.330000 323.017948 324.071169 324.921202 324.945443 325.876240 326.824292
47.440000 323.434325 324.447092 325.331199 325.365402 326.377476 327.228054
47.550000 323.774385 324.858292 325.741675 325.785981 326.820392 327.672684
47.670000 324.189863 325.272274 326.208567 326.245460 327.353071 328.137468
47.780000 324.592635 325.685454 326.646313 326.694734 327.854696 328.540468
47.850000 324.855846 325.951683 326.955472 326.985461 328.183702 328.830259
47.900000 325.031432 326.156536 327.169425 327.203851 328.454472 329.034655
47.990000 325.353678 326.454197 327.514054 327.566742 328.826364 329.379266
48.080000 325.548688 326.781470 327.914331 327.927666 329.206543 329.725938
48.180000 325.909974 327.163556 328.342703 328.336436 329.599376 330.124609
48.280000 326.273142 327.529569 328.772140 328.739623 329.979479 330.491837
48.370000 326.714639 327.878134 329.150256 329.104118 330.309474 330.828058
48.460000 327.046275 328.255372 329.516735 329.471800 330.651145 331.184590
48.545000 327.317148 328.610339 329.903095 329.824321 330.989759 331.504199
48.630000 327.620204 328.979265 330.295289 330.170178 331.330038 331.814210
48.730000 328.025980 329.384997 330.755409 330.576212 331.695994 332.187753
48.830000 328.566714 329.783480 331.189119 330.991996 332.093386 332.580500
48.935000 329.079064 330.261532 331.618348 331.414156 332.485106 332.938400
49.040000 329.506584 330.753247 332.036417 331.841996 332.861437 333.361775
49.150000 330.044902 331.203555 332.472259 332.281572 333.279743 333.821358
49.230000 330.552052 331.552579 332.798288 332.623236 333.584648 334.155313
49.310000 330.917816 331.955849 333.156446 332.995982 333.952612 334.498271
49.370000 331.261621 332.347069 333.512626 333.348126 334.252109 334.856081
49.495000 332.165959 333.305317 334.355262 334.202005 335.005925 335.782533
49.620000 333.204998 334.405512 335.111517 335.099305 335.892034 336.648325
49.760000 334.371715 335.320549 336.002496 336.046494 336.891532 337.717667
49.770000 334.405021 335.373217 336.065115 336.107913 336.960568 337.772588
49.830000 334.898005 335.726338 336.410753 336.478666 337.318955 338.090084
49.970000 335.841492 336.493762 337.296600 337.311866 338.187303 338.862775
50.070000 336.416081 337.083077 338.026532 337.990563 338.868126 339.557375
50.210000 337.233287 338.069099 339.036239 339.020608 339.976895 340.931231
50.350000 338.191817 339.152358 340.059542 340.061443 340.990623 341.781814
50.490000 339.494033 340.248994 341.050216 341.037858 341.850735 342.545831
50.550000 339.955630 340.667052 341.417382 341.414075 342.171587 342.854278
50.670000 340.648274 341.334250 342.016286 342.020818 342.742794 343.389981
50.745000 341.031127 341.744296 342.372873 342.391952 343.086128 343.700641
50.820000 341.400449 342.118747 342.737302 342.757364 343.429240 344.094669
50.960000 342.099606 342.774510 343.417534 343.403571 344.082971 344.630482
51.070000 342.666437 343.313657 343.949069 343.959504 344.614908 345.150135
51.120000 343.000842 343.570413 344.246964 344.234003 344.885050 345.504261
51.250000 343.634519 344.251813 344.997931 345.049928 345.851172 346.940019
51.380000 344.280117 344.965405 345.774721 345.922056 346.869711 348.288983
51.455000 344.660813 345.384053 346.274866 346.418222 347.468448 349.057486
51.530000 345.061702 345.844795 346.786437 346.916774 348.003369 349.613173
51.645000 345.726146 346.528046 347.598920 347.798563 349.139960 350.986046
51.760000 346.339603 347.270139 348.471517 348.643923 350.015658 352.034538
51.875000 346.960597 348.023955 349.322093 349.504384 351.035098 353.340411
51.990000 347.661739 348.740583 350.193685 350.367799 351.963169 354.350669
52.108000 348.187401 349.510545 351.076427 351.250856 353.083851 355.158467
52.226000 348.764445 350.211338 351.874743 352.119587 354.134547 356.408821
52.344000 349.523541 350.946495 352.679287 352.938528 355.065940 357.273528
52.462000 350.144649 351.718550 353.621793 353.779942 356.008787 358.125503
52.580000 350.790700 352.412997 354.529251 354.610054 356.765927 358.966584
52.720000 351.477885 353.313206 355.644557 355.636382 357.843742 360.029727
52.800000 351.869708 353.841882 356.150007 356.168491 358.374024 360.510221
52.880000 352.588625 354.318313 356.705790 356.709608 358.950990 360.950752
53.002000 353.599189 355.203200 357.626166 357.575065 359.770431 361.548673
53.124000 354.428276 356.245836 358.457049 358.382768 360.523036 362.172950
53.246000 355.311771 357.106712 359.200157 359.179690 361.276816 362.755531
53.368000 356.299565 358.001373 360.021313 359.986029 362.023852 363.449045
53.490000 357.087664 358.933658 360.842070 360.773352 362.644212 364.068503
53.635000 357.888130 359.983514 361.844800 361.733872 363.430484 364.976820
53.780000 358.912665 361.082712 362.857010 362.715612 364.326480 365.627555
53.925000 360.026694 362.192855 363.788934 363.660923 365.209002 366.434290
54.070000 361.383222 363.110665 364.718012 364.618930 366.151709 367.176722
54.145000 361.889348 363.536012 365.253356 365.098460 366.618077 367.522015
54.220000 362.501361 363.979666 365.775181 365.557219 367.016483 368.053322
54.300000 362.975300 364.427301 366.222148 365.991331 367.425174 368.462413
54.380000 363.410958 364.801418 366.573446 366.388688 367.855380 368.888774
54.502000 363.930185 365.381763 367.121031 366.941067 368.343931 369.440551
54.624000 364.492218 365.895956 367.677921 367.483143 368.854301 369.926397
54.746000 365.151658 366.419825 368.216735 368.030888 369.366637 370.501192
54.868000 365.635191 366.946166 368.721424 368.564557 369.927216 371.023093
54.990000 366.201379 367.413652 369.259792 369.084848 370.466821 371.703812
55.108000 366.694715 367.880005 369.763660 369.582960 370.995152 372.217944
55.226000 367.102611 368.279260 370.273373 370.069232 371.563783 372.865843
55.344000 367.595765 368.733029 370.713364 370.551834 372.028658 373.297746
55.462000 368.014061 369.167633 371.241131 371.031166 372.504647 373.874144
55.580000 368.434284 369.591724 371.728046 371.510703 372.995759 374.634000
55.720000 368.940989 370.078946 372.257123 372.066812 373.601576 375.110556
55.800000 369.329538 370.435354 372.592709 372.408186 373.948123 375.435109
55.880000 369.625093 370.712812 372.880018 372.747934 374.280247 375.809369
56.025000 370.205672 371.293552 373.450990 373.332344 374.937390 376.451832
56.170000 370.778816 371.827980 374.059572 373.918207 375.610106 377.138744
56.315000 371.204333 372.355273 374.593046 374.509937 376.327185 377.852279
56.460000 371.629365 372.866135 375.211726 375.100964 377.030014 378.449877
56.490000 371.786698 373.003743 375.361248 375.251664 377.214032 378.720112
56.565000 372.087782 373.436907 375.732339 375.634039 377.566772 379.237233
56.640000 372.426615 373.815721 376.115256 376.025073 377.965820 379.750439
56.720000 372.785999 374.253088 376.565385 376.470408 378.414678 380.316927
56.800000 373.166172 374.812088 377.006763 376.928376 378.958190 380.592645
56.934000 373.923355 375.548739 377.707414 377.701053 379.825874 381.629636
57.068000 374.572453 376.340515 378.424518 378.506782 380.690971 382.851071
57.202000 375.278000 377.032380 379.237402 379.340277 381.622133 383.765208
57.336000 375.888651 377.766316 380.152092 380.195980 382.548015 384.898638
57.470000 376.639306 378.523136 380.888837 381.014079 383.522146 385.876501
57.604286 377.437851 379.336195 381.840166 381.987855 384.628292 387.212677
57.738571 378.215266 380.305793 382.752523 382.946103 385.708563 388.223546
57.872857 378.948331 381.157226 383.737724 383.900366 386.743606 389.200277
58.007143 379.900726 381.999173 384.767785 384.860980 387.699543 390.337985
58.141429 380.728397 382.943048 385.779851 385.810767 388.584640 391.317410
58.275714 381.627681 383.893052 386.745395 386.761579 389.601494 392.368670
58.410000 382.526769 384.755453 387.837747 387.718617 390.439931 393.148008
58.553750 383.495605 385.818309 388.746897 388.707932 391.442829 393.928197
58.697500 384.327127 386.890643 389.767851 389.680349 392.404835 394.596074
58.841250 385.459375 388.061393 390.713353 390.660111 393.260341 395.510674
58.985000 386.609845 389.108664 391.603238 391.646409 394.214308 396.314551
59.128750 387.595666 390.234524 392.628618 392.609760 395.015835 397.101026
59.272500 388.731449 391.200857 393.587019 393.562170 395.932172 397.770119
59.416250 390.107170 392.692763 394.600158 394.591408 396.711304 398.632371
59.560000 391.760060 393.897326 395.540428 395.634662 397.632423 399.512905
59.693333 393.110559 395.087345 396.792836 396.860734 398.689595 400.519909
59.826667 394.748840 396.447524 398.044442 398.099311 399.714343 401.573257
59.960000 396.311165 397.874843 399.338846 399.348102 400.856099 402.530806
60.093333 397.482787 399.207411 400.814192 400.866938 402.656408 404.386882
60.226667 399.029629 400.622989 402.274906 402.390693 404.309437 405.937977
60.360000 400.507944 401.974106 403.754491 403.861923 405.927110 407.279652
60.455000 401.356534 402.719966 404.653264 404.713679 406.801092 408.164555
60.550000 402.118426 403.417279 405.438708 405.555094 407.679026 409.098563
60.580000 402.367256 403.676784 405.652203 405.782578 407.905035 409.369362
60.700000 403.320050 404.963535 406.821233 406.862027 408.841486 410.106039
60.780000 404.105023 405.722110 407.596390 407.583233 409.460987 410.760229
60.880000 404.896923 406.722866 408.608926 408.502734 410.241190 411.565691
61.010000 406.710327 408.373745 410.083223 409.959192 411.485850 412.554976
61.085000 407.427600 409.073748 410.816557 410.662182 412.132952 413.099991
61.160000 408.294803 409.895308 411.565307 411.359310 412.782897 413.796170
61.300000 410.073920 411.657597 412.923737 412.842790 414.037983 414.964408
61.395000 411.121769 412.562074 413.677901 413.624825 414.715125 415.742807
61.490000 412.258279 413.428428 414.392502 414.382941 415.424765 416.357486
61.610000 413.509059 414.365638 415.308015 415.318850 416.272127 417.244251
61.710000 414.396962 415.177945 416.081892 416.117602 417.035949 418.017611
61.810000 415.202947 416.003942 416.899156 416.912979 417.823166 418.695984
61.910000 415.918900 416.791230 417.689361 417.709254 418.637642 419.503421
62.010000 416.697199 417.580051 418.472335 418.472711 419.333249 420.353523
62.070000 417.156672 418.054064 418.906233 418.929526 419.783521 420.783742
62.200000 418.297700 419.033025 419.818362 419.894280 420.808330 421.717332
62.290000 418.946040 419.700168 420.510058 420.561856 421.464781 422.369435
62.380000 419.614472 420.341851 421.131345 421.217524 422.139905 423.057228
62.430000 419.958073 420.691748 421.515383 421.577093 422.475627 423.398964
62.480000 420.286010 421.006550 421.842972 421.905921 422.760459 423.704279
62.560000 420.721259 421.544439 422.373835 422.423608 423.249704 424.232386
62.640000 421.366807 422.083042 422.933343 422.958325 423.841219 424.756952
62.720000 421.895840 422.634984 423.470268 423.491885 424.369332 425.212493
62.800000 422.467161 423.178060 424.031719 424.052793 424.940689 425.848641
62.936667 423.240871 424.105903 425.093438 425.082425 426.060740 426.903513
63.073333 424.160277 425.132043 426.126604 426.124221 427.144566 427.991187
63.210000 425.189067 426.181203 427.180480 427.148134 428.155295 428.857249
63.290000 425.838837 426.785069 427.764867 427.727204 428.666098 429.484671
63.410000 426.665585 427.661375 428.632549 428.571860 429.462035 430.372402
63.495000 427.252859 428.203668 429.171463 429.147844 430.013501 431.127957
63.580000 427.867622 428.780504 429.726226 429.730305 430.611536 431.870571
63.700000 428.797002 429.683430 430.505100 430.665066 431.699602 433.348792
63.750000 429.222240 430.025029 430.875116 431.043720 432.167313 433.739984
63.880000 429.933146 430.800047 431.743330 431.937658 433.196644 434.821343
63.983333 430.489011 431.357975 432.408974 432.625979 433.988191 435.565389
64.086667 431.212246 432.001013 433.160655 433.312098 434.661309 436.306770
64.190000 431.748725 432.639690 433.913976 434.009699 435.401670 436.888250
64.290000 432.308923 433.272842 434.612566 434.693989 436.143640 437.546099
64.390000 432.810752 433.932513 435.297389 435.395639 436.865109 438.252213
64.490000 433.478753 434.649280 436.073707 436.109868 437.616731 438.917533
64.635000 434.343151 435.677323 437.234679 437.162973 438.589474 439.992992
64.780000 435.395503 436.699209 438.304091 438.237758 439.647202 440.967564
64.880000 436.047948 437.495900 439.119641 439.019879 440.478175 441.663898
64.980000 436.832364 438.301793 439.904084 439.791825 441.198063 442.328206
65.080000 437.711004 439.229408 440.656060 440.580073 441.891266 442.951256
65.190000 438.653237 440.206968 441.597930 441.504230 442.695904 443.864763
65.285000 439.577811 440.996029 442.325736 442.227128 443.435103 444.476300
65.380000 440.289455 441.733841 443.007193 442.956687 444.121717 445.333499
65.430000 440.773909 442.097026 443.386936 443.349431 444.523806 445.725979
65.510000 441.390156 442.807211 444.177641 444.115753 445.313882 446.492410
65.590000 442.198039 443.595659 444.957111 444.908582 446.067371 447.490832
65.665000 442.913162 444.228410 445.499784 445.529692 446.759616 448.472614
65.740000 443.511829 444.815512 446.096700 446.136456 447.435100 449.194490
65.865000 444.576490 445.744817 446.981139 447.194840 448.613244 450.792046
65.990000 445.523136 446.553784 447.993524 448.237566 449.963275 452.174208
66.108000 446.183405 447.329323 448.948979 449.152794 451.021664 453.665524
66.226000 446.846104 448.057789 449.812917 450.037014 451.950670 454.543555
66.344000 447.580138 448.773732 450.590390 450.898776 453.126939 455.676061
66.462000 448.142939 449.551484 451.437191 451.727672 454.028710 456.635678
66.580000 448.863813 450.273517 452.250619 452.555995 455.011864 457.447533
66.700000 449.490036 451.004369 453.111483 453.373413 455.944742 458.375319
66.790000 449.906566 451.516772 453.715540 453.980104 456.562003 459.040125
66.880000 450.356758 452.037017 454.385407 454.569756 457.162546 459.487325
67.002000 451.004548 452.839088 455.242265 455.315881 457.802219 460.013457
67.124000 451.558956 453.532020 456.108949 456.066992 458.523140 460.662693
67.246000 452.115392 454.251822 456.896452 456.793497 459.172020 461.262713
67.368000 452.689646 455.062050 457.633599 457.491988 459.757691 461.844308
67.490000 453.276294 455.792983 458.398752 458.186192 460.412563 462.300887
67.635000 453.792106 456.639613 459.215046 458.985401 461.122674 463.016961
67.780000 454.555299 457.513115 460.001356 459.795657 461.825020 463.751248
67.925000 455.419117 458.642259 460.845267 460.587606 462.498330 464.341562
68.070000 456.080456 459.572445 461.622423 461.394031 463.215330 465.084400
68.145000 456.379135 460.114628 462.070968 461.853815 463.686362 465.499419
68.220000 456.872255 460.711042 462.566765 462.319330 464.089777 465.897344
68.300000 457.542034 461.276351 463.091991 462.819807 464.529398 466.439221
68.380000 458.076144 461.747955 463.563435 463.344655 465.059677 466.813811
68.430000 458.591862 462.139193 463.887050 463.702603 465.419570 467.319930
68.525000 459.409491 462.764192 464.671111 464.455869 466.164108 468.019063
68.620000 460.242452 463.498381 465.427618 465.255278 467.065659 468.825589
68.755000 461.624805 464.612989 466.517351 466.460353 468.444489 470.261655
68.890000 462.969748 465.666452 467.556383 467.574621 469.624072 471.844104
69.025000 464.350790 466.630677 468.678594 468.707570 470.902220 473.300433
69.160000 465.467186 467.746481 469.815516 469.898040 472.163118 474.375690
69.295000 467.075328 468.729086 470.982485 471.055406 473.434104 475.711451
69.430000 468.162860 469.855851 471.986725 472.164271 474.677342 476.858971
69.558000 468.946224 470.649313 473.047187 473.112082 475.642759 477.789422
69.686000 469.585861 471.528333 474.066201 474.029855 476.534303 478.457814
69.814000 470.258229 472.303677 475.029260 474.904070 477.362684 479.182519
69.942000 471.064501 473.093008 475.985931 475.761952 478.233850 480.072796
70.070000 471.677295 473.885873 476.876163 476.573524 479.035828 480.737692
70.180000 472.379487 474.526036 477.546778 477.208635 479.575876 481.249644
70.320000 473.185934 475.413170 478.307709 477.987022 480.268920 481.828173
70.442000 473.799590 476.216066 479.047234 478.666485 480.853749 482.418896
70.564000 474.664925 477.039138 479.655254 479.334864 481.480974 482.954019
70.686000 475.442260 477.802721 480.244079 479.989942 481.997315 483.404992
70.808000 476.182517 478.613088 480.820620 480.630203 482.544440 483.993888
70.930000 477.050835 479.358160 481.397075 481.265842 483.077500 484.501736
71.063333 478.057439 480.257883 482.095992 481.953857 483.667576 485.084148
71.196667 478.647889 480.985545 482.707196 482.591268 484.247080 485.549465
71.330000 479.542125 481.696959 483.326545 483.224541 484.789893 486.017714
71.433333 480.032360 482.261969 483.781475 483.699048 485.214853 486.527828
71.536667 480.644923 482.806395 484.225718 484.173545 485.647186 487.068283
71.640000 481.415015 483.353006 484.655165 484.643785 486.092824 487.422489
71.743333 482.009836 483.848914 485.067931 485.099332 486.492407 487.786434
71.846667 482.497726 484.302530 485.527887 485.542217 486.877049 488.186603
71.950000 483.272804 484.780247 485.956036 485.998849 487.320192 488.660530
72.056667 483.896924 485.239482 486.419306 486.453412 487.715641 488.994357
72.163333 484.522261 485.686930 486.827955 486.900863 488.169988 489.540089
72.270000 485.005796 486.148590 487.252437 487.348112 488.578293 489.992058
