depth(m) lower_95(kyr) lower_68(kyr) median(kyr) mean(kyr) upper_68(kyr) upper_95(kyr)
16.400000 366.418418 367.412711 368.298429 368.282775 369.142882 369.984593
16.500000 368.677216 369.642162 370.881806 371.178688 372.815051 375.304731
16.600000 370.482918 371.830534 373.695812 374.055301 376.401118 379.506829
16.700000 372.433424 374.393879 376.873727 376.950989 379.339446 382.605900
16.800000 375.053799 377.492439 380.034518 380.190074 383.132889 385.684171
16.900000 377.703178 380.331694 383.022085 383.151857 386.324715 388.317768
17.000000 380.004015 382.657978 385.659812 385.630323 388.793015 390.604920
17.100000 382.284445 384.888780 388.162623 388.006060 391.019847 392.554736
17.200000 385.129064 387.729238 390.786274 390.513135 393.008437 394.670455
17.300000 388.056887 390.961874 393.217488 393.058029 395.055797 396.967843
17.400000 391.289387 394.011874 395.730294 395.678669 397.252106 399.658724
17.500000 394.875063 396.500301 398.141728 398.480820 400.144818 406.132108
17.600000 398.039721 399.272594 400.586740 401.520914 403.344563 410.704645
17.700000 401.558030 403.156037 405.470584 406.237947 409.792635 414.181243
17.800000 407.608229 411.537176 413.995143 413.938998 416.501172 419.443516
17.900000 416.837316 419.264479 421.400142 421.338739 423.401514 425.278100
18.000000 420.939870 422.983308 424.890321 424.742749 426.492268 427.741935
18.100000 424.909292 426.295529 427.626222 427.581179 428.865976 429.948675
18.200000 427.443042 428.638481 429.851816 429.841015 431.061089 432.196179
18.300000 429.249029 430.481506 431.681996 431.694061 432.877010 434.254640
18.400000 430.958285 432.197241 433.458992 433.453532 434.600016 436.087117
18.500000 432.635902 433.916974 435.170638 435.234897 436.544334 438.331693
18.600000 434.364280 435.599575 436.938907 437.040851 438.300032 440.961701
18.700000 435.902036 437.301291 438.617484 438.805777 440.143725 443.104725
18.800000 437.498268 438.925695 440.274157 440.590028 441.895786 446.714190
18.900000 439.170475 440.552867 441.941967 442.558372 444.062068 451.667075
19.000000 440.823329 442.139677 443.827871 444.852835 447.218150 455.731410
19.145455 443.194557 444.983153 447.439563 449.098503 454.107106 461.692503
19.290909 445.943876 448.339348 452.359121 453.886027 460.278494 468.020052
19.436364 449.030537 451.950350 457.772419 458.756774 466.235518 474.268838
19.581818 451.992956 456.046285 463.316684 463.666701 471.307842 479.509530
19.727273 455.941825 461.221497 468.679364 468.836793 476.369751 483.131384
19.872727 459.335790 466.713729 473.915019 473.893790 481.141885 486.922130
20.018182 465.257094 472.052484 479.020400 478.876412 485.799097 492.245963
20.163636 469.886397 477.079709 483.921177 483.521563 490.284047 495.526427
20.309091 476.464627 482.634827 488.976402 488.436929 494.163166 498.583591
20.454545 482.748987 488.219480 493.819158 493.312749 498.185234 501.666371
20.600000 489.926843 494.375937 499.323178 498.599481 502.111368 504.775802
20.700000 495.721471 500.862905 503.978938 503.500040 506.112637 507.815598
20.800000 504.406927 506.670977 508.331334 508.192221 509.737675 511.036445
20.900000 507.763964 509.213278 510.563812 510.519819 511.867132 513.144711
21.000000 509.740391 511.106662 512.328850 512.332529 513.576119 514.736520
21.100000 511.529982 512.978292 514.132505 514.096670 515.216334 516.510345
21.200000 513.610272 514.784509 515.860748 515.845198 516.884266 518.189907
21.300000 515.488690 516.650862 517.722673 517.727785 518.822772 520.125315
21.400000 517.288124 518.446478 519.509493 519.586789 520.760386 522.204170
21.500000 519.131521 520.249406 521.363616 521.483238 522.796797 524.299535
21.600000 520.918756 522.028508 523.294553 523.368573 524.814110 526.298228
21.700000 522.631304 523.922243 525.280112 525.353094 526.890916 528.257189
21.800000 524.432398 525.861481 527.337134 527.406392 529.034085 530.393733
21.900000 526.392209 527.869823 529.538419 529.473973 531.069306 532.336204
22.000000 528.675318 530.390279 532.112123 531.926253 533.384896 534.402026
22.100000 532.001487 533.807675 535.130772 535.108322 536.468283 537.936209
22.200000 535.517356 536.586350 537.885493 538.143349 539.721762 541.983769
22.300000 537.193299 538.326138 540.103243 540.260121 542.108335 544.792274
22.400000 538.850125 540.228161 542.230126 542.356772 544.380718 546.801786
22.500000 540.453446 542.270399 544.504231 544.561776 546.713795 548.970670
22.600000 542.665131 544.816081 547.387445 547.229567 549.533914 551.169151
22.700000 544.904987 547.927931 550.514400 550.122676 552.203181 553.730227
22.800000 547.225293 550.698909 553.053646 552.784713 554.853709 556.711152
22.900000 550.348626 553.121430 555.308293 555.242252 557.342594 559.630973
23.000000 553.433246 555.446487 557.542894 557.630011 559.833935 562.370403
23.100000 555.558685 557.525824 559.518343 559.843655 562.603809 564.719993
23.200000 557.630541 559.575037 561.845385 562.143920 565.048067 566.995038
23.300000 559.462431 561.734543 564.658786 564.588774 567.497983 569.176042
23.400000 562.130484 564.841872 567.953334 567.502251 569.768077 571.411792
23.500000 565.491827 568.890807 570.698304 570.419434 572.015455 573.380696
23.600000 570.990214 572.227208 573.310014 573.327008 574.478517 575.762905
23.700000 572.862287 574.036737 575.287661 575.277413 576.525945 577.601246
23.800000 574.582931 575.944828 577.179157 577.145692 578.373793 579.245693
23.900000 576.644625 578.071747 579.314103 579.197961 580.287223 581.121254
24.000000 579.268567 580.474600 581.522260 581.563203 582.700674 584.093135
24.100000 581.980876 582.775433 583.816031 583.993719 585.312304 586.765393
24.200000 584.168288 585.076895 586.301628 586.402113 587.671248 589.357623
24.300000 586.472836 587.951904 589.363946 589.666960 591.379405 594.463234
24.400000 589.713374 591.171918 593.263372 593.677185 596.444624 599.303282
24.500000 592.249190 594.200088 596.957137 597.047578 600.026362 601.794761
24.600000 594.737652 597.396191 600.568981 600.073045 602.591786 603.880800
24.700000 597.909616 601.169156 603.137802 602.802246 604.520304 605.739452
24.800000 602.761150 604.202267 605.474360 605.461438 606.738446 607.962452
24.900000 605.379653 606.497700 607.678080 607.765243 608.953031 610.940110
25.000000 608.312877 609.464291 610.842916 610.996303 612.624721 614.316204
25.100000 610.875061 612.572332 614.744555 614.540181 616.337195 617.735813
25.200000 614.177294 616.516369 618.450398 618.302205 620.034232 621.673749
25.300000 618.319121 620.792737 622.885371 622.701527 624.546551 626.181029
25.400000 625.228615 626.481892 627.900457 627.959087 629.459189 631.165091
25.500000 627.848355 629.139877 630.567004 630.586059 631.974298 633.649739
25.600000 629.946188 631.309848 632.886046 632.957005 634.552128 636.898134
25.700000 631.745729 633.458223 634.981863 635.191343 637.040222 639.611654
25.800000 634.019497 635.354975 637.204410 637.435884 639.562658 642.047865
25.900000 635.869685 637.575771 639.474935 639.684391 641.876833 644.499223
26.000000 637.985789 639.761275 641.782206 642.036853 644.225888 647.651158
26.100000 640.267127 642.099195 644.186382 644.591905 647.156769 651.083317
26.200000 642.579604 644.362620 646.838125 647.248386 650.262343 654.184752
26.300000 644.494940 646.556977 649.538478 649.847133 653.193134 656.541876
26.400000 646.603861 649.004771 652.340661 652.473615 655.821924 658.889464
26.500000 648.722158 651.480232 655.032385 654.971272 658.524460 661.385396
26.600000 650.930428 653.724659 657.533115 657.311148 660.851654 663.246699
26.700000 653.156041 655.949667 659.878337 659.664847 663.099989 665.583842
26.800000 655.580673 658.458152 662.170453 661.880093 665.135986 667.595310
26.900000 657.921739 660.748255 664.469291 664.089811 667.250067 669.363048
27.000000 659.936738 662.996289 666.627814 666.266573 669.217667 671.469590
27.100000 662.295922 665.767837 668.962017 668.652124 671.342195 673.565626
27.200000 665.532093 668.668706 671.336318 671.096768 673.444070 675.465301
27.300000 668.986309 671.904513 673.929899 673.933513 676.172761 678.780763
27.400000 671.782024 674.283143 676.508837 676.613531 678.922028 681.927308
27.500000 675.305346 677.568913 679.823580 679.902923 682.245044 684.684969
27.600000 678.272364 680.794924 683.057338 682.988421 685.161172 687.236921
27.700000 682.524702 684.897498 686.687326 686.528044 688.166122 689.812194
27.800000 688.109368 689.375883 690.732003 690.882440 692.376938 694.258662
27.900000 691.003056 692.220382 693.670154 693.702398 695.164217 696.628754
28.000000 693.414382 695.062158 696.328800 696.295541 697.606476 698.591448
28.100000 696.979435 697.941995 698.895250 698.909606 699.895048 700.795283
