depth(m) lower_95(kyr) lower_68(kyr) median(kyr) mean(kyr) upper_68(kyr) upper_95(kyr)
39.780000 299.363484 300.152094 300.895327 300.920946 301.681404 302.594135
39.880000 300.087427 300.765037 301.567338 301.628098 302.433967 303.656110
39.980000 300.665978 301.371180 302.184910 302.328947 303.275916 304.777366
40.080000 301.258608 301.930273 302.794467 302.998608 304.090763 305.741851
40.180000 301.744332 302.455734 303.416688 303.657646 304.891511 306.804940
40.230000 302.050150 302.756906 303.784326 304.000727 305.338423 307.083170
40.280000 302.317268 303.075110 304.120752 304.336186 305.671622 307.413322
40.380000 302.820492 303.655264 304.774956 304.971424 306.222767 308.076544
40.480000 303.398315 304.267845 305.428887 305.589733 306.854514 308.601747
40.580000 303.995268 304.887918 306.099036 306.215613 307.440143 309.153205
40.680000 304.523787 305.481548 306.770666 306.831532 308.015649 309.674015
40.780000 305.283331 306.147519 307.469444 307.497734 308.636697 310.536305
40.880000 305.916050 306.835740 308.102113 308.180799 309.303523 311.296661
40.980000 306.599477 307.576729 308.806163 308.963014 310.220734 312.508976
41.080000 307.279805 308.355107 309.555383 309.766009 311.179409 313.807761
41.180000 308.052729 309.227940 310.431877 310.696706 312.168606 314.859583
41.280000 309.108613 310.052021 311.339709 311.635635 313.304243 315.809115
41.410000 310.041255 311.181488 312.565938 312.943851 315.062120 317.119117
41.510000 310.752875 311.909777 313.499088 313.852032 316.126878 318.146169
41.610000 311.494389 312.657102 314.465659 314.771283 317.271332 318.830440
41.660000 311.794295 313.083908 314.940471 315.203975 317.736658 319.119382
41.710000 312.281679 313.526628 315.440397 315.663808 318.155478 319.554551
41.810000 312.978016 314.526678 316.523368 316.651638 318.923210 320.236358
41.910000 314.018495 315.788159 317.699623 317.711500 319.761665 320.825098
42.010000 315.336354 317.102984 318.939095 318.794036 320.583968 321.526490
42.110000 316.376129 318.317949 320.104333 319.857657 321.352271 322.270730
42.210000 317.544105 319.562842 321.056254 320.873904 322.160698 322.954779
42.310000 319.055413 320.805375 322.026095 321.869627 322.985913 323.751918
42.410000 320.592349 321.897597 322.924579 322.853969 323.845489 324.780456
42.510000 322.013065 322.964705 323.823099 323.830691 324.677835 325.770789
42.610000 323.166809 323.869934 324.686496 324.720122 325.559212 326.671396
42.710000 323.833657 324.576612 325.380262 325.460955 326.352299 327.475181
42.810000 324.562279 325.240787 326.012307 326.173540 327.210207 328.364924
42.910000 325.092385 325.781391 326.605758 326.807030 327.990424 329.151631
43.010000 325.585791 326.372026 327.202099 327.438410 328.729358 329.845816
43.110000 326.162688 326.909925 327.865536 328.098610 329.517309 330.845649
43.160000 326.470872 327.234820 328.223808 328.463626 329.911800 331.399241
43.210000 326.820092 327.637635 328.641308 328.878009 330.269613 331.833056
43.310000 327.567099 328.473687 329.628432 329.810388 331.191432 332.569374
43.410000 328.413092 329.393563 330.907725 330.882896 332.267519 333.468028
43.510000 329.318429 330.523806 332.029107 331.934059 333.289522 334.222845
43.610000 330.459464 331.757532 333.057817 332.953115 334.129169 334.957882
43.710000 331.313255 332.651715 333.826842 333.755735 334.887983 335.695464
43.810000 332.059993 333.396293 334.525693 334.468115 335.563478 336.377865
43.910000 332.732769 334.001712 335.100758 335.048203 336.103993 336.875824
44.010000 333.426144 334.568406 335.675582 335.615963 336.593369 337.345406
44.110000 334.253206 335.226981 336.226331 336.188600 337.151232 337.821637
44.210000 335.008866 335.894375 336.876967 336.831720 337.752051 338.421011
44.310000 335.767855 336.735933 337.682374 337.647418 338.518969 339.277747
44.410000 337.087136 338.044513 338.957240 338.945982 339.850074 340.797104
44.510000 338.241972 339.127205 340.046737 340.036383 340.962933 341.691241
44.610000 339.077887 339.959171 340.849007 340.836892 341.727669 342.476621
44.710000 339.784032 340.590658 341.560032 341.511304 342.399895 343.165046
44.810000 340.406784 341.165018 342.161128 342.109386 342.962693 343.795572
44.910000 340.955988 341.717767 342.749754 342.681022 343.530329 344.456339
45.010000 341.563013 342.273348 343.309188 343.246602 344.100562 345.037057
45.040000 341.726891 342.474502 343.500358 343.437988 344.318379 345.271038
45.140000 342.182640 343.049876 344.066828 344.026686 344.900422 345.853863
45.240000 342.739286 343.677446 344.650054 344.633098 345.515260 346.611116
45.340000 343.355274 344.319643 345.301396 345.349474 346.326465 347.612063
45.440000 343.877931 344.925095 345.959721 346.045577 347.142636 348.873205
45.540000 344.404248 345.542686 346.555409 346.690324 347.828501 349.836822
45.640000 345.011059 346.137700 347.137373 347.312398 348.505269 350.505608
45.740000 345.594590 346.675420 347.799271 347.988132 349.170065 352.057653
45.840000 346.201286 347.246039 348.440606 348.681611 349.828911 353.361994
45.890000 346.464509 347.598240 348.820248 349.054847 350.243458 353.739251
45.940000 346.815164 347.944895 349.246683 349.454566 350.664434 354.090612
46.040000 347.615825 348.764454 350.170160 350.392253 351.870241 355.046808
46.140000 348.348259 349.584223 351.103666 351.394826 353.097520 356.387760
46.240000 349.446327 350.766386 352.408357 352.604504 354.523730 357.532249
46.340000 350.588648 351.910766 353.609711 353.838397 355.780001 358.367794
46.440000 351.751192 353.146289 354.901949 355.058342 357.039288 359.164279
46.540000 352.814584 354.328890 356.147030 356.289200 358.270017 360.144113
46.640000 354.092340 355.717914 357.651752 357.585080 359.456769 360.988429
46.740000 355.495527 357.166663 358.943456 358.846403 360.555689 361.725122
46.840000 357.192046 358.848312 360.309103 360.149048 361.366832 362.672034
46.940000 359.600214 360.604424 361.415276 361.432102 362.212339 363.466805
46.990000 360.208720 361.146893 361.884069 361.913294 362.646140 363.921225
47.020000 360.566080 361.449723 362.129741 362.168460 362.888731 364.130323
47.070000 361.166407 361.922856 362.529342 362.592250 363.241972 364.560354
47.120000 361.900754 362.372436 362.898124 363.021680 363.661535 364.888265
47.140000 362.078677 362.518183 363.050843 363.176819 363.824105 365.025896
47.170000 362.300785 362.742201 363.318087 363.412224 364.043634 365.200451
47.190000 362.447045 362.864887 363.492547 363.562279 364.214935 365.349216
47.220000 362.690065 363.096904 363.727784 363.797547 364.412224 365.550438
47.270000 363.055049 363.468149 364.127678 364.186177 364.854794 365.895838
47.350000 363.479843 364.058942 364.778501 364.802887 365.492904 366.378988
47.370000 363.634532 364.237812 364.939688 364.968819 365.661319 366.474450
47.440000 364.126998 364.867936 365.561983 365.577658 366.363481 366.936951
47.470000 364.453579 365.160039 365.768771 365.815823 366.623147 367.139449
47.490000 364.618560 365.312714 365.904004 365.967099 366.743142 367.238330
47.620000 365.807260 366.275184 366.820966 366.882264 367.553014 367.941849
47.640000 365.940439 366.405105 366.998439 367.029734 367.696592 368.064320
47.670000 366.200333 366.626537 367.241413 367.253744 367.873589 368.230675
47.690000 366.405629 366.767130 367.392033 367.399556 367.994071 368.406444
47.720000 366.607333 367.015955 367.691654 367.636155 368.201154 368.645946
47.770000 366.995504 367.442255 368.083122 368.035084 368.546586 369.022786
47.820000 367.413937 367.943519 368.512675 368.476399 368.971130 369.519519
47.840000 367.570570 368.134087 368.666446 368.653308 369.157398 369.673068
47.870000 367.821533 368.390551 368.908790 368.900753 369.376624 369.908069
47.890000 367.983629 368.541848 369.071871 369.061092 369.542927 370.032118
47.920000 368.256311 368.819866 369.333985 369.313731 369.817221 370.299212
47.970000 368.684906 369.213731 369.782127 369.740249 370.241404 370.806707
48.020000 369.008864 369.576389 370.187795 370.149500 370.660415 371.175616
48.040000 369.199006 369.708035 370.361029 370.305562 370.801629 371.368826
48.070000 369.447806 369.974278 370.593811 370.539668 371.006711 371.606047
48.090000 369.551666 370.143300 370.740275 370.689848 371.137838 371.750289
48.120000 369.808211 370.436122 370.964647 370.915297 371.326212 371.959620
48.170000 370.113754 370.867512 371.289316 371.267700 371.636204 372.327496
48.220000 370.540622 371.260458 371.621426 371.635374 371.991737 372.781241
48.240000 370.691177 371.417432 371.749476 371.775616 372.131862 372.873021
48.270000 370.897637 371.639629 371.949865 371.990711 372.359337 373.054702
48.290000 370.991033 371.776065 372.080731 372.134253 372.517348 373.295652
48.320000 371.202354 371.955080 372.281339 372.347161 372.784117 373.533868
48.420000 372.056278 372.487340 372.948694 373.052976 373.680496 374.607358
48.440000 372.186436 372.595856 373.090982 373.202127 373.814566 374.861948
48.470000 372.379162 372.780877 373.325414 373.434445 374.126607 375.136643
48.520000 372.628322 373.078507 373.727964 373.802900 374.523381 375.501306
48.570000 372.859997 373.361793 374.167190 374.195457 374.992860 375.899543
48.620000 373.108709 373.681360 374.551295 374.592929 375.505901 376.383195
48.640000 373.193888 373.819588 374.743120 374.746468 375.650350 376.577570
48.690000 373.517358 374.156622 375.126531 375.163000 376.127803 377.112358
48.720000 373.714823 374.390425 375.379730 375.407941 376.406475 377.331663
48.770000 373.948731 374.785980 375.821498 375.837775 376.877272 377.757163
48.820000 374.317586 375.276356 376.260553 376.282151 377.320570 378.279826
48.870000 374.672964 375.737104 376.714552 376.739446 377.808699 378.689181
48.890000 374.823209 375.877064 376.900277 376.911927 377.984107 378.815454
49.020000 376.037397 377.205049 378.185459 378.146359 379.161394 379.898609
49.140000 377.184598 378.372214 379.265056 379.209636 380.098798 380.605261
49.170000 377.428729 378.611022 379.524675 379.452010 380.314091 380.799482
49.220000 377.961743 379.085323 379.955838 379.866265 380.654209 381.109145
49.320000 379.097045 380.017543 380.725876 380.626483 381.263274 381.584246
49.340000 379.218431 380.172253 380.867047 380.769218 381.385790 381.677336
49.370000 379.498934 380.396306 381.083225 380.974522 381.560384 381.847357
49.420000 379.915463 380.805064 381.409636 381.310537 381.831167 382.102600
49.470000 380.395584 381.205189 381.733723 381.638580 382.092690 382.378804
49.520000 380.847583 381.597886 382.048768 381.976738 382.362724 382.652138
49.540000 381.112137 381.751461 382.171520 382.108215 382.469674 382.778822
49.590000 381.456234 382.080760 382.472720 382.409538 382.739285 383.072918
49.620000 381.752577 382.281393 382.650524 382.598539 382.916509 383.243353
49.670000 382.144575 382.596325 382.933401 382.898736 383.217739 383.522351
49.720000 382.500283 382.907400 383.198449 383.192837 383.526557 383.850370
49.740000 382.654934 383.037289 383.323195 383.324891 383.656975 383.981695
49.770000 382.877089 383.233038 383.494649 383.514563 383.833018 384.171120
49.790000 383.067715 383.346190 383.644717 383.649744 383.982213 384.305927
49.820000 383.250313 383.520788 383.833874 383.840444 384.193597 384.542416
49.890000 383.556519 383.927208 384.255900 384.262590 384.633269 384.957070
49.940000 383.865085 384.221225 384.584192 384.582299 384.933116 385.303578
49.990000 384.210272 384.568707 384.931390 384.922603 385.277392 385.671279
50.010000 384.333023 384.713751 385.068325 385.063051 385.422539 385.819516
50.040000 384.551452 384.944482 385.273437 385.271201 385.619035 385.981675
50.060000 384.666481 385.070619 385.400147 385.403713 385.748894 386.110851
50.090000 384.884643 385.265694 385.608811 385.610424 385.965207 386.344784
50.190000 385.450861 385.859470 386.219849 386.244846 386.644650 387.146838
50.210000 385.582279 386.008207 386.362531 386.388858 386.793007 387.322252
50.290000 386.079299 386.482423 386.909908 386.930583 387.383536 387.990244
50.340000 386.346165 386.793778 387.256979 387.277343 387.772661 388.332548
50.390000 386.695106 387.147286 387.648982 387.656125 388.153971 388.648081
50.410000 386.881833 387.306881 387.806876 387.812187 388.301275 388.838887
50.440000 387.084863 387.564674 388.052317 388.063826 388.561892 389.105745
50.490000 387.507578 387.995943 388.495511 388.505741 388.976029 389.592743
50.540000 387.922090 388.411774 388.896988 388.926254 389.440078 390.072638
50.590000 388.282403 388.794524 389.298767 389.332835 389.879193 390.588272
50.610000 388.420319 388.941554 389.450936 389.490773 390.036211 390.784560
50.640000 388.685274 389.170676 389.692188 389.726698 390.275356 391.017827
50.660000 388.866028 389.340021 389.867623 389.891788 390.442354 391.227850
50.690000 389.151208 389.582332 390.129058 390.156685 390.731768 391.414716
50.790000 389.829797 390.458159 391.078259 391.095652 391.775556 392.264908
50.810000 389.980372 390.614141 391.266890 391.266146 391.961009 392.439961
50.840000 390.220517 390.858598 391.551182 391.521595 392.206100 392.677706
50.860000 390.351848 391.006888 391.733060 391.689831 392.392643 392.803816
50.890000 390.571271 391.240044 391.998547 391.955505 392.665377 393.070276
50.910000 390.686429 391.391504 392.201732 392.124949 392.844624 393.208703
50.940000 390.898874 391.625737 392.486337 392.375726 393.079771 393.480686
50.960000 391.029755 391.785374 392.627520 392.537689 393.224520 393.657662
50.990000 391.268663 392.082726 392.889853 392.794943 393.440399 393.840756
51.110000 392.366804 393.226218 393.771520 393.710548 394.241223 394.610598
51.140000 392.619415 393.475799 393.974627 393.929551 394.464305 394.782774
51.160000 392.757813 393.609357 394.116098 394.066289 394.589314 394.925309
51.235000 393.388603 394.062360 394.549971 394.513303 395.007201 395.342758
51.310000 393.917369 394.478277 394.962594 394.922986 395.382348 395.695649
51.360000 394.316679 394.787462 395.264384 395.213074 395.642554 395.966075
51.390000 394.505192 394.974591 395.439877 395.393506 395.824797 396.130490
51.440000 394.785381 395.250537 395.730188 395.681625 396.098714 396.395845
51.510000 395.198913 395.628239 396.098026 396.043058 396.442580 396.713454
51.560000 395.455356 395.876861 396.370629 396.308654 396.687758 396.992234
51.590000 395.639009 396.051344 396.536029 396.473834 396.839642 397.119688
51.640000 395.906955 396.340498 396.789784 396.742151 397.094649 397.383098
51.690000 396.218970 396.666492 397.060072 397.023442 397.364697 397.639015
51.710000 396.353556 396.793010 397.185354 397.146214 397.490924 397.753329
51.740000 396.556744 396.971298 397.365568 397.326359 397.673363 397.926557
51.760000 396.664683 397.096895 397.482627 397.448125 397.796274 398.048225
51.835000 397.038361 397.505302 397.868416 397.840631 398.172206 398.433318
51.910000 397.427519 397.921068 398.239346 398.214950 398.538625 398.824858
51.990000 397.856439 398.303927 398.638321 398.611738 398.929502 399.187296
52.110000 398.537553 398.904472 399.204031 399.181658 399.465876 399.714483
52.160000 398.814947 399.174784 399.459897 399.434998 399.702836 399.933334
52.190000 398.994897 399.333275 399.615125 399.587482 399.849571 400.073043
52.310000 399.648878 399.919734 400.162680 400.142742 400.365409 400.547190
52.340000 399.815964 400.084302 400.311045 400.298800 400.519601 400.693673
52.360000 399.980599 400.198850 400.421230 400.413990 400.634870 400.816194
52.390000 400.167919 400.384870 400.587572 400.587656 400.801292 400.990860
52.410000 400.279734 400.490381 400.703129 400.697105 400.900396 401.089647
52.440000 400.428824 400.639362 400.859061 400.851440 401.064932 401.265853
52.540000 400.867422 401.074722 401.288599 401.287596 401.503765 401.736484
52.610000 401.157266 401.393482 401.601315 401.602715 401.807477 402.029372
52.660000 401.395705 401.621753 401.838992 401.836044 402.041544 402.246785
52.740000 401.759152 401.981541 402.199118 402.189043 402.380115 402.607132
52.790000 402.011772 402.223052 402.424886 402.421915 402.615473 402.799686
52.810000 402.117980 402.327876 402.527438 402.524878 402.720721 402.901900
52.840000 402.276248 402.488769 402.679236 402.680277 402.872840 403.044541
52.860000 402.413960 402.601180 402.782366 402.787220 402.968554 403.148432
52.890000 402.558431 402.740026 402.932465 402.936354 403.122555 403.349594
52.990000 402.995866 403.176339 403.358059 403.368819 403.538329 403.792111
53.010000 403.092573 403.279166 403.457367 403.469144 403.636177 403.876518
53.040000 403.249090 403.430149 403.603272 403.622560 403.792528 404.073209
53.060000 403.349573 403.540400 403.709415 403.729533 403.900586 404.226793
53.090000 403.480516 403.692568 403.865564 403.888070 404.066136 404.378137
53.140000 403.717811 403.932238 404.110011 404.140249 404.321524 404.746669
53.190000 403.967453 404.182723 404.357617 404.397207 404.604417 405.036123
53.210000 404.064982 404.281181 404.474477 404.513761 404.731038 405.210866
53.240000 404.212877 404.432612 404.635833 404.685362 404.934245 405.410920
53.260000 404.333567 404.539611 404.748476 404.807618 405.081016 405.562875
53.290000 404.489089 404.706330 404.933147 404.994243 405.295888 405.774258
53.340000 404.750978 404.971681 405.240257 405.296343 405.657524 406.131152
53.390000 404.986734 405.220724 405.533494 405.598116 406.021021 406.457223
53.410000 405.115856 405.325060 405.667152 405.727329 406.170265 406.582360
53.440000 405.271035 405.499449 405.876899 405.920648 406.366489 406.794584
53.460000 405.365806 405.608009 406.007359 406.048834 406.500637 406.892508
53.490000 405.499323 405.776817 406.199556 406.235507 406.705905 407.101769
53.540000 405.757259 406.077334 406.526788 406.531527 406.987788 407.387227
53.610000 406.073124 406.495714 406.953822 406.936184 407.353934 407.811763
53.660000 406.314468 406.792196 407.267440 407.242539 407.643657 408.091750
53.690000 406.478995 407.005701 407.467128 407.434869 407.845675 408.303039
53.790000 407.195892 407.675192 408.076199 408.053402 408.454612 408.792461
53.810000 407.334769 407.833308 408.215843 408.198054 408.592210 408.903283
53.840000 407.545456 408.079490 408.440591 408.417333 408.796612 409.075075
53.860000 407.651625 408.207294 408.580955 408.550182 408.931889 409.200281
53.890000 407.880082 408.408177 408.776748 408.748143 409.126421 409.387124
53.910000 408.017687 408.535621 408.918267 408.883614 409.260756 409.512542
53.940000 408.207000 408.731612 409.124518 409.076680 409.448613 409.674589
53.960000 408.298164 408.868190 409.261836 409.204012 409.568922 409.779126
53.990000 408.481709 409.067924 409.449097 409.388789 409.752086 409.968895
54.040000 408.702070 409.378929 409.757798 409.675861 409.993922 410.216317
54.090000 408.926584 409.687064 410.043614 409.958398 410.269426 410.472335
54.110000 409.035736 409.826365 410.160231 410.081557 410.380517 410.599978
54.140000 409.177171 410.024210 410.338147 410.262902 410.568423 410.763806
54.160000 409.274696 410.167220 410.449257 410.379924 410.678397 410.885255
54.190000 409.431118 410.341689 410.612675 410.544575 410.833507 411.067761
54.240000 409.669053 410.613785 410.858548 410.790869 411.064090 411.278816
54.310000 409.988671 410.978736 411.199752 411.127691 411.377199 411.573586
54.340000 410.150480 411.137407 411.350949 411.276858 411.530744 411.712105
54.360000 410.258698 411.240376 411.455037 411.383034 411.632719 411.804233
54.390000 410.367382 411.389556 411.593413 411.531259 411.778299 411.945760
54.440000 410.583064 411.642963 411.830097 411.764326 412.017407 412.196626
54.490000 410.795485 411.885286 412.057332 411.996273 412.244746 412.433685
54.510000 410.900845 411.987082 412.157023 412.099951 412.345047 412.544748
54.540000 411.029639 412.146195 412.310592 412.252834 412.500201 412.718038
54.560000 411.135188 412.242930 412.419595 412.360257 412.614231 412.838655
54.590000 411.304120 412.384441 412.578200 412.516377 412.768597 412.976913
54.640000 411.537222 412.608831 412.822571 412.764329 413.039318 413.243105
54.660000 411.656152 412.714176 412.932442 412.876185 413.156825 413.374263
