depth(m) lower_95(kyr) lower_68(kyr) median(kyr) mean(kyr) upper_68(kyr) upper_95(kyr)
11.200000 302.083235 303.085440 304.045053 304.050474 305.026192 305.757564
11.300000 305.185348 306.547982 307.937387 308.204070 309.777173 313.119468
11.400000 308.481554 310.005196 312.325496 312.469437 314.997732 317.378104
11.500000 311.455770 313.598620 316.692103 316.328843 318.766724 320.065718
11.550000 313.473575 315.999066 318.743838 318.321667 320.389569 321.591574
11.600000 315.623238 318.568695 320.633763 320.233399 321.855868 322.911531
11.650000 319.103659 321.197643 322.453572 322.294590 323.478927 324.849901
11.700000 321.356752 322.790564 323.939876 324.042402 325.266007 327.266934
11.750000 323.402019 324.400528 325.559334 325.842264 327.380190 329.780543
11.800000 324.969281 326.071294 327.480228 327.890286 329.933712 332.600327
11.900000 327.740413 329.578933 332.559285 332.675920 335.613905 338.542583
12.000000 331.059443 334.714114 337.885796 337.561560 340.379265 342.260690
12.100000 338.996635 340.666932 342.398815 342.323425 343.880055 345.457323
12.150000 341.019275 342.593860 344.227801 344.300820 346.005282 348.024775
12.200000 342.836226 344.425145 346.295500 346.623437 349.049990 351.283792
12.250000 346.018466 347.941011 350.260166 350.272691 352.399658 355.083992
12.300000 348.704076 350.713300 352.801234 352.877459 355.212528 357.409107
12.350000 350.471953 352.540250 354.786295 354.960121 357.488911 359.720616
12.400000 351.910724 354.361649 356.779339 356.759520 359.136955 361.408634
12.450000 353.687572 356.036556 358.604664 358.452027 360.823051 362.671253
12.500000 355.649926 357.644736 360.196600 360.075050 362.365266 363.989022
12.550000 357.373571 359.406104 361.706591 361.595276 363.750647 365.376611
12.600000 359.059424 361.321082 363.427172 363.280251 365.253648 366.722559
12.650000 361.043490 363.124352 365.174442 365.028396 366.891566 368.198126
12.700000 363.315845 365.322410 367.326230 367.120683 368.808766 369.971225
12.750000 365.174303 367.268760 368.977962 368.817460 370.417701 371.758397
12.800000 366.386568 368.610157 370.321244 370.237918 371.882631 373.287298
12.850000 367.510196 369.888970 371.646606 371.553105 373.242816 374.839206
12.900000 368.641771 371.240039 372.941065 372.838808 374.565196 376.146380
12.950000 370.159191 372.482435 374.221236 374.139652 375.884702 377.825545
13.000000 371.869231 373.759247 375.477100 375.487441 377.151525 379.269233
13.050000 373.147028 375.135091 376.849789 376.881214 378.559199 380.928841
13.100000 375.028397 376.659987 378.447745 378.556040 380.421372 383.382513
13.150000 376.644997 378.371361 380.209685 380.470076 382.684699 385.213651
13.200000 378.800152 380.453679 382.501271 382.658461 384.979705 387.155690
13.250000 380.611503 382.162849 384.583053 384.598418 386.873003 389.061448
13.300000 381.966823 384.085087 386.356214 386.231296 388.338080 390.372942
13.350000 383.483901 385.669602 387.858200 387.760457 389.769759 391.577891
13.450000 386.433956 388.539828 390.586718 390.434288 392.333993 393.708379
13.500000 388.175771 390.078123 392.043808 391.879705 393.610094 394.783990
13.550000 390.057279 392.073314 393.621803 393.507044 394.948050 396.298889
13.600000 392.694788 394.161601 395.570733 395.558160 397.012545 398.424094
13.650000 395.550296 396.811726 398.194627 398.264570 399.840521 401.230719
13.700000 397.678775 398.993474 400.575596 400.577628 402.118386 403.526963
13.750000 399.393991 400.628763 402.110885 402.129240 403.689110 405.041481
13.800000 400.630972 401.931202 403.440070 403.498573 405.072391 406.365508
13.850000 401.829069 403.152682 404.808604 404.781372 406.285181 407.597379
13.900000 403.018395 404.341722 406.144885 406.032109 407.535766 408.916007
13.950000 404.046341 405.452931 407.382292 407.257779 408.870655 410.339418
14.000000 405.290580 406.733309 408.596593 408.453416 410.016548 411.437464
14.050000 406.344943 408.146499 409.906180 409.783997 411.277898 412.741486
14.100000 407.918988 410.017355 411.436004 411.395129 412.777055 414.202335
14.150000 410.791364 412.392008 413.555541 413.591984 414.934073 416.285599
14.200000 413.059395 414.213817 415.451156 415.466597 416.742850 417.978670
14.250000 414.970798 416.022208 417.244308 417.302317 418.591254 419.971413
14.300000 416.630231 417.776069 419.027856 419.119179 420.431087 421.973780
14.350000 418.187262 419.527895 420.847668 420.975572 422.552527 424.306296
14.400000 419.892086 421.538136 423.111238 423.091936 424.690327 426.150480
14.450000 422.388748 424.093707 425.634701 425.546668 427.005408 428.096284
14.500000 425.179376 426.687810 428.006099 427.911517 429.138509 430.157528
14.550000 427.084849 428.493920 429.594095 429.549980 430.644245 431.576087
14.600000 428.764869 429.861484 430.811713 430.823389 431.857357 432.690769
14.650000 429.826689 430.900659 431.902567 431.914720 432.956652 433.871797
14.700000 430.949461 431.920865 432.908133 432.922041 433.947619 434.911534
14.750000 431.756406 432.869893 433.902548 433.886280 434.874428 435.920422
14.800000 432.816657 433.850117 434.891929 434.856400 435.901269 436.844108
14.850000 433.760877 434.772241 435.853091 435.825978 436.854731 437.769348
14.900000 434.863233 435.783274 436.790174 436.802975 437.843467 438.793746
14.950000 435.857186 436.749082 437.779011 437.813442 438.876015 439.860888
15.000000 436.738974 437.758090 438.824508 438.842851 439.897231 441.100328
15.100000 438.661008 439.708099 440.794233 440.810038 441.924520 442.946821
15.200000 440.597118 441.793272 442.946534 442.997239 444.135334 445.692562
15.300000 442.823528 444.048916 445.320630 445.607917 446.866189 450.901198
15.400000 444.865625 446.216327 447.833331 448.434061 450.601758 455.578784
15.500000 446.843657 448.559342 450.696928 451.476576 454.951160 459.097731
15.600000 449.225070 451.043509 453.942282 454.536713 458.660427 461.496602
15.700000 451.593151 453.897854 457.628528 457.752802 461.756433 464.259617
15.800000 454.186659 457.497553 461.195262 461.162201 464.940466 467.450779
15.900000 457.467088 460.816797 464.308433 464.239971 467.633739 470.734834
16.000000 460.210013 464.026934 467.393753 467.366731 470.825300 474.217488
16.100000 464.346611 467.110175 470.685004 470.739060 474.628604 477.371549
16.200000 468.391372 471.004574 475.227669 474.981464 478.475602 480.838176
16.300000 472.029314 475.954970 479.490888 478.973035 481.729672 484.006374
16.400000 475.922879 479.700230 482.274359 482.008382 484.388548 486.388522
16.500000 480.426665 482.808002 484.686323 484.655011 486.715679 488.658603
16.600000 482.790911 485.130643 487.080254 487.075809 489.163228 491.495428
16.700000 485.238617 487.144407 489.087329 489.238564 491.407492 493.494969
16.800000 487.491666 489.314925 491.146622 491.386345 493.528051 495.926965
16.900000 489.637622 491.428862 493.284933 493.572504 495.845840 498.189558
17.000000 492.037533 493.782562 495.776620 495.980751 498.244509 500.493610
17.100000 494.520432 496.237805 498.432968 498.516224 500.950127 503.143946
17.200000 497.053075 498.951026 501.372555 501.367367 503.557329 505.873868
17.300000 500.557332 503.078942 505.118076 505.211005 507.390997 510.053878
17.400000 505.262717 507.608750 509.743845 509.900310 512.275898 514.606305
17.500000 509.272057 511.328979 513.915350 513.953234 516.311793 519.130665
17.600000 513.341610 515.704301 518.420859 518.622057 521.417122 525.808786
17.700000 517.385472 519.879179 523.338161 523.504626 527.192826 530.432770
17.800000 522.224421 524.931282 529.148634 528.860150 532.405485 535.383187
17.900000 529.140816 533.152179 536.163838 536.390848 539.866361 545.134778
18.000000 535.812019 538.446532 542.216900 542.532156 546.718217 550.083121
18.100000 539.221604 543.030961 547.554160 547.172685 551.036159 553.168273
18.200000 543.552927 547.789554 551.788574 551.213413 554.261062 556.528802
18.300000 547.454701 551.882819 555.075089 554.837893 557.629699 560.290375
18.400000 553.798955 556.160770 558.554438 558.635986 560.996762 563.583062
18.500000 558.115493 560.350512 562.702697 562.859147 565.336629 567.919630
18.600000 562.101940 564.888741 568.078646 567.868207 570.238875 572.476823
18.700000 571.109807 573.439644 575.663933 575.732215 577.885898 580.205238
18.800000 578.371777 580.722099 583.122380 584.829041 590.737784 596.308132
18.900000 583.590947 586.812631 590.898011 591.712357 597.423743 600.854549
19.000000 589.608987 593.510529 598.001775 597.866946 602.313575 604.917718
19.100000 595.358273 599.737799 603.880751 603.286028 606.351145 608.467413
19.200000 602.489749 605.634155 608.348739 608.226078 610.843997 613.689848
19.300000 608.272361 610.670560 612.999322 612.966564 615.278486 617.516225
19.400000 613.907796 616.281551 618.087432 617.992866 619.788414 621.230143
19.500000 620.210801 621.842825 623.333407 623.359284 624.816743 626.580369
19.600000 624.512278 626.188138 628.244744 628.611441 631.266530 634.179420
19.700000 627.967900 630.094551 632.720667 633.216694 636.531278 640.774603
19.800000 631.182261 634.000105 636.921653 637.592128 641.640201 646.632260
19.900000 634.644979 637.540716 640.851671 641.774116 646.767593 652.038792
20.000000 638.496347 641.576113 646.111834 646.759963 652.427413 657.675563
20.100000 643.037550 646.774155 652.682900 652.603988 658.113428 662.995951
20.200000 647.693386 653.362304 658.932654 658.838870 664.525613 668.202490
20.300000 654.292376 659.442188 664.928263 664.579640 669.471817 672.387445
20.400000 659.636777 665.578798 670.869202 670.107762 674.240399 676.802891
20.500000 667.112945 672.391535 675.763253 675.392204 678.419106 680.696690
20.600000 674.127834 677.721903 680.410210 680.092375 682.471691 684.286061
20.700000 679.388905 682.041902 684.144193 683.940450 685.803603 687.214165
20.800000 683.868445 685.905296 687.420051 687.322173 688.778056 690.017358
20.900000 687.443200 688.987358 690.245830 690.187089 691.441519 692.660973
21.000000 690.496976 691.642678 692.759970 692.806548 694.013287 695.212758
21.100000 694.070600 694.859052 695.704228 695.728654 696.577954 697.577540
