depth(m) lower_95(kyr) lower_68(kyr) median(kyr) mean(kyr) upper_68(kyr) upper_95(kyr)
61.800000 1503.067584 1505.172870 1507.428417 1507.276003 1509.395965 1510.849838
61.900000 1504.833809 1506.769530 1508.951077 1508.757656 1510.605150 1512.056345
61.980000 1505.985863 1508.220325 1510.254362 1510.025146 1511.769261 1513.239077
62.100000 1508.536387 1510.681092 1512.412644 1512.230860 1513.728767 1515.059185
62.200000 1511.602107 1513.186292 1514.538509 1514.503197 1515.826030 1517.179276
62.300000 1513.659715 1515.007799 1516.358715 1516.363369 1517.685057 1518.992362
62.400000 1515.317814 1516.598907 1517.907950 1517.918984 1519.221114 1520.555890
62.500000 1516.877572 1518.082900 1519.315050 1519.387971 1520.769845 1522.109472
62.600000 1518.257869 1519.535876 1520.856275 1520.890932 1522.279434 1523.673590
62.700000 1519.833591 1521.146920 1522.582132 1522.607842 1524.071496 1525.514621
62.800000 1521.601146 1522.990403 1524.705922 1524.705036 1526.336281 1527.722342
62.900000 1524.203942 1525.683309 1527.388641 1527.354752 1528.948687 1530.621651
63.000000 1527.346037 1528.988471 1530.442388 1530.493438 1531.996285 1533.720632
63.100000 1530.257053 1531.964801 1533.370527 1533.568699 1535.341094 1537.102790
63.200000 1533.502179 1535.040275 1536.618709 1536.670273 1538.392033 1539.954365
63.300000 1536.527266 1538.482031 1540.180302 1540.139075 1541.786509 1543.389626
63.400000 1541.265601 1542.962175 1544.508826 1544.538974 1546.102559 1547.695241
63.480000 1544.019511 1545.663491 1547.347847 1547.444578 1549.305652 1551.271166
63.590000 1546.737237 1548.531334 1550.448673 1550.555142 1552.663758 1554.875089
63.700000 1549.503160 1551.131477 1553.222364 1553.321691 1555.408207 1557.872550
63.800000 1551.795258 1553.449603 1555.740204 1555.719905 1557.986577 1560.056773
63.900000 1554.211258 1555.977677 1558.194721 1558.112557 1560.279525 1561.661129
64.000000 1556.497515 1558.764424 1560.672138 1560.567410 1562.317889 1563.867635
64.100000 1559.624464 1561.485736 1563.075698 1562.986721 1564.462760 1565.882206
64.200000 1562.222641 1563.941245 1565.390549 1565.368851 1566.813864 1568.390693
64.300000 1564.919024 1566.808454 1568.315226 1568.275013 1569.736200 1571.269018
64.400000 1569.138257 1570.716863 1572.349172 1572.308944 1573.941441 1575.447056
64.500000 1572.596187 1574.287809 1575.742938 1575.753339 1577.240859 1578.621270
64.600000 1576.115855 1577.510820 1578.963620 1578.949936 1580.390877 1581.686778
64.620000 1576.853134 1578.150975 1579.602588 1579.559499 1580.936047 1582.288283
64.700000 1578.972794 1580.109980 1581.425943 1581.496685 1582.895595 1584.169417
64.800000 1581.399450 1582.524019 1583.769497 1583.908590 1585.228073 1587.355292
64.900000 1584.087860 1585.220802 1586.642188 1586.797239 1588.322336 1590.967170
64.980000 1586.107216 1587.262900 1588.956962 1589.178725 1591.005206 1593.929190
65.000000 1586.639304 1587.922540 1589.639399 1589.835340 1591.739116 1594.506662
65.100000 1589.599046 1591.404593 1593.295332 1593.248158 1595.123132 1596.992070
65.200000 1592.908140 1595.146008 1596.754945 1596.667924 1598.225714 1599.806892
65.300000 1596.517921 1598.289386 1599.479781 1599.506366 1600.805303 1602.406876
65.400000 1599.408222 1600.555696 1601.766792 1601.846550 1603.102665 1604.496295
65.500000 1601.426509 1602.440552 1603.786396 1603.849288 1605.234071 1606.773871
65.570000 1602.586002 1603.787526 1605.207441 1605.305528 1606.789100 1608.515786
65.600000 1603.118717 1604.381308 1605.884518 1605.963608 1607.517459 1609.442325
65.700000 1604.914403 1606.442910 1608.136328 1608.307827 1610.125332 1612.451732
65.800000 1606.970311 1608.707932 1610.843003 1611.120173 1613.613042 1616.362668
65.900000 1609.295491 1611.484457 1614.069370 1614.260133 1617.176900 1620.109927
65.980000 1611.641018 1613.930116 1616.708105 1616.781420 1619.634177 1622.236171
66.000000 1612.257136 1614.604406 1617.376046 1617.431752 1620.271659 1622.676527
66.080000 1614.989099 1617.064710 1619.938060 1619.871391 1622.648958 1624.904473
66.200000 1618.303414 1620.445763 1623.027917 1623.035097 1625.616816 1627.921524
66.300000 1620.544711 1622.943135 1625.417740 1625.447720 1627.967803 1630.398675
66.400000 1623.108077 1625.500422 1627.864591 1627.862644 1630.233128 1632.614317
66.500000 1625.389013 1627.920963 1630.494536 1630.320968 1632.693362 1635.090882
66.600000 1627.953719 1630.338699 1632.767052 1632.716608 1635.076798 1637.360932
66.700000 1630.851889 1632.893074 1635.030994 1635.192230 1637.586481 1640.237554
66.800000 1633.191756 1635.545278 1638.204996 1638.337957 1641.112795 1644.094787
66.900000 1636.810354 1639.393176 1642.611371 1642.595896 1645.610465 1648.435881
67.000000 1641.427538 1644.317513 1647.013357 1647.121469 1650.020231 1653.079995
67.080000 1644.333185 1647.118275 1650.119263 1650.064502 1652.693957 1655.935250
67.200000 1648.723041 1651.026946 1653.789872 1653.762580 1656.510722 1658.981849
67.300000 1651.547932 1653.766074 1656.393916 1656.418096 1659.030722 1660.923220
67.400000 1654.240191 1656.340588 1658.845531 1658.777585 1661.162130 1662.815019
67.500000 1656.414502 1658.685347 1661.017077 1660.855547 1662.984259 1664.434775
67.600000 1658.447932 1660.929200 1662.960675 1662.784955 1664.702076 1665.854336
67.700000 1660.907523 1662.958083 1664.909074 1664.702289 1666.429645 1667.515989
67.800000 1663.546126 1665.184018 1666.710053 1666.650269 1668.176627 1669.352422
67.900000 1666.508915 1667.637665 1668.813782 1668.855875 1670.075105 1671.377861
68.000000 1668.643727 1669.705763 1671.054053 1671.039682 1672.318875 1673.401256
68.100000 1671.078692 1672.434471 1673.719702 1673.749927 1675.011653 1676.529761
68.180000 1673.240505 1674.587676 1675.972364 1676.041057 1677.549756 1679.115447
68.200000 1673.663734 1675.093665 1676.534326 1676.585709 1678.106102 1679.658111
68.300000 1676.084886 1677.452409 1679.026559 1678.995361 1680.575603 1682.049595
68.400000 1678.091397 1679.594801 1681.313148 1681.305106 1682.958767 1684.602967
68.500000 1680.299363 1681.821809 1683.693530 1683.729285 1685.586301 1687.332297
68.600000 1682.625692 1684.315258 1686.328725 1686.323793 1688.327908 1690.160543
68.700000 1684.888211 1686.716878 1688.688782 1688.722723 1690.839628 1692.854120
68.800000 1686.766418 1688.939603 1691.117230 1691.141087 1693.313221 1695.118578
68.900000 1689.340176 1691.530648 1693.727029 1693.662123 1695.728919 1697.426580
69.000000 1692.192465 1694.293688 1696.447337 1696.293129 1698.195781 1699.854638
69.100000 1695.475708 1697.185639 1698.877216 1698.822774 1700.425747 1701.829442
69.200000 1697.893232 1699.383244 1700.923553 1700.886973 1702.317681 1703.702725
69.300000 1699.809298 1701.289787 1702.706973 1702.687882 1704.142153 1705.372731
69.410000 1701.876848 1703.174099 1704.533500 1704.575760 1706.003942 1707.319740
69.500000 1703.506681 1704.769055 1706.220815 1706.205776 1707.563918 1709.030921
69.600000 1705.265030 1706.749240 1708.283978 1708.250660 1709.704687 1711.205896
69.680000 1706.764827 1708.366969 1709.887329 1709.973255 1711.624564 1713.370857
69.800000 1709.373284 1711.020105 1712.908524 1713.050619 1714.919241 1717.755382
69.900000 1711.915051 1713.804061 1716.067994 1716.137288 1718.416466 1721.054882
70.000000 1714.301102 1716.493212 1719.071136 1718.987380 1721.286620 1723.257999
70.100000 1716.610687 1719.133290 1721.780626 1721.567209 1723.937627 1725.728905
70.200000 1719.067239 1721.594014 1723.954717 1723.844289 1726.113431 1727.849646
70.310000 1721.401315 1723.869901 1726.010192 1725.952230 1728.088654 1730.131261
70.400000 1723.489273 1725.530784 1727.644716 1727.680862 1729.810792 1732.025998
70.500000 1725.413466 1727.407863 1729.549527 1729.632957 1731.762556 1734.302905
70.600000 1727.329425 1729.359862 1731.844143 1731.896977 1734.506961 1737.024388
70.700000 1729.405940 1731.662137 1734.398683 1734.416747 1737.254491 1739.893758
70.800000 1731.740142 1734.048905 1737.029455 1736.993792 1739.754324 1742.394196
70.900000 1734.151544 1736.789758 1739.648765 1739.497121 1742.166028 1744.352645
71.000000 1736.598559 1739.662203 1742.045311 1741.951295 1744.287408 1746.142629
71.100000 1739.297529 1742.155158 1744.406587 1744.193325 1746.256219 1748.148680
71.180000 1741.607478 1743.944670 1745.964477 1745.812400 1747.661054 1749.332883
71.300000 1744.410431 1746.300318 1748.088930 1747.984802 1749.679018 1751.397336
71.400000 1745.993813 1748.027473 1750.004429 1749.848412 1751.589597 1753.219657
71.475000 1747.598573 1749.508375 1751.482839 1751.423905 1753.221096 1755.065392
71.550000 1749.171820 1751.159203 1753.121174 1753.071820 1754.945920 1756.724700
71.650000 1751.500039 1753.486124 1755.440081 1755.474333 1757.492348 1759.496009
71.750000 1753.932956 1755.864110 1757.781546 1757.854834 1759.906219 1762.180087
71.800000 1755.174874 1757.122284 1758.999564 1759.086758 1761.132448 1763.447735
71.875000 1756.784528 1758.752816 1760.697702 1760.763140 1762.877684 1764.748202
71.950000 1758.370078 1760.191327 1762.398941 1762.418562 1764.635301 1766.607621
72.025000 1759.962640 1761.961790 1764.139576 1764.109044 1766.247892 1768.511534
72.100000 1761.630540 1763.659806 1765.792938 1765.839023 1767.992955 1770.131607
72.175000 1763.312510 1765.353956 1767.454166 1767.554173 1769.738984 1772.363913
72.250000 1765.100833 1766.993307 1769.238076 1769.337118 1771.786318 1774.031474
72.325000 1766.822925 1768.733166 1771.074022 1771.238983 1773.749181 1776.503721
72.400000 1768.584707 1770.619850 1772.983805 1773.260154 1776.162140 1779.001252
72.500000 1771.256356 1773.559123 1776.358900 1776.489475 1779.623335 1782.065826
72.600000 1774.821672 1777.099385 1780.211229 1780.023645 1782.766543 1784.758382
72.680000 1777.682805 1780.408093 1782.896494 1782.692285 1784.930634 1786.615326
72.800000 1781.776846 1784.138863 1786.073689 1785.960626 1787.759392 1789.163595
72.900000 1784.994869 1786.792270 1788.227722 1788.157430 1789.599264 1790.683944
73.000000 1787.145286 1788.744844 1790.046768 1789.933207 1791.161758 1792.069349
73.100000 1789.318253 1790.507298 1791.546406 1791.468071 1792.454949 1793.342227
73.200000 1791.308449 1792.030027 1792.836809 1792.860223 1793.684737 1794.453555
73.300000 1792.449547 1793.258241 1794.133569 1794.139691 1794.978126 1796.034524
73.400000 1793.576477 1794.396547 1795.437735 1795.425520 1796.372838 1797.570386
73.500000 1794.686038 1795.693962 1796.801785 1796.820822 1797.985778 1799.210495
73.600000 1796.249660 1797.289198 1798.535959 1798.610313 1799.887524 1801.533498
73.700000 1797.972520 1799.246528 1800.554703 1800.788199 1802.325424 1805.082664
73.800000 1800.396958 1801.595408 1803.323117 1803.626178 1805.592798 1808.410663
73.900000 1802.042429 1803.701078 1806.034549 1806.216828 1808.746626 1811.570238
74.000000 1804.164632 1806.046368 1808.723078 1808.898775 1811.685732 1814.932959
74.100000 1806.350804 1808.655089 1811.671225 1811.852748 1815.032945 1818.081842
74.180000 1808.761543 1811.281551 1814.526866 1814.496572 1817.681780 1820.605323
74.300000 1812.143648 1815.277855 1818.532368 1818.384486 1821.315870 1824.056332
74.400000 1815.083150 1818.585628 1821.696323 1821.518823 1824.360851 1826.678654
74.500000 1818.230640 1821.861106 1824.751591 1824.554344 1827.191668 1829.390741
74.600000 1821.353435 1824.653744 1827.493414 1827.300284 1829.788768 1832.116546
74.700000 1824.632156 1827.472393 1829.990857 1829.837160 1832.203173 1834.378756
74.800000 1827.583829 1829.956592 1832.279818 1832.192605 1834.366201 1836.657374
74.900000 1830.304632 1832.162953 1834.319461 1834.351806 1836.501551 1838.694084
75.000000 1832.354996 1834.276841 1836.440025 1836.397934 1838.520769 1840.448900
75.100000 1834.077927 1836.278581 1838.396343 1838.353609 1840.478262 1842.181197
75.200000 1836.175707 1838.118328 1840.267279 1840.233209 1842.203074 1843.963147
75.300000 1838.014707 1840.088925 1842.145267 1842.121829 1844.172713 1845.854928
75.400000 1839.992502 1842.286919 1844.275809 1844.303421 1846.462148 1848.575212
75.500000 1842.447927 1844.266958 1846.284873 1846.422749 1848.540926 1851.085036
75.600000 1844.601921 1846.248776 1848.322356 1848.548735 1850.989657 1853.438463
75.680000 1846.350250 1848.170386 1850.338318 1850.401829 1852.674597 1855.016356
75.800000 1849.235907 1851.409996 1853.403568 1853.352274 1855.400932 1857.271826
75.900000 1851.795803 1853.895912 1855.805330 1855.729836 1857.512951 1859.351856
76.000000 1854.180445 1856.089203 1857.795443 1857.787696 1859.453265 1861.448213
76.050000 1855.105673 1856.966088 1858.748133 1858.724901 1860.478404 1862.336022
76.100000 1856.192473 1857.933448 1859.642287 1859.671845 1861.439267 1863.149418
76.200000 1858.110328 1859.897151 1861.573651 1861.655721 1863.475979 1865.379012
76.300000 1860.163441 1861.877068 1863.768042 1863.799049 1865.656184 1867.922036
76.400000 1861.982448 1863.629454 1865.688192 1865.694263 1867.724775 1869.961244
76.500000 1863.516793 1865.351358 1867.597334 1867.597699 1869.771869 1871.934136
76.600000 1865.255939 1867.285376 1869.491962 1869.515632 1871.592664 1873.912568
76.700000 1867.025944 1869.334569 1871.448262 1871.455837 1873.642080 1875.795556
76.800000 1869.057492 1871.471951 1873.666473 1873.593396 1875.719195 1877.838419
76.890000 1871.269422 1873.437233 1875.711531 1875.693091 1877.941673 1879.995112
77.000000 1873.927449 1876.333555 1878.463172 1878.446473 1880.798368 1882.493270
77.100000 1876.500793 1878.730635 1880.842458 1880.766013 1882.927955 1884.286658
77.200000 1879.348695 1881.370391 1883.326880 1883.080491 1884.802478 1885.874738
77.280000 1881.691606 1883.305832 1884.925317 1884.765982 1886.108167 1886.966213
77.400000 1884.861266 1886.071308 1887.093572 1887.014212 1887.958979 1888.748299
77.410000 1885.157702 1886.278774 1887.264673 1887.201515 1888.142371 1888.879864
77.490000 1886.734186 1887.707932 1888.527998 1888.527617 1889.384498 1890.117320
77.500000 1886.898565 1887.879986 1888.687474 1888.692255 1889.535347 1890.309475
77.590000 1888.479197 1889.271330 1890.017747 1890.072189 1890.912002 1891.673431
77.600000 1888.633965 1889.455594 1890.178010 1890.231813 1891.078734 1891.849096
77.680000 1889.839578 1890.687054 1891.512868 1891.530952 1892.382579 1893.180155
77.700000 1890.202729 1891.019677 1891.856578 1891.880151 1892.742025 1893.544184
77.790000 1891.655487 1892.539696 1893.465690 1893.473842 1894.366578 1895.284100
77.800000 1891.819536 1892.749033 1893.654497 1893.674075 1894.579481 1895.502457
77.890000 1893.851331 1894.724947 1895.734427 1895.746833 1896.760759 1897.803584
77.900000 1894.031399 1894.944862 1895.952584 1895.969798 1896.987413 1898.030233
78.000000 1896.162131 1897.223001 1898.149645 1898.188194 1899.186502 1900.290281
78.090000 1898.372706 1899.266703 1900.314316 1900.338325 1901.382982 1902.534879
78.100000 1898.695187 1899.522372 1900.553141 1900.564834 1901.619805 1902.704218
78.200000 1900.435912 1901.257947 1902.312438 1902.356800 1903.446882 1904.551110
78.290000 1901.742321 1902.653866 1903.731955 1903.781549 1904.920483 1906.124393
78.370000 1902.736431 1903.816716 1904.978027 1905.058618 1906.289925 1907.681207
78.480000 1904.184411 1905.471915 1906.708751 1906.776211 1908.154939 1909.730903
78.590000 1905.654201 1907.049197 1908.591313 1908.654779 1910.247139 1912.222154
78.690000 1907.356424 1908.948558 1910.720522 1910.878655 1912.732788 1915.237482
78.780000 1909.270015 1911.124940 1913.209020 1913.413758 1915.681577 1918.573818
78.890000 1911.668956 1914.171544 1916.862614 1916.926024 1919.716391 1922.303336
78.990000 1914.736619 1917.307214 1920.307891 1920.232484 1923.022922 1925.595403
79.090000 1917.614877 1920.713949 1923.626680 1923.529038 1926.320247 1928.605942
79.180000 1921.173415 1923.814427 1926.460858 1926.470138 1929.165826 1931.562722
79.300000 1925.612433 1928.530792 1930.756442 1930.855090 1933.325893 1935.789901
79.400000 1929.543836 1931.901337 1934.239710 1934.278633 1936.664480 1939.115333
79.500000 1932.814118 1935.029537 1937.411288 1937.482018 1939.981565 1942.602377
79.600000 1935.920894 1938.212564 1940.594459 1940.736203 1943.274500 1946.007286
79.700000 1938.961549 1941.524572 1944.257225 1944.265279 1947.051832 1949.264026
79.800000 1942.977403 1945.474002 1948.157746 1948.059664 1950.700195 1952.626216
79.890000 1947.263031 1949.538528 1951.681965 1951.509149 1953.432074 1954.925992
80.000000 1952.077826 1953.757013 1955.104340 1955.002169 1956.251438 1957.371599
80.100000 1955.918851 1956.715661 1957.558718 1957.575914 1958.426783 1959.399163
80.200000 1957.678148 1958.538722 1959.521642 1959.641882 1960.756028 1962.339307
80.270000 1958.850976 1959.756842 1960.995896 1961.134065 1962.551797 1964.148251
80.400000 1960.812717 1962.027237 1963.682010 1963.877538 1965.837991 1967.796028
80.500000 1962.459988 1963.794979 1965.644695 1965.906286 1968.193565 1970.254620
80.600000 1964.149935 1965.746696 1967.972980 1968.078875 1970.511524 1972.333739
80.700000 1965.845195 1967.745648 1970.097683 1970.069104 1972.345894 1973.847080
80.800000 1967.619287 1969.695130 1972.007746 1971.862532 1974.042020 1975.371217
80.933333 1969.914362 1972.044649 1974.035891 1973.864342 1975.667054 1976.834941
81.066667 1972.409519 1974.144512 1975.776233 1975.648142 1977.026564 1978.468623
81.200000 1974.950933 1976.180589 1977.396631 1977.348856 1978.382300 1979.642225
81.300000 1976.448295 1977.504416 1978.531474 1978.496143 1979.489051 1980.451476
81.390000 1977.636776 1978.511437 1979.421525 1979.461789 1980.433963 1981.225961
81.500000 1978.779269 1979.665850 1980.513457 1980.539292 1981.393326 1982.255012
81.600000 1979.724906 1980.564375 1981.472515 1981.455764 1982.316469 1983.203038
81.700000 1980.636167 1981.443436 1982.329529 1982.324701 1983.165704 1984.177480
81.780000 1981.329104 1982.118961 1982.982683 1983.012388 1983.873692 1984.911849
81.900000 1982.324805 1983.157935 1984.004918 1984.033902 1984.878527 1985.938638
82.000000 1983.171355 1984.004282 1984.885390 1984.926034 1985.896441 1986.996803
82.100000 1983.995009 1984.867494 1985.802662 1985.864470 1986.930647 1988.006013
82.180000 1984.752615 1985.620976 1986.615790 1986.678780 1987.764648 1989.089191
82.300000 1985.851597 1986.771775 1987.924678 1987.974822 1989.147833 1990.637375
82.400000 1986.710987 1987.705843 1988.999208 1989.041763 1990.327669 1991.756326
82.500000 1987.684573 1988.798890 1990.055150 1990.107675 1991.435650 1992.843070
82.600000 1988.622504 1989.878585 1991.110824 1991.153860 1992.496863 1993.832994
82.700000 1989.662696 1990.902449 1992.213458 1992.263480 1993.598859 1994.970707
82.800000 1990.861413 1992.033416 1993.308803 1993.376403 1994.730105 1995.955176
82.900000 1991.931596 1993.249183 1994.530485 1994.552624 1995.927268 1997.182065
83.000000 1993.277495 1994.586445 1995.912008 1995.917767 1997.204593 1999.065973
83.100000 1994.528237 1995.955996 1997.368727 1997.375311 1998.712340 2000.329856
83.200000 1995.955048 1997.274423 1998.730411 1998.786749 2000.317108 2001.721104
83.300000 1997.253097 1998.564390 2000.090285 2000.097566 2001.676761 2003.039095
83.400000 1998.413750 1999.810412 2001.269510 2001.303809 2002.795945 2004.182570
83.500000 1999.591505 2001.086427 2002.585379 2002.519947 2003.957121 2005.112529
83.575000 2000.567972 2002.033096 2003.527504 2003.429058 2004.794207 2005.909862
83.650000 2001.511652 2002.912259 2004.352254 2004.258665 2005.551469 2006.654039
83.725000 2002.298890 2003.788178 2005.099123 2005.034810 2006.263062 2007.356931
83.800000 2003.176945 2004.627378 2005.824446 2005.788522 2006.955150 2008.075636
83.900000 2004.247634 2005.618546 2006.791460 2006.738953 2007.875171 2008.919052
84.010000 2005.228234 2006.615641 2007.761105 2007.731545 2008.880645 2009.930771
84.100000 2006.046284 2007.425810 2008.574582 2008.551413 2009.692214 2010.788505
84.200000 2007.052382 2008.354973 2009.512129 2009.443590 2010.568016 2011.588079
84.290000 2007.790999 2009.186931 2010.345746 2010.298735 2011.457993 2012.535250
