depth(m) lower_95(kyr) lower_68(kyr) median(kyr) mean(kyr) upper_68(kyr) upper_95(kyr)
0.000000 3.997056 4.687327 5.421239 5.451687 6.211681 7.047585
0.020000 4.233844 4.934962 5.664091 5.692659 6.449761 7.394736
0.100000 5.104496 5.809480 6.670403 6.701665 7.585780 8.650617
0.240000 6.509443 7.522761 8.759777 8.996330 10.498802 13.046229
0.380000 8.087896 9.244770 11.174689 11.299566 13.301474 15.344808
0.520000 9.834215 11.717861 13.615629 13.601478 15.483556 17.234382
0.660000 12.188063 14.260301 15.891898 15.843309 17.457369 19.146932
0.800000 15.716006 16.679610 17.804669 17.913684 19.217423 20.887348
0.900000 16.843120 17.731069 18.874794 19.025297 20.338212 21.831085
1.033333 18.028635 19.033411 20.229354 20.353968 21.704938 23.308632
1.166667 19.130028 20.229979 21.519260 21.620028 23.048794 24.543118
1.300000 20.280383 21.454760 22.852850 22.907419 24.328507 26.003787
1.400000 21.121291 22.390224 23.755813 23.869379 25.404503 27.100517
1.500000 21.895185 23.370441 24.703318 24.830120 26.288906 28.005095
1.600000 22.844051 24.348206 25.696375 25.804330 27.295792 29.020882
1.700000 23.821167 25.318672 26.669541 26.774954 28.256524 30.054142
1.800000 24.840469 26.312995 27.726017 27.819318 29.329493 31.078834
1.900000 25.812070 27.313591 28.816440 28.862781 30.486372 32.070362
2.000000 26.742986 28.284041 29.923522 29.929211 31.571508 33.038004
2.100000 27.758498 29.268083 31.037860 31.027398 32.721548 34.131447
2.200000 28.941907 30.383171 32.201222 32.136156 33.858469 35.307455
2.300000 29.861967 31.456881 33.247843 33.186418 34.904814 36.487755
2.400000 30.896797 32.429815 34.261951 34.195386 35.852150 37.716964
2.500000 31.765512 33.362845 35.250604 35.177987 36.905545 38.927453
2.600000 32.752010 34.307425 36.242313 36.184366 37.891804 39.850028
2.700000 33.764652 35.260637 37.178081 37.183863 38.932396 40.934777
2.800000 34.795930 36.325895 38.187770 38.222622 40.026877 41.897682
2.900000 35.777188 37.430253 39.134198 39.252534 41.071671 43.120774
3.000000 36.814934 38.400968 40.203946 40.300268 42.137530 44.195556
3.100000 37.811652 39.415107 41.271709 41.358622 43.199840 45.191355
3.200000 38.875509 40.549238 42.432030 42.463037 44.309174 46.270973
3.300000 39.943877 41.623981 43.541047 43.590409 45.456258 47.960125
3.400000 41.068652 42.817573 44.645131 44.749430 46.613617 49.409516
3.500000 42.239296 43.879529 45.770611 45.887803 47.760649 50.495262
3.600000 43.361098 44.928006 46.836041 46.987554 48.975275 51.666819
3.700000 44.409897 46.156409 47.989836 48.094633 49.987122 52.645678
3.800000 45.427334 47.305038 49.090490 49.177103 51.002332 53.657980
3.900000 46.659792 48.364622 50.270559 50.290590 52.064493 54.526213
4.000000 47.717400 49.528142 51.337574 51.385417 53.162752 55.353774
4.100000 48.859698 50.641624 52.417280 52.456638 54.281817 56.459305
4.200000 49.855262 51.620621 53.478807 53.493442 55.226369 57.705826
4.300000 50.969187 52.610127 54.493166 54.530562 56.314582 58.758876
4.400000 51.915883 53.724056 55.575093 55.620468 57.425079 60.117824
4.500000 53.041662 54.788065 56.630002 56.795468 58.586412 61.718996
4.600000 54.215765 55.950316 57.711116 58.005084 59.796450 64.002939
4.700000 55.412442 57.289771 58.955500 59.436411 61.144659 68.088264
4.800000 56.715179 58.630585 60.423574 60.962534 62.872419 70.281384
4.900000 58.445398 60.342784 62.584731 63.232441 66.291517 71.699192
5.000000 59.900085 62.160033 65.273270 65.698153 68.900877 73.733487
5.100000 61.649427 64.748629 68.282539 68.224788 71.162485 76.392246
5.200000 63.884519 68.496015 70.898170 70.909592 73.147374 79.105269
5.300000 70.037122 71.704744 73.231807 73.913806 75.462037 85.321337
5.400000 71.852957 73.264459 74.854971 75.613655 77.135707 87.671907
5.500000 73.329730 74.818425 76.445445 77.335516 78.979480 89.074639
5.600000 74.739458 76.176993 77.845287 78.978253 80.868359 90.704735
5.700000 76.085404 77.444940 79.297003 80.656667 83.979186 91.918903
5.800000 77.355671 78.716370 80.430348 82.370937 87.674709 92.979446
5.900000 78.845225 80.044043 82.031721 84.066703 90.700286 94.672409
6.000000 80.123734 81.253859 83.782742 85.705961 92.560518 95.972561
6.100000 81.393916 82.634658 85.725561 87.464890 93.981472 97.328875
6.200000 82.695588 84.148442 88.252583 89.298069 95.459810 98.716128
6.300000 83.970311 85.900060 91.181708 91.322770 96.857663 100.128794
6.400000 85.626789 88.045388 93.227939 93.238502 98.186293 101.397104
6.500000 87.178502 90.982861 95.432072 95.307986 99.604842 102.553655
6.600000 88.940781 92.865458 97.130733 96.931648 101.118631 103.849693
6.700000 90.646311 94.753067 98.507247 98.493147 102.344434 105.103463
6.800000 93.893254 96.821406 100.156687 100.214946 103.688235 106.474141
6.900000 95.733562 98.614175 101.699826 101.776811 105.002445 107.862029
7.000000 97.597315 100.406521 103.479341 103.421240 106.448210 109.230245
7.100000 99.492616 102.316460 105.153186 105.081531 107.945325 110.849373
7.200000 101.100118 104.144658 106.982656 106.894222 109.649511 112.186997
7.300000 102.899179 106.233743 109.009229 108.814061 111.427392 113.565845
7.400000 105.097614 108.452635 110.973481 110.740537 113.080214 114.872574
7.500000 107.024830 110.738706 113.064663 112.736990 114.821278 116.333673
7.600000 108.874872 113.266918 115.178660 114.910072 116.794964 118.129484
7.700000 110.737987 115.253308 117.000852 116.790313 118.662293 120.320499
7.833333 114.671721 117.729949 119.692828 119.568641 121.606785 123.903635
7.966667 117.730366 120.376682 122.500869 122.394410 124.463399 126.234806
8.100000 121.697918 123.540700 125.290244 125.252511 127.079231 128.426380
8.200000 124.721999 126.299747 127.743926 127.728140 129.230164 130.579005
8.300000 126.392598 128.022201 129.464727 129.454324 130.852916 132.404403
8.400000 128.283232 129.705088 131.082774 131.055560 132.435020 133.768723
8.500000 129.882382 131.180284 132.584800 132.540365 133.856941 135.154870
8.555000 130.711065 132.044123 133.452604 133.445088 134.839522 136.218645
8.677500 132.454161 134.012254 135.453384 135.503021 137.028316 138.680223
8.800000 134.358387 135.894495 137.379220 137.478042 139.097337 140.700405
8.900000 135.469885 137.237193 138.890723 138.939119 140.615377 142.242683
9.000000 136.855804 138.611150 140.362197 140.342865 142.057174 143.588763
9.100000 138.264928 139.945747 141.702376 141.656362 143.306145 145.041770
9.200000 139.551292 141.317758 142.988555 143.001213 144.687244 146.607143
9.300000 140.788846 142.552198 144.231154 144.274302 145.880129 148.071516
9.400000 142.044021 143.781273 145.430460 145.474222 147.080640 149.520089
9.500000 143.186600 144.890057 146.732221 146.703747 148.407394 150.630066
9.600000 144.280504 146.055453 147.898518 147.933106 149.734569 151.877675
9.700000 145.371968 147.239887 149.137904 149.198304 151.000336 153.220628
9.800000 146.392442 148.484740 150.392734 150.438961 152.338899 154.642571
9.900000 147.789366 149.725178 151.573606 151.689759 153.780632 156.064050
10.000000 148.903844 150.983095 152.837216 152.944863 154.987933 157.251354
10.100000 150.122566 152.248322 154.093048 154.164184 156.110049 158.291781
10.200000 151.049519 153.585096 155.289010 155.394287 157.328484 159.401423
10.300000 152.454390 154.791009 156.513018 156.559039 158.466130 160.533819
10.400000 153.651585 155.912320 157.670739 157.715230 159.688558 161.713667
10.500000 155.100469 157.136678 158.832317 158.954905 160.895987 163.062042
10.600000 156.592640 158.398551 160.082565 160.230705 162.132694 164.556753
10.700000 157.911983 159.673115 161.342285 161.555853 163.555835 166.120654
10.800000 159.094762 161.022506 162.660978 163.038973 165.225264 168.645733
10.900000 160.349058 162.190908 164.115989 164.608177 166.854966 171.339012
11.000000 161.773616 163.623076 165.808522 166.605973 169.230841 177.662618
11.100000 163.015844 164.952457 167.619721 168.835295 172.795512 181.108730
11.200000 164.366839 166.423031 169.915680 171.612021 177.973114 183.990584
11.300000 165.492747 168.022261 172.950211 174.419397 181.584037 185.840435
11.400000 167.065262 169.732548 177.910109 177.313404 185.009440 187.714238
11.500000 168.748817 172.239015 181.531161 180.310154 187.170310 189.025214
11.600000 170.705518 175.577328 185.463392 183.438871 188.923377 190.506482
11.700000 172.586904 181.660699 188.741852 186.708716 190.721351 192.034376
11.800000 177.789436 189.283191 191.316196 190.461143 192.791310 194.139186
11.820000 178.034760 189.742021 191.757176 190.870011 193.181393 194.393981
11.920000 191.736027 192.847267 194.151268 194.575351 195.672775 203.158202
12.020000 193.264682 194.440245 195.630477 196.251058 197.195632 205.862925
12.120000 194.760082 195.803336 197.022905 197.855978 198.809443 208.282058
12.220000 196.017189 197.086713 198.345839 199.371591 200.789610 210.628044
12.320000 197.309367 198.358049 199.741779 200.881259 202.459007 212.028513
12.420000 198.536874 199.725760 201.161086 202.424005 204.563076 213.416289
12.553333 200.004724 201.357048 203.090761 204.516725 208.640334 215.240054
12.686667 201.624477 203.006587 205.141790 206.641542 213.261158 216.566162
12.820000 203.376038 204.774246 207.040721 208.731326 215.988966 218.080272
12.920000 204.511559 206.100283 208.677251 210.177289 217.096478 219.019691
13.020000 205.659140 207.517083 210.477696 211.789880 218.008703 219.815966
13.120000 206.925404 209.074164 212.898051 213.583733 218.788706 220.633164
13.220000 208.179675 210.796894 215.876133 215.395908 219.644793 221.392280
13.320000 209.898431 213.673903 217.264109 216.994939 220.406889 222.197648
13.420000 211.444111 216.441996 218.434559 218.468317 221.150568 222.901073
13.520000 215.025259 217.762465 219.475634 219.598063 221.936639 223.683490
13.620000 217.429892 218.981247 220.438519 220.676511 222.750021 224.454156
13.720000 218.669802 219.957408 221.409714 221.603976 223.495233 225.247612
13.820000 219.746659 220.861754 222.372482 222.502477 224.302373 226.015969
13.920000 220.667298 221.817818 223.262860 223.394129 225.050193 226.710507
14.020000 221.558224 222.700304 224.096558 224.224530 225.825570 227.437258
14.120000 222.451116 223.586824 224.938197 225.068771 226.591356 228.196582
14.220000 223.367749 224.487904 225.809987 225.917251 227.433707 228.938458
14.320000 224.251544 225.430301 226.680519 226.797975 228.252321 229.712926
14.420000 225.273708 226.295292 227.570411 227.671462 229.014003 230.511492
14.520000 226.114121 227.205599 228.469883 228.536051 229.855650 231.298654
14.620000 227.143220 228.156693 229.404517 229.449636 230.751778 231.996061
14.720000 228.064182 229.140235 230.350538 230.357154 231.611280 232.751148
14.820000 229.047967 230.091740 231.271545 231.264252 232.408963 233.445784
14.920000 230.058408 231.142603 232.232269 232.189045 233.225517 234.254180
15.020000 231.211669 232.253187 233.202733 233.177433 234.093298 235.106418
15.120000 232.549879 233.507208 234.346916 234.302951 235.142365 235.996641
15.220000 234.106367 234.968301 235.701351 235.769585 236.585855 237.725506
15.320000 235.507297 236.230400 237.117092 237.186629 238.080690 239.519208
15.420000 236.616253 237.531296 238.554245 238.591433 239.656698 240.821096
15.520000 237.827814 238.982491 240.037585 240.037778 241.106758 242.156339
15.620000 239.310143 240.646179 241.587269 241.561447 242.484450 243.509334
15.720000 241.376363 242.248585 243.090225 243.143086 244.028548 245.004629
15.820000 243.075800 243.883390 244.863089 244.903324 245.848147 247.315505
15.920000 244.270030 245.263831 246.363830 246.466212 247.677912 249.137736
16.020000 245.484910 246.715524 247.915933 248.083484 249.408517 251.338471
16.120000 246.706375 248.153565 249.597637 249.750030 251.366098 253.109429
16.220000 248.011529 249.704177 251.337319 251.335904 252.922950 255.023155
16.315000 249.311679 251.151190 252.844544 252.846345 254.493682 256.710760
16.410000 250.402118 252.529431 254.327892 254.303182 255.952876 258.257341
16.500000 251.883053 253.918966 255.582147 255.616373 257.391988 259.617331
16.600000 253.195597 255.238233 256.804207 256.980044 258.858945 261.151765
16.700000 254.566342 256.337373 258.167609 258.330033 260.388355 262.429300
16.800000 256.000804 257.712786 259.496288 259.668018 261.773166 263.928223
16.900000 257.277859 259.160973 260.910677 261.037562 263.179185 265.321830
17.000000 258.412860 260.374655 262.428981 262.464802 264.734771 266.591967
17.100000 259.605208 261.812089 263.996571 263.923532 266.082633 267.739542
17.200000 261.103721 263.308855 265.651927 265.442554 267.420815 269.156244
17.300000 262.297081 265.060159 267.338953 266.989231 268.721983 270.269666
17.400000 263.463457 267.137417 268.932883 268.533683 270.070458 271.341270
17.500000 264.709379 268.669051 270.328326 270.007799 271.480028 272.888572
17.600000 266.262309 270.156828 271.848301 271.538764 273.111679 274.363424
17.700000 268.186042 271.305438 273.076614 272.869526 274.478982 275.681432
17.800000 270.256016 272.612810 274.292094 274.150735 275.716940 276.881891
17.900000 272.483620 274.056843 275.593905 275.490429 276.885476 278.027376
18.000000 273.628225 275.259131 276.779002 276.633320 277.939562 278.997374
18.100000 275.132212 276.531899 277.842199 277.762123 278.988826 279.975671
18.200000 276.320148 277.725687 278.938936 278.859328 280.032354 280.983826
18.300000 277.825102 279.059128 280.137976 280.101125 281.151072 282.037826
18.400000 279.165514 280.314851 281.350445 281.347176 282.385725 283.469068
18.500000 280.497531 281.638548 282.545108 282.602083 283.573627 284.893860
18.600000 281.659127 282.718257 283.708642 283.750324 284.820935 286.091097
18.700000 282.683763 283.784214 284.761264 284.833311 285.940317 287.169683
18.800000 283.611366 284.754424 285.787240 285.878403 287.094712 288.388834
18.900000 284.414698 285.660378 286.749076 286.886634 288.138849 289.852806
19.000000 285.469451 286.611479 287.715612 287.880739 289.155270 291.293880
19.100000 286.481712 287.576301 288.771321 289.034284 290.423184 292.947407
19.200000 287.560691 288.549073 289.784571 290.238327 291.838016 295.497233
19.300000 288.593789 289.518783 290.999416 291.496328 293.402696 297.487667
19.400000 289.700924 290.646575 292.308398 292.843093 295.008371 299.094852
