depth(m) lower_95(kyr) lower_68(kyr) median(kyr) mean(kyr) upper_68(kyr) upper_95(kyr)
0.540000 3.121349 3.915452 4.664536 4.644786 5.388849 6.061293
0.665000 3.726034 4.425980 5.192669 5.228457 6.009362 6.888022
0.790000 4.375079 5.004801 5.815910 5.830983 6.659626 7.615104
0.915000 4.834880 5.576874 6.412324 6.434943 7.306557 8.290679
1.040000 5.370799 6.130748 7.009985 7.039269 7.931540 8.853810
1.167500 5.974194 6.852215 7.765412 7.772426 8.695021 9.650841
1.295000 6.598843 7.558215 8.540020 8.514904 9.467753 10.328297
1.422500 7.401001 8.280145 9.303906 9.219176 10.129344 10.894185
1.550000 8.180557 9.072427 9.995729 9.947313 10.760759 11.563990
1.670000 8.942453 9.907227 10.728641 10.670569 11.415402 12.135902
1.755000 9.407193 10.339428 11.166964 11.109298 11.861286 12.487353
1.840000 9.935102 10.803355 11.566832 11.542426 12.294088 12.898710
1.945000 10.569169 11.410000 12.024598 12.047821 12.732952 13.394643
2.050000 11.171937 11.933512 12.563614 12.549336 13.203016 13.785769
2.120000 11.558386 12.230908 12.901441 12.871031 13.494512 14.148426
2.200000 11.925291 12.567924 13.221829 13.214003 13.833219 14.519503
2.280000 12.238233 12.895906 13.568010 13.558543 14.188387 14.877460
2.403333 12.712996 13.379706 14.039769 14.036570 14.677861 15.316975
2.526667 13.141805 13.838257 14.538148 14.518509 15.209843 15.955694
2.650000 13.626830 14.275947 15.004786 15.000116 15.701604 16.511298
2.778571 14.019576 14.733242 15.470737 15.498134 16.302498 17.088769
2.907143 14.364360 15.112071 15.918044 15.983578 16.828404 17.871647
3.035714 14.793893 15.517609 16.359131 16.461031 17.439666 18.669443
3.164286 15.155116 15.919788 16.828051 16.943985 17.973146 19.554461
3.292857 15.592534 16.316417 17.246639 17.408188 18.496311 20.152670
3.421429 15.987274 16.733039 17.718303 17.875102 19.034544 20.870783
3.550000 16.328813 17.111672 18.132104 18.321872 19.479675 21.348090
3.672500 16.665210 17.451972 18.567733 18.742472 19.907669 22.021796
3.795000 17.032492 17.838239 18.977207 19.168998 20.417884 22.495938
3.917500 17.328555 18.214979 19.386642 19.593420 20.929556 23.002303
4.040000 17.680551 18.567775 19.765108 19.998356 21.339005 23.531120
4.167500 18.038156 18.973648 20.198546 20.424543 21.791547 23.956646
4.295000 18.412786 19.389162 20.659012 20.857402 22.299274 24.370115
4.422500 18.788277 19.741734 21.128774 21.299170 22.804725 24.966588
4.550000 19.022509 20.116718 21.582275 21.736728 23.259865 25.442272
4.695385 19.429979 20.618947 22.089322 22.240933 23.855581 25.910439
4.840769 19.805060 21.039436 22.615975 22.734319 24.357630 26.402712
4.986154 20.266055 21.524550 23.142734 23.249204 24.952094 26.915200
5.131538 20.647523 22.025631 23.629012 23.753887 25.535062 27.543808
5.276923 21.002740 22.472242 24.179317 24.270953 26.117259 27.983698
5.422308 21.531787 22.951923 24.717694 24.796579 26.703008 28.564216
5.567692 21.970092 23.412108 25.237853 25.322137 27.201548 29.121771
5.713077 22.431233 23.926175 25.734406 25.854684 27.789509 29.675759
5.858462 22.885020 24.412813 26.307237 26.383350 28.327099 30.231247
6.003846 23.339406 24.802972 26.805909 26.901372 28.864957 30.787731
6.149231 23.686225 25.325503 27.353304 27.432358 29.430570 31.487431
6.294615 24.154408 25.842973 27.900781 27.989616 30.104787 32.046310
6.440000 24.561438 26.359229 28.471157 28.538950 30.670426 32.653286
6.567500 25.028041 26.828691 29.014498 29.067863 31.282062 33.279661
6.695000 25.414090 27.286342 29.665094 29.619468 31.842099 33.976070
6.822500 25.841781 27.790909 30.276093 30.206271 32.430712 34.731472
6.950000 26.372588 28.334301 30.771745 30.763544 33.007387 35.512923
7.090000 26.906761 28.909696 31.356790 31.402843 33.666972 36.538525
7.230000 27.354046 29.469568 31.976108 32.037443 34.354600 37.242250
7.370000 27.813802 30.074546 32.620665 32.701835 35.097483 38.351294
7.510000 28.431458 30.709765 33.297601 33.377444 35.902816 39.413824
7.650000 28.945920 31.430112 33.940586 34.057407 36.554575 40.463881
7.790000 29.348429 32.123306 34.620599 34.745780 37.320860 41.594924
7.930000 29.714683 32.700854 35.214918 35.383534 37.909108 42.183861
8.060000 30.272539 33.249438 35.878446 35.991547 38.532027 43.091464
8.190000 30.767352 33.797209 36.509067 36.593203 39.268561 43.616098
8.320000 31.171972 34.288914 37.055984 37.183437 40.017303 44.304247
8.450000 31.641651 34.837737 37.627954 37.774117 40.646882 45.003203
8.587500 32.083938 35.352986 38.196830 38.347994 41.277773 45.431997
8.725000 32.596239 35.855926 38.751199 38.940233 41.873007 46.013027
8.862500 32.968313 36.418377 39.310189 39.526484 42.546082 46.498979
9.000000 33.508335 36.973426 40.008891 40.134070 43.312637 47.196454
9.137500 33.805898 37.501783 40.624628 40.740929 43.946201 47.802336
9.275000 34.129764 38.048828 41.271759 41.333016 44.603859 48.283463
9.412500 34.788100 38.501838 41.890452 41.909202 45.299451 48.740056
9.550000 35.271265 38.930333 42.469830 42.489839 45.938135 49.255444
9.687500 35.810108 39.436715 43.055363 43.069950 46.476492 49.800791
9.825000 36.263445 39.956398 43.604243 43.660596 47.181229 50.561748
9.962500 36.729696 40.444092 44.267497 44.220459 47.804824 51.048017
10.100000 37.089332 40.976548 44.865873 44.790198 48.385720 51.623101
10.222500 37.683290 41.500452 45.369978 45.279638 48.921717 52.089889
10.345000 38.093119 42.041148 46.018357 45.797654 49.504129 52.768626
10.467500 38.857721 42.549197 46.564613 46.308609 50.059127 53.209318
10.590000 39.186497 43.051165 47.108766 46.814051 50.557660 53.766290
10.715000 39.528325 43.524916 47.714902 47.314475 51.013042 54.404623
10.840000 40.077390 43.993306 48.207736 47.815000 51.572038 54.837379
10.965000 40.570221 44.420328 48.766340 48.304812 52.100239 55.240516
11.090000 41.091364 44.877415 49.304429 48.806552 52.581099 55.749975
11.215000 41.546229 45.253888 49.719654 49.285462 53.080573 56.174616
11.340000 42.015128 45.758219 50.132419 49.770167 53.494659 56.685227
11.465000 42.868289 46.309501 50.594694 50.254899 53.972601 57.063545
11.590000 43.321145 46.724713 51.058623 50.745071 54.465381 57.595364
11.715000 44.092181 47.167274 51.547666 51.233501 54.871075 57.838152
11.840000 44.616022 47.747683 52.000975 51.702557 55.301383 58.306517
11.965000 45.120863 48.154227 52.551456 52.186547 55.792905 58.815434
12.090000 45.688010 48.598240 53.143866 52.653293 56.184464 59.154025
12.228889 46.216686 49.288143 53.653120 53.181848 56.654422 59.595756
12.367778 46.878381 49.788620 54.140901 53.691021 57.123126 59.862353
12.506667 47.447462 50.285299 54.681555 54.197842 57.559249 60.255366
12.645556 48.040626 50.975705 55.221958 54.711064 57.959947 60.550089
12.784444 48.694834 51.638853 55.688651 55.229923 58.423075 60.910174
12.923333 49.355740 52.149064 56.146985 55.747872 58.826240 61.349460
13.062222 50.044756 52.766950 56.621880 56.276697 59.220331 61.656849
13.201111 50.591706 53.645270 57.166516 56.822054 59.684084 62.192497
13.340000 51.317205 54.233239 57.734202 57.333780 60.081808 62.667491
13.478889 51.939164 54.944358 58.261517 57.857121 60.538303 62.956082
13.617778 52.491794 55.586569 58.759448 58.390421 61.006210 63.333429
13.756667 53.032630 56.207755 59.244930 58.904141 61.470322 63.667961
13.895556 53.694643 56.789914 59.789294 59.432387 61.896248 64.051421
14.034444 54.139922 57.376550 60.288429 59.941621 62.357317 64.420361
14.173333 54.869752 57.997659 60.749087 60.459384 62.761240 64.673633
14.312222 55.518541 58.556695 61.267778 60.991245 63.237767 65.089801
14.451111 56.241457 59.239222 61.760149 61.508871 63.683503 65.398744
14.590000 56.983564 59.918865 62.271560 62.039067 64.106777 65.898358
14.721250 57.621403 60.420870 62.785207 62.519784 64.559567 66.334035
14.852500 58.145047 60.979250 63.309241 63.033084 65.050512 66.893237
14.983750 58.933286 61.464097 63.760007 63.529507 65.498608 67.297549
15.115000 59.648779 61.997247 64.280646 64.054618 65.896937 67.742954
15.246250 60.128200 62.574981 64.775763 64.565732 66.353265 68.104904
15.377500 60.972060 63.184291 65.358710 65.098382 66.839294 68.603406
15.508750 61.533834 63.707113 65.874633 65.626104 67.376429 69.128754
15.640000 62.251074 64.372484 66.372470 66.167952 67.836655 69.761211
15.765000 62.824689 64.882797 66.861945 66.697792 68.309361 70.201543
15.890000 63.465538 65.498015 67.363473 67.238937 68.879059 70.683123
16.015000 64.098239 66.117483 67.891354 67.792956 69.385950 71.146233
16.140000 64.852734 66.683246 68.421629 68.341136 69.930677 71.657026
16.265000 65.455787 67.321155 68.986861 68.926812 70.444285 72.107214
16.390000 66.215263 68.042469 69.558690 69.545066 71.059520 72.858302
16.515000 66.905713 68.709245 70.132278 70.159283 71.639772 73.536268
16.640000 67.726948 69.392525 70.773676 70.843183 72.343385 74.174276
16.765000 68.504753 70.089634 71.585301 71.601886 73.127192 75.032900
16.890000 69.248219 70.826507 72.289613 72.366452 73.981240 75.806473
17.015000 69.975030 71.552780 73.046095 73.105451 74.787897 76.467920
17.140000 70.690155 72.270516 73.844098 73.882263 75.464000 77.001800
17.265000 71.315822 73.084421 74.600414 74.587215 76.096514 77.850211
17.390000 72.061760 73.731403 75.427280 75.313078 76.847055 78.512382
17.515000 72.764370 74.466363 76.125580 76.027372 77.588966 79.084802
17.640000 73.315271 75.117677 76.829360 76.719945 78.229724 79.529453
17.765000 74.021310 75.770897 77.493561 77.377085 78.831669 80.344722
17.890000 74.777913 76.563420 78.142380 78.028332 79.456657 80.854764
18.015000 75.409082 77.277749 78.771901 78.681662 80.061498 81.516712
18.140000 76.112539 78.031840 79.332132 79.315795 80.676757 82.032121
18.267500 76.815089 78.647371 79.979167 79.952366 81.320021 82.624163
18.395000 77.454398 79.266036 80.618221 80.609748 81.957334 83.471987
18.522500 78.192109 80.031046 81.273580 81.292070 82.566644 84.086048
18.650000 78.999134 80.652778 81.905199 81.927170 83.197917 84.649408
18.791429 79.720934 81.323752 82.609164 82.612182 83.927948 85.548330
18.932857 80.264212 81.963923 83.239374 83.277108 84.598218 86.436894
19.074286 81.005404 82.609600 83.839679 83.941464 85.243580 87.296284
19.215714 81.866658 83.216701 84.461974 84.593801 85.900502 88.068111
19.357143 82.599345 83.860418 85.121891 85.282336 86.556261 89.331380
19.498571 83.342080 84.604800 85.782901 85.990624 87.327732 90.129637
19.640000 84.000898 85.301424 86.432864 86.706057 87.975008 91.337716
19.767500 84.703136 85.923866 87.100303 87.352732 88.697129 91.989724
19.895000 85.300312 86.535934 87.716547 87.987048 89.278857 92.591043
20.022500 86.100471 87.233606 88.353490 88.658572 89.950763 93.129477
20.150000 86.797951 87.903334 89.040363 89.338491 90.643298 93.987440
20.275000 87.507113 88.528408 89.783381 90.112383 91.604708 95.007131
20.400000 88.051221 89.153226 90.541811 90.866557 92.477243 95.771391
20.525000 88.717847 89.799084 91.334861 91.683156 93.460657 96.700714
20.650000 89.372426 90.496383 92.127887 92.470665 94.373843 97.529263
20.791429 90.007663 91.199778 92.981388 93.318144 95.237336 98.661611
20.932857 90.668109 92.004807 93.820807 94.174134 96.234655 100.029083
21.074286 91.256970 92.702924 94.668038 95.007559 97.185184 100.877088
21.215714 92.116636 93.494523 95.470651 95.827849 98.137593 101.998721
21.357143 92.724932 94.301155 96.250709 96.634088 99.011316 102.811094
21.498571 93.321351 95.036340 97.052376 97.456139 99.979818 103.828617
21.640000 94.084041 95.784286 97.825680 98.276452 100.988266 104.928054
21.767500 94.753599 96.419284 98.590998 99.024814 101.881364 105.914901
21.895000 95.386200 97.137068 99.317864 99.759070 102.706054 106.509008
22.022500 95.956083 97.787361 100.049995 100.465340 103.382679 107.072099
22.150000 96.566061 98.494319 100.733102 101.192103 104.235782 107.684755
22.272500 97.231819 99.137346 101.394648 101.922077 105.061973 108.411941
22.395000 97.665806 99.787507 102.118347 102.610846 105.845908 109.148533
22.517500 98.408306 100.445251 102.802455 103.340841 106.548342 110.021742
22.640000 99.035384 101.175984 103.596496 104.054509 107.221174 110.478947
22.765000 99.434794 101.948105 104.419551 104.874442 108.039618 111.253952
22.890000 100.169829 102.658402 105.285869 105.706716 109.303724 111.860300
23.015000 100.938963 103.373988 106.148236 106.502137 110.051097 112.559150
23.140000 101.599116 104.244970 107.223206 107.395156 110.961558 113.306775
23.265000 102.331228 104.941454 108.172603 108.274711 111.857965 114.018734
23.390000 102.880486 105.760217 109.173839 109.160686 112.555652 114.648034
23.515000 103.643200 106.600576 110.342550 110.096722 113.343796 115.548701
23.640000 104.197110 107.654931 111.504707 111.071920 114.217714 116.225799
23.765000 104.946449 108.547425 112.576104 112.014113 115.089610 116.929053
23.890000 105.579015 109.426897 113.606423 112.950798 115.914936 117.612650
24.015000 106.302116 110.848337 114.543995 114.028101 116.830782 118.585134
24.140000 107.393396 112.443334 115.687856 115.095314 117.685756 119.372254
24.265000 108.888958 114.103661 116.841618 116.220387 118.544061 120.122963
24.390000 110.279664 115.459637 117.872995 117.407111 119.500482 121.006597
24.515000 112.522630 117.063309 118.969866 118.612328 120.348166 121.790505
24.640000 116.651820 118.472870 119.953882 119.850863 121.239803 122.606627
24.765000 117.462168 119.317687 120.719592 120.661675 122.026352 123.392523
24.890000 118.312111 120.115435 121.475477 121.420572 122.801322 124.063382
25.015000 119.322905 120.891164 122.201044 122.159415 123.478410 124.612870
25.140000 120.331474 121.705654 122.912279 122.899621 124.165171 125.224410
25.240000 120.932736 122.263303 123.500236 123.474202 124.711025 125.814504
25.340000 121.620562 122.908142 124.128818 124.072231 125.261035 126.346543
25.465000 122.476148 123.654874 124.905408 124.901051 126.106431 127.278082
25.590000 123.562482 124.511857 125.737554 125.754445 126.943858 128.295960
25.715000 124.312673 125.383894 126.540493 126.559416 127.715843 129.050339
25.840000 125.171306 126.188010 127.312789 127.369628 128.480277 129.836127
25.965000 125.848782 126.843163 128.066969 128.090510 129.334129 130.597301
26.090000 126.457596 127.527760 128.783848 128.789984 130.038978 131.349178
26.215000 127.146682 128.204710 129.465612 129.498111 130.749811 132.096321
26.340000 127.756672 128.898096 130.185080 130.193109 131.493375 132.824539
26.465000 128.303615 129.593897 130.932186 130.909453 132.200881 133.644154
26.590000 128.897454 130.238467 131.607498 131.603583 132.895197 134.394864
26.715000 129.431311 130.852612 132.257953 132.248735 133.591730 135.077797
26.840000 130.065613 131.502089 132.923341 132.895600 134.220255 135.678951
26.965000 130.791288 132.149526 133.586318 133.549081 134.952763 136.370437
27.090000 131.284792 132.713653 134.217675 134.180207 135.629906 137.088014
27.215000 131.858217 133.350773 134.797330 134.809200 136.349182 137.744949
27.340000 132.403242 133.909385 135.364758 135.385634 137.020480 138.467935
27.482857 133.046149 134.551114 136.006595 136.015656 137.588430 139.133291
27.625714 133.584255 135.128984 136.634810 136.614678 138.158478 139.771074
27.768571 134.061114 135.696869 137.211685 137.212566 138.742159 140.404553
27.911429 134.632900 136.221332 137.804894 137.802015 139.298982 141.089120
28.054286 135.274989 136.829719 138.363928 138.399570 139.887640 141.703733
28.197143 136.085869 137.433780 139.015514 139.010567 140.460296 142.320417
28.340000 136.758354 137.965050 139.608492 139.582413 141.034118 143.181828
28.465000 137.238490 138.405377 140.108923 140.091392 141.561904 143.631688
28.590000 137.552651 138.907930 140.611132 140.594712 142.125284 144.151895
28.715000 137.989652 139.329395 141.124671 141.102288 142.652634 144.618561
28.840000 138.520774 139.882116 141.619989 141.622211 143.221338 145.281198
28.965000 138.958230 140.347270 142.099241 142.153696 143.879049 145.852741
29.090000 139.500996 140.857857 142.591106 142.671589 144.397660 146.521130
29.215000 139.826953 141.369975 143.152327 143.202454 144.995510 147.165498
29.340000 140.312408 141.832746 143.636464 143.724574 145.524967 147.827031
29.465000 140.748244 142.407135 144.183338 144.274884 146.138916 148.379781
29.590000 141.187149 142.920695 144.721797 144.819223 146.761866 149.120353
29.715000 141.642527 143.386107 145.252406 145.377553 147.362419 149.904199
29.840000 142.079121 143.961695 145.826497 145.920781 147.960246 150.577547
29.965000 142.455190 144.444193 146.325289 146.459826 148.555736 151.154059
30.090000 142.882569 144.963171 146.847973 146.980007 149.126058 151.701234
30.215000 143.312727 145.370205 147.383309 147.491179 149.710421 152.339925
30.340000 143.737128 145.833438 147.875314 147.996473 150.212545 152.745112
30.482857 144.248443 146.352192 148.451142 148.564493 150.779023 153.345187
30.625714 144.838918 146.878909 149.036944 149.144603 151.422177 153.974383
30.768571 145.318720 147.404236 149.615944 149.709284 152.017996 154.418108
30.911429 145.775898 148.019972 150.241940 150.282489 152.630693 154.959095
31.054286 146.208778 148.561652 150.827383 150.865028 153.263178 155.557094
31.197143 146.693938 149.109222 151.429456 151.439623 153.882022 156.115132
31.340000 147.133381 149.685781 152.076825 152.015805 154.468649 156.711712
31.482857 147.667780 150.234424 152.660076 152.601725 155.038503 157.299439
31.625714 148.055852 150.790649 153.220622 153.190523 155.650684 157.879567
31.768571 148.567632 151.424742 153.780435 153.754288 156.200456 158.451168
31.911429 149.107507 151.992745 154.385474 154.333780 156.758342 158.950771
32.054286 149.703697 152.556745 154.951778 154.910233 157.379188 159.707620
32.197143 150.087661 153.089564 155.506429 155.479055 158.002069 160.244107
32.340000 150.569966 153.639624 156.042049 156.051843 158.686561 160.982910
32.482857 151.083753 154.221564 156.625299 156.625390 159.180998 161.636452
32.625714 151.534752 154.781074 157.184736 157.202471 159.769668 162.360459
32.768571 151.999509 155.309993 157.771545 157.779039 160.318641 163.065871
32.911429 152.450118 155.858941 158.366173 158.346478 160.809535 163.667966
33.054286 153.100927 156.476734 158.960351 158.932902 161.403345 164.255339
33.197143 153.628953 157.060448 159.482614 159.511387 161.976164 164.896007
33.340000 154.019990 157.671741 160.015864 160.075750 162.492587 165.513087
33.465000 154.599028 158.195729 160.518826 160.592918 163.009311 166.321941
33.590000 155.147566 158.711806 161.041813 161.122730 163.509077 167.003520
33.715000 155.634286 159.219183 161.611469 161.651089 164.045051 167.589262
33.840000 156.044364 159.808039 162.177939 162.162732 164.548865 168.174247
33.965000 156.598976 160.321797 162.702915 162.689097 165.067749 168.580202
34.090000 157.088652 160.811134 163.223881 163.231609 165.564438 168.971507
34.215000 157.508122 161.298237 163.757157 163.761314 166.155923 169.545021
34.340000 157.987190 161.818103 164.286971 164.277739 166.653980 170.071605
34.482857 158.517630 162.468546 164.880230 164.858778 167.228665 170.668229
34.625714 159.110936 162.977671 165.453490 165.439238 167.900367 171.534143
34.768571 159.639366 163.508671 166.006089 166.040457 168.536620 172.415995
34.911429 160.444098 164.130983 166.614929 166.633349 169.220093 172.964125
35.054286 161.257673 164.674382 167.119725 167.238164 169.796554 173.994162
35.197143 162.032393 165.265111 167.640923 167.837942 170.421927 174.736145
35.340000 162.630798 165.821952 168.251487 168.434277 171.104984 175.352559
35.470000 163.176749 166.359007 168.810030 168.990348 171.908997 175.904829
35.600000 163.758445 166.838839 169.340421 169.561489 172.646945 176.655625
35.730000 164.700865 167.354123 169.832778 170.126222 173.303482 177.312592
35.860000 165.160693 167.896831 170.355100 170.709274 173.899848 177.858674
35.990000 165.671571 168.531217 170.929826 171.306413 174.587183 178.376875
36.115000 166.147761 169.070804 171.512057 171.914457 175.155950 178.799057
36.240000 166.746586 169.638382 172.098035 172.510186 175.826772 179.352295
36.365000 167.325695 170.253392 172.705662 173.142538 176.494680 179.839548
