depth(m) lower_95(kyr) lower_68(kyr) median(kyr) mean(kyr) upper_68(kyr) upper_95(kyr)
0.910000 7.312077 8.271285 9.205273 9.194300 10.108240 10.967045
1.050000 8.198944 9.277467 10.392415 10.606459 11.796205 14.401058
1.190000 9.191880 10.528417 11.990105 12.226385 13.844966 16.482297
1.330000 10.086691 11.879759 13.621053 13.725407 15.675669 17.879647
1.470000 11.296229 13.299212 15.088849 15.121627 16.923611 19.078798
1.610000 12.576830 14.692836 16.513006 16.431428 18.052785 19.984201
1.743333 13.464903 15.491207 17.298447 17.273011 18.893592 20.919609
1.876667 14.252175 16.218177 18.081307 18.059026 19.834040 21.877768
2.010000 15.077380 16.882105 18.864133 18.822443 20.629766 23.011878
2.143333 15.875687 17.518826 19.588835 19.549193 21.406426 23.642635
2.276667 16.518509 18.214637 20.325899 20.266677 22.133282 24.441270
2.410000 17.192284 18.812097 21.013112 20.954102 22.839848 25.185100
2.550000 17.821503 19.537855 21.695812 21.684203 23.644392 26.224959
2.690000 18.522779 20.274786 22.451940 22.390955 24.312406 26.920881
2.830000 19.157300 20.932571 23.184337 23.118173 25.038238 27.708071
2.970000 19.820600 21.640474 23.899215 23.854106 25.830671 28.369800
3.110000 20.369123 22.358847 24.607385 24.560754 26.541414 29.025163
3.243333 20.880516 22.975758 25.234914 25.249934 27.315684 29.781060
3.376667 21.658864 23.663016 25.935696 25.950685 28.032665 30.467427
3.510000 22.291123 24.423332 26.626484 26.651199 28.764036 31.307671
3.643333 22.820852 25.117049 27.333723 27.352325 29.448302 31.790844
3.776667 23.539054 25.905968 28.029470 28.032669 30.115791 32.646219
3.910000 24.206570 26.647128 28.677036 28.731398 30.831621 33.373233
4.046364 24.902099 27.320239 29.430002 29.412453 31.589528 34.109396
4.182727 25.543221 27.982317 30.058450 30.094957 32.343759 34.920824
4.319091 26.141950 28.566125 30.736006 30.768574 33.000290 35.675041
4.455455 26.765062 29.219513 31.437754 31.454610 33.803137 36.527732
4.591818 27.420878 29.840497 32.095431 32.141767 34.534717 37.168735
4.728182 27.925197 30.462992 32.748497 32.814588 35.195487 37.919049
4.864545 28.557604 31.123981 33.378968 33.482669 35.922523 38.762861
5.000909 29.161859 31.685712 34.047333 34.150022 36.659971 39.376798
5.137273 29.666896 32.380031 34.681272 34.817619 37.335405 40.109072
5.273636 30.425341 32.988712 35.337550 35.485128 38.078249 40.827450
5.410000 31.018284 33.677484 36.020130 36.157221 38.783138 41.631982
5.550000 31.632971 34.328205 36.735156 36.854361 39.491432 42.460236
5.690000 32.253950 35.054894 37.411881 37.551895 40.258159 43.203044
5.830000 32.883249 35.612190 38.063321 38.255709 41.073601 44.257407
5.970000 33.564915 36.297242 38.756638 38.961752 41.829947 45.239570
6.110000 34.192763 36.988443 39.452275 39.684993 42.635642 46.030366
6.210000 34.684099 37.446402 39.950407 40.216856 43.368049 46.804377
6.310000 35.138313 37.958690 40.438955 40.750219 43.899698 47.417351
6.430000 35.790107 38.581317 41.083463 41.400374 44.655204 48.221575
6.550000 36.357755 39.280187 41.695168 42.032690 45.342420 48.928038
6.670000 36.975937 39.837314 42.269567 42.654729 46.086714 49.625264
6.790000 37.538084 40.442057 42.831823 43.285065 46.683509 50.122069
6.910000 38.316914 41.064475 43.541787 43.974412 47.377991 50.741589
7.010000 38.830967 41.569406 44.071517 44.527445 47.945756 51.314634
7.110000 39.274639 42.070480 44.618199 45.066945 48.563271 51.881576
7.235000 39.887090 42.676448 45.298050 45.735401 49.191408 52.768435
7.360000 40.630404 43.303681 46.101975 46.429291 49.836189 53.349059
7.485000 41.315101 43.932548 46.831155 47.121705 50.409982 53.952479
7.610000 42.021305 44.595008 47.573628 47.807057 51.094807 54.835342
7.710000 42.682218 45.128466 48.120166 48.365905 51.800835 55.206410
7.810000 43.306370 45.639641 48.705887 48.938302 52.355865 55.704109
7.930000 44.051997 46.204652 49.449063 49.632082 53.085043 56.404883
8.050000 44.853066 46.828292 50.143887 50.323382 53.749205 57.221319
8.170000 45.422326 47.434301 50.889201 51.016582 54.447387 58.048452
8.290000 46.084694 48.081520 51.667083 51.714825 55.110332 58.814771
8.410000 46.716252 48.755922 52.494144 52.434316 55.841617 59.276751
8.510000 47.160304 49.310940 53.024301 53.021973 56.401422 59.890780
8.610000 47.826468 49.952718 53.642320 53.625400 57.029013 60.554272
8.750000 48.600665 50.801829 54.643439 54.512460 57.883005 61.248825
8.890000 49.477542 51.752119 55.446611 55.439351 58.779046 62.059165
9.030000 50.337620 52.769231 56.317270 56.361492 59.581617 62.836358
9.170000 51.321195 53.863273 57.330810 57.337176 60.541523 63.636393
9.310000 52.243657 54.996504 58.359000 58.309180 61.426378 64.669651
9.443333 53.106753 56.003294 59.432649 59.258941 62.336659 65.508571
9.576667 53.857640 57.037607 60.286673 60.234160 63.400629 66.406714
9.710000 54.767415 58.053260 61.308067 61.244952 64.423994 67.417547
9.843333 55.810014 59.129976 62.407605 62.252567 65.498426 68.215193
9.976667 56.837474 60.128516 63.310545 63.253795 66.504439 69.371057
10.110000 57.710627 61.219447 64.314016 64.269980 67.508902 70.512820
10.250000 58.816633 62.302693 65.458156 65.405753 68.599433 71.498691
10.390000 59.822111 63.374242 66.639905 66.543043 69.661027 72.512555
10.530000 61.075391 64.623063 67.844156 67.727893 70.834412 73.575572
10.670000 62.106669 65.971319 69.024424 68.963821 72.105923 75.074169
10.810000 63.451873 67.153706 70.207002 70.186002 73.262711 76.149266
10.943333 64.734218 68.692074 71.818264 71.913635 75.276898 78.749883
11.076667 66.398138 70.228702 73.749773 73.820243 77.285134 81.134620
11.210000 68.001587 72.071891 75.786370 75.816453 79.330820 83.589274
11.343333 69.716074 73.892842 78.131616 77.886247 81.089062 86.991822
11.476667 71.899833 75.899849 80.150338 79.882899 82.812735 90.677209
11.610000 73.511179 78.073857 81.935669 81.598840 84.180114 91.990955
11.743333 74.878536 79.391519 83.127057 82.878461 85.574204 92.861238
11.876667 75.734333 80.581535 84.192575 84.109309 87.032510 94.305120
12.010000 76.740840 81.923394 85.435171 85.442716 88.592888 95.942927
12.143333 77.592318 83.254231 86.698967 86.694931 89.855518 96.820876
12.276667 78.577157 84.549084 87.866901 87.941643 91.152772 98.450273
12.410000 79.726594 85.814732 89.129680 89.218731 92.636812 100.045476
12.550000 81.141064 86.902053 90.371523 90.471480 93.868934 101.139917
12.690000 82.111655 88.081116 91.563464 91.715577 95.197193 102.293745
12.830000 83.216798 89.240099 92.657914 92.946500 96.719210 103.780214
12.970000 84.450774 90.571843 93.855145 94.126242 97.955525 104.599443
13.110000 85.538469 91.885359 95.046890 95.327970 99.125076 105.523315
13.243333 87.356103 92.887629 96.288589 96.488727 100.391060 106.366967
13.376667 88.801675 93.955702 97.494009 97.707588 101.687763 107.224532
13.510000 90.357112 94.933420 98.773399 98.834114 102.863593 108.469384
13.643333 92.075190 96.107791 99.976350 100.014491 104.019191 109.116607
13.776667 93.393141 97.344863 101.223939 101.165283 105.073851 110.237736
13.910000 94.897702 98.376798 102.209693 102.303816 106.068230 110.946441
14.050000 95.998113 99.618604 103.411842 103.523722 107.389845 111.617264
14.190000 97.051005 100.987662 104.736270 104.735954 108.542742 112.959874
14.330000 98.114111 102.448128 106.028677 106.026431 109.897741 113.906942
14.470000 99.427710 103.732675 107.326678 107.278091 111.001541 115.219041
14.610000 100.682493 105.191281 108.574904 108.542268 112.326140 115.917072
14.746364 101.973484 106.451741 109.856936 109.782430 113.428071 116.776542
14.882727 103.723014 107.744684 110.977790 111.021852 114.603608 117.929431
15.019091 104.920845 108.988873 112.348208 112.229752 115.655505 118.803640
15.155455 106.232372 110.380800 113.596127 113.470052 116.621096 119.721692
15.291818 108.259781 111.603074 114.847462 114.723127 117.942971 120.684447
15.428182 109.565999 113.009710 115.948732 115.976223 119.307552 121.740795
15.564545 111.234388 114.301620 117.162601 117.229444 120.480444 122.733629
15.700909 112.289846 115.566940 118.453310 118.477355 121.651540 123.768232
15.837273 114.051283 116.896703 119.757062 119.729050 122.774159 125.022926
15.973636 115.697612 118.375353 121.080680 121.036964 123.936094 125.965105
16.110000 117.265017 119.688879 122.380931 122.315562 125.185617 127.073164
16.243333 118.467750 121.127667 123.640622 123.551486 126.254354 128.410530
16.376667 119.829933 122.418278 124.869487 124.788800 127.274034 129.358325
16.510000 121.230767 123.733884 126.071551 125.992265 128.422415 130.566822
16.643333 122.655542 125.264217 127.339731 127.318076 129.602142 131.546547
16.776667 124.284844 126.621515 128.611618 128.565526 130.778073 132.881537
16.910000 126.155482 127.928810 129.904802 129.843188 131.914579 133.899064
17.050000 127.450329 129.058020 131.100947 131.141346 133.166229 135.528421
17.190000 128.463469 130.201032 132.274118 132.410940 134.480449 136.995316
17.330000 129.682455 131.439055 133.473032 133.666129 135.848537 138.451754
17.470000 130.800857 132.633915 134.751647 134.908301 137.026193 140.257851
17.610000 132.014363 133.728414 135.930026 136.120224 138.130347 141.425208
17.740000 132.903784 134.754650 137.014361 137.200531 139.339776 143.320436
17.870000 133.777641 135.691691 138.102386 138.283254 140.367335 144.616234
18.000000 134.568453 136.804098 139.162756 139.321588 141.612785 145.772266
18.130000 135.373354 137.748111 140.208931 140.367045 142.756952 146.586699
18.260000 136.177448 138.734128 141.278154 141.392527 143.811830 147.566864
18.335000 136.593534 139.263878 141.867540 141.974625 144.395711 148.213426
18.410000 137.155209 139.865755 142.498386 142.554167 144.922043 148.871303
18.545000 138.085308 140.730826 143.383765 143.496667 146.091668 149.755797
18.680000 138.794396 141.646019 144.385036 144.440346 147.086218 150.712065
18.815000 139.750486 142.469933 145.366469 145.387583 148.284167 151.506205
18.950000 140.671562 143.299392 146.295327 146.312704 149.176639 152.517973
19.085000 141.473367 144.213523 147.244890 147.253860 150.117299 153.707080
19.220000 142.282581 145.095270 148.153745 148.190067 151.130352 154.760017
19.355000 143.221638 145.902214 149.039509 149.109237 152.060652 155.794085
19.490000 144.109507 146.722679 150.068204 150.085139 153.213753 156.745506
19.625000 145.091075 147.643335 150.986237 151.014485 154.080963 158.068535
19.760000 146.102343 148.449634 151.872211 151.937426 155.083158 158.852484
19.893333 146.785941 149.324278 152.736942 152.850298 156.078514 159.483186
20.026667 147.679716 150.139997 153.663117 153.765166 157.123616 160.491949
20.160000 148.624856 150.977335 154.645981 154.680815 158.146573 161.780671
20.293333 149.487436 152.021048 155.514938 155.598401 159.082529 162.505177
20.426667 150.473430 153.126559 156.423857 156.533041 159.960289 163.284092
20.560000 151.340260 154.003504 157.340669 157.477238 160.887446 164.144741
20.700000 152.249862 155.081705 158.328419 158.463861 161.927269 165.379128
20.840000 153.256661 156.181996 159.318644 159.444414 162.817935 166.370429
20.980000 154.292406 157.239997 160.257381 160.435594 163.681513 167.650762
21.120000 155.549387 158.337695 161.310307 161.465950 164.723030 168.536756
21.260000 156.636319 159.336362 162.347852 162.486883 165.644814 169.466884
21.393333 157.755362 160.539023 163.440592 163.594709 166.650007 170.547586
21.526667 158.820831 161.800981 164.566204 164.676680 167.530403 171.349983
21.660000 159.690464 162.956290 165.647993 165.743128 168.505506 172.363643
21.793333 160.842309 163.945730 166.640561 166.816934 169.555483 173.425843
21.926667 162.114659 165.032916 167.856651 167.936981 170.606515 174.973662
22.060000 163.289574 166.228538 169.041704 169.084075 171.699647 176.049088
22.200000 164.314569 167.297308 170.174761 170.184061 172.754756 177.135756
22.340000 165.520730 168.567596 171.155946 171.252780 173.818038 178.270074
22.480000 166.483725 169.752560 172.182264 172.314782 174.755298 179.171748
22.620000 167.407246 170.845316 173.187344 173.396278 175.816031 180.572116
22.760000 168.740678 172.076524 174.207539 174.471355 176.866189 181.499118
22.893333 169.589737 172.938329 175.217635 175.487492 177.986636 182.449565
23.026667 170.630297 173.822937 176.272970 176.485727 179.338214 183.419930
23.160000 171.395506 174.696612 177.328058 177.482364 180.440335 184.189196
23.293333 172.479110 175.519157 178.302568 178.461572 181.554419 185.017806
23.426667 173.311574 176.346264 179.332061 179.441712 182.726421 185.729876
23.560000 174.476125 177.305796 180.420675 180.455043 183.629707 186.621452
23.700000 175.507991 178.200729 181.425962 181.519800 184.705622 187.544946
23.840000 176.570862 179.453213 182.734867 182.623472 185.703173 188.285700
23.980000 177.666832 180.573535 184.043131 183.787038 186.745094 189.132306
24.120000 178.615888 181.617103 185.210568 184.884382 187.760388 189.903928
24.260000 179.382675 182.868589 186.359472 185.989445 188.763689 190.872806
24.393333 180.385583 184.031320 187.424592 187.072010 189.776610 192.089811
24.526667 181.329392 185.396929 188.604025 188.194266 190.861532 193.435925
24.660000 182.219521 186.698986 189.735179 189.336855 191.912067 195.009073
24.793333 183.211685 187.888309 190.917277 190.529260 192.957110 196.471545
24.926667 184.154950 189.156962 192.012912 191.700349 194.033005 198.097289
25.060000 185.332428 190.512897 193.054682 192.925545 195.291855 199.347014
25.202857 186.504764 191.515367 194.228096 194.206341 196.762435 201.539545
25.345714 187.863686 192.504323 195.350473 195.461138 198.412544 203.538858
25.488571 189.506446 193.542493 196.547044 196.700750 199.920893 205.071695
25.631429 191.001419 194.528705 197.697284 197.992070 201.682770 206.573234
25.774286 192.159444 195.515554 198.888118 199.252315 203.156550 207.947761
25.917143 193.730958 196.537499 200.019951 200.524022 204.656422 209.398370
26.060000 194.829824 197.530159 201.421932 201.779573 206.311318 210.235419
26.200000 195.909785 198.519951 202.552972 202.995788 207.708902 211.676074
26.340000 196.783848 199.713777 204.090498 204.295497 209.205841 212.881151
26.480000 197.753686 200.795971 205.223218 205.506550 210.444651 213.987277
26.620000 198.848429 201.938815 206.481440 206.747493 211.647325 215.088328
26.760000 200.116099 203.191117 207.789919 207.977498 212.896570 216.063355
26.903750 201.398165 204.470533 208.975781 209.232378 214.101196 217.133895
27.047500 202.497907 205.729820 210.326516 210.504689 215.585011 218.587148
27.191250 204.162831 207.213835 211.704577 211.813020 216.630104 219.669796
27.335000 205.318798 208.477826 212.954163 213.046265 217.756092 220.670699
27.478750 206.814706 209.810037 214.091303 214.310457 218.860572 221.789703
27.622500 208.294233 211.312311 215.424271 215.590375 220.053556 222.833812
27.766250 209.870346 212.554273 216.806692 216.908383 221.240887 223.748205
27.910000 210.926363 214.228650 218.267913 218.212681 222.317741 224.889307
28.053750 212.137239 215.560639 219.670751 219.505141 223.380018 225.883703
28.197500 213.852620 216.962686 221.048080 220.789920 224.544148 226.762231
28.341250 215.000418 218.510029 222.392020 222.049330 225.527652 227.824067
28.485000 216.278074 219.799281 223.749798 223.400555 226.709671 228.835251
28.628750 217.833614 221.284598 224.964020 224.717005 228.041253 230.040581
28.772500 219.300389 222.861373 226.286352 226.059306 229.245368 230.993613
28.916250 220.917848 224.262179 227.649043 227.364719 230.384928 232.044233
29.060000 222.450512 226.009997 228.940403 228.676019 231.497539 233.116918
29.200000 223.810910 227.447770 230.359649 230.014244 232.516305 234.196643
29.340000 225.304714 228.970319 231.761793 231.340081 233.627973 235.173914
29.480000 227.284886 230.741538 233.085945 232.726342 234.727334 236.032453
29.620000 229.178108 232.421783 234.449057 234.104059 235.820554 237.071776
29.760000 231.090856 234.068014 235.699805 235.441768 236.929727 238.139764
29.897500 232.800127 235.361250 236.764810 236.578377 237.876131 239.152263
30.035000 234.367942 236.495055 237.763304 237.657780 238.843066 240.159433
30.172500 236.031254 237.693005 238.784881 238.741094 239.857184 241.123039
30.310000 237.638163 238.870220 239.881628 239.881918 240.941330 242.088195
30.435000 238.776600 239.923981 240.940206 240.998066 242.096277 243.384610
30.560000 239.998870 241.079378 242.102904 242.199889 243.363311 244.806477
30.697500 241.186531 242.380284 243.747822 244.037717 245.516483 248.430783
30.835000 242.448712 243.785754 245.497736 245.814443 247.784001 250.923942
30.972500 243.659463 245.261429 247.333462 247.655836 249.911024 253.464566
31.110000 244.839084 246.796980 249.158639 249.408633 251.782425 255.930877
31.250000 246.131331 248.154696 250.843291 251.198646 253.814448 259.329504
31.390000 247.531489 249.609101 252.446860 252.915428 256.004285 262.106619
31.530000 248.619371 250.910200 254.070283 254.575408 258.012617 264.399225
31.670000 249.749919 252.392680 255.659331 256.304580 260.299766 266.113659
31.810000 250.876252 253.842418 257.239399 257.983227 262.532019 267.687736
31.943333 252.181745 255.263714 258.805787 259.560006 264.240046 269.025526
32.076667 253.427817 256.754295 260.419719 261.139228 265.831532 270.422512
32.210000 254.946028 258.333692 262.087286 262.743800 267.783879 271.836659
32.343333 256.091164 259.697615 263.797638 264.372965 269.548972 274.517807
32.476667 257.420617 261.302122 265.295770 265.960638 271.024226 276.883800
32.610000 258.993185 262.934956 266.820200 267.591448 272.650677 278.743805
32.750000 260.671689 264.864031 268.802491 269.620624 274.162878 282.531479
32.890000 262.415024 266.795878 270.815086 271.516342 275.622574 285.788983
33.030000 264.050206 268.850439 272.675439 273.345642 277.121567 287.982393
33.170000 266.007265 270.669107 274.504807 275.129232 278.488219 290.238961
33.310000 267.368141 272.384199 275.900532 276.769152 280.090569 292.380810
