depth(m) lower_95(kyr) lower_68(kyr) median(kyr) mean(kyr) upper_68(kyr) upper_95(kyr)
0.200000 0.026262 0.151247 0.486732 0.539331 0.929960 1.384136
0.300000 0.334579 0.535057 0.870072 0.923406 1.332896 1.781156
0.400000 0.654075 0.904851 1.254336 1.300283 1.723710 2.159593
0.500000 0.971257 1.267109 1.639914 1.670176 2.086169 2.550501
0.600000 1.277976 1.631085 2.014335 2.043699 2.477284 2.897743
0.700000 1.657833 1.978540 2.407620 2.416235 2.859730 3.247539
0.800000 2.007512 2.350199 2.779014 2.780872 3.218344 3.613422
0.900000 2.321310 2.711954 3.161051 3.153194 3.576928 3.969359
1.000000 2.650852 3.084412 3.509107 3.518070 3.964454 4.363661
1.100000 3.036922 3.473400 3.894336 3.888179 4.317093 4.709912
1.190000 3.369181 3.804914 4.233363 4.224592 4.659368 5.025432
1.280000 3.710102 4.150931 4.581510 4.563699 4.983750 5.343614
1.380000 4.107530 4.535780 4.946608 4.932454 5.318098 5.727981
1.480000 4.473524 4.936473 5.331395 5.311384 5.701655 6.081528
1.510000 4.585129 5.051381 5.452705 5.438035 5.825217 6.207967
1.580000 4.878484 5.327821 5.734934 5.720497 6.103955 6.451213
1.680000 5.286883 5.726209 6.126463 6.109260 6.494417 6.863901
1.780000 5.681255 6.119104 6.540048 6.516808 6.928073 7.290203
1.880000 6.063746 6.492523 6.912531 6.913326 7.323829 7.753394
1.980000 6.504600 6.888929 7.300029 7.312221 7.734744 8.209740
2.080000 6.867815 7.291030 7.683753 7.715730 8.173228 8.610294
2.180000 7.215509 7.646378 8.105653 8.126021 8.614102 9.080866
2.280000 7.623214 8.086741 8.539538 8.561315 9.040562 9.614319
2.380000 8.037029 8.538504 8.995810 9.008545 9.497940 10.071786
2.480000 8.453938 8.980053 9.452293 9.474212 9.971981 10.551375
2.580000 8.979381 9.464034 9.929584 9.962973 10.480710 11.092774
2.680000 9.470788 9.956249 10.437990 10.474335 11.021039 11.553018
2.770000 9.913473 10.428726 10.922330 10.947951 11.519249 11.968137
2.870000 10.448857 10.939705 11.446057 11.468712 12.026957 12.475868
2.970000 10.947967 11.427849 11.974424 11.971207 12.521017 12.973003
3.070000 11.472656 11.906950 12.455905 12.454855 12.978275 13.439620
3.170000 11.925197 12.382985 12.912330 12.907655 13.419424 13.880228
3.270000 12.380129 12.831716 13.390560 13.358960 13.880313 14.324076
3.300000 12.553382 12.997384 13.530573 13.499790 13.998455 14.443440
3.385000 12.956081 13.389049 13.885164 13.872688 14.363570 14.819299
3.470000 13.399783 13.772047 14.256675 14.243289 14.706783 15.120259
3.570000 13.832027 14.221368 14.687271 14.683655 15.139630 15.522015
3.670000 14.310577 14.693255 15.127137 15.141308 15.589896 15.986066
3.700000 14.456574 14.851844 15.288823 15.294825 15.735314 16.148158
3.770000 14.837659 15.270450 15.696368 15.690238 16.125957 16.560311
3.870000 15.321721 15.776462 16.232428 16.236714 16.714368 17.173835
3.970000 15.823892 16.262769 16.772646 16.790928 17.318587 17.806648
4.070000 16.255052 16.755069 17.287536 17.321223 17.923988 18.495375
4.180000 16.687042 17.210726 17.794332 17.850178 18.532239 19.138945
4.270000 17.026975 17.591912 18.205842 18.272250 18.992305 19.668711
4.370000 17.399356 17.998143 18.679643 18.741546 19.507796 20.265238
4.470000 17.740172 18.433275 19.150945 19.201010 20.007247 20.771833
4.510000 17.903347 18.608314 19.332813 19.392824 20.221511 21.045891
4.570000 18.141571 18.849459 19.645454 19.674077 20.525012 21.370397
4.670000 18.506602 19.246570 20.133648 20.130490 21.005579 21.888476
4.700000 18.619999 19.378103 20.263518 20.277924 21.158474 22.018760
4.770000 18.922431 19.675430 20.619539 20.592430 21.496424 22.273940
4.870000 19.361229 20.090179 21.106487 21.044523 21.950611 22.738115
4.970000 19.781042 20.491376 21.592802 21.511425 22.414502 23.258897
5.070000 20.198401 20.921888 22.071812 21.969029 22.940192 23.699962
5.170000 20.644866 21.378001 22.536231 22.463320 23.447381 24.289772
5.300000 21.112213 21.913390 23.170856 23.107632 24.200128 24.920575
5.370000 21.445100 22.293711 23.533968 23.468403 24.586832 25.322699
5.470000 21.872015 22.744972 24.064557 23.970943 25.076563 25.938955
5.570000 22.320920 23.239698 24.574269 24.491877 25.585868 26.462150
5.680000 22.751429 23.818137 25.216039 25.085751 26.189872 27.200118
5.770000 23.142347 24.299257 25.733812 25.593708 26.685734 27.789348
5.870000 23.596042 24.849066 26.315421 26.182813 27.316132 28.489430
5.900000 23.774928 25.010228 26.486394 26.365724 27.530778 28.656661
5.970000 24.147267 25.540519 26.954181 26.805002 27.967064 29.031472
6.070000 24.769513 26.230957 27.639551 27.525293 28.671153 29.802765
6.170000 25.394241 26.941412 28.360748 28.240449 29.405370 30.700850
6.270000 26.164740 27.685694 29.034520 28.970741 30.237777 31.430656
6.370000 26.700972 28.299150 29.751365 29.660007 30.941977 32.089475
6.470000 27.302728 28.994468 30.445797 30.372348 31.597595 32.924663
6.570000 27.807241 29.669039 31.190574 31.065528 32.364808 33.741300
6.670000 28.645559 30.325854 31.829806 31.755040 33.074931 34.725244
6.770000 29.414314 30.927478 32.431041 32.391302 33.745248 35.464930
6.870000 29.967758 31.529418 33.033137 33.037226 34.434524 36.151453
6.970000 30.641889 32.173895 33.708031 33.726213 35.168426 37.003615
7.070000 31.253270 32.826066 34.419526 34.439810 35.946757 37.902599
7.170000 31.925470 33.538830 35.183051 35.182306 36.836224 38.554556
7.270000 32.560843 34.239563 35.893439 35.927770 37.586238 39.493063
7.370000 33.184274 34.991040 36.615361 36.647557 38.256816 40.189966
7.470000 33.813555 35.669478 37.382217 37.390884 39.046571 41.022327
7.570000 34.372079 36.316238 38.110964 38.112238 39.864867 41.871219
7.670000 34.995019 36.988616 38.858373 38.824751 40.584902 42.654987
7.770000 35.505946 37.709559 39.582855 39.574833 41.402413 43.435570
7.870000 36.196805 38.388436 40.392995 40.373913 42.321957 44.197182
7.970000 36.901948 39.212212 41.210333 41.188012 43.174066 44.938647
8.070000 37.537495 40.033084 42.092534 42.031772 44.044409 45.807142
8.170000 38.119729 40.866448 42.984945 42.879717 44.996724 46.625502
8.270000 39.096723 41.731522 43.955785 43.766316 45.894266 47.301057
8.370000 39.935965 42.636259 44.746568 44.637317 46.740570 48.099362
8.470000 40.759980 43.412055 45.664342 45.477402 47.462025 48.881356
8.570000 41.719517 44.299719 46.556773 46.317145 48.312551 49.721249
8.670000 42.912252 45.309932 47.485538 47.209855 49.039338 50.360521
8.770000 44.110933 46.267241 48.368229 48.101635 49.753164 51.218631
8.870000 44.951949 47.400575 49.336793 49.073925 50.642229 52.320109
8.970000 46.072900 48.480469 50.252213 50.111307 51.633032 53.400186
9.070000 47.096378 49.435159 51.126116 51.081016 52.715948 54.564090
9.170000 48.127815 50.387537 52.015055 52.026991 53.742050 55.394124
9.270000 49.290864 51.337226 52.901706 52.985456 54.785934 56.487002
9.370000 50.346401 52.113334 53.870701 53.915822 55.695762 57.525568
9.470000 51.143760 53.041528 54.770456 54.788642 56.584714 58.350025
9.570000 52.040898 53.987478 55.706613 55.701265 57.515013 59.015669
9.670000 53.173114 54.917555 56.714274 56.709929 58.509634 60.097781
9.770000 54.173234 55.989469 57.894564 57.800157 59.581708 61.142754
9.870000 55.415347 57.153752 59.119411 58.960894 60.667580 62.262715
9.970000 56.662549 58.583683 60.548744 60.420969 62.052464 63.841482
10.070000 58.167798 60.278800 61.921340 61.852191 63.431462 65.134822
10.180000 60.183496 61.859968 63.262487 63.266757 64.833964 66.207423
10.270000 61.276483 62.736299 64.275319 64.227162 65.730265 67.009222
10.370000 62.231710 63.719604 65.268872 65.232329 66.677917 67.947655
10.470000 63.380376 64.861728 66.269392 66.234303 67.548977 68.829411
10.570000 64.510760 65.931308 67.277272 67.222765 68.493875 69.734436
10.670000 65.386017 67.041448 68.383427 68.305514 69.546680 70.871614
10.770000 66.644131 68.240549 69.591150 69.606341 70.952967 72.501430
10.870000 67.842487 69.286894 70.688771 70.701830 72.229982 73.626839
10.970000 69.031993 70.577950 71.995168 72.029980 73.618102 75.098602
11.070000 71.255447 72.506125 74.120151 74.134760 75.686879 77.034361
11.170000 72.734507 74.166917 75.630981 75.598782 77.095069 78.276487
11.270000 74.323365 75.607050 76.915299 76.910166 78.239737 79.197880
11.370000 75.459835 76.836946 78.110249 78.015154 79.243449 80.096662
11.470000 76.709637 78.106309 79.162298 79.093543 80.170126 81.124460
11.570000 77.933443 79.161836 80.100850 80.084162 81.080498 82.014405
11.680000 79.327149 80.230220 81.178860 81.169537 82.118556 83.076532
11.770000 80.211427 81.125853 82.138207 82.109025 83.068398 83.902444
11.870000 81.151142 82.156706 83.136318 83.144156 84.163904 84.953144
11.970000 82.280620 83.297026 84.246666 84.222595 85.145210 85.957664
12.070000 83.471534 84.596919 85.446470 85.470164 86.367807 87.428403
12.170000 84.966263 85.836880 86.721067 86.781560 87.679393 88.862490
12.270000 86.278007 87.141379 88.008012 88.085639 89.058835 90.263511
12.370000 87.409333 88.276147 89.267793 89.341168 90.407385 91.654560
12.470000 88.450096 89.466271 90.587172 90.641727 91.804483 93.087943
12.570000 89.440224 90.750923 92.003851 92.033414 93.344762 94.926988
12.670000 90.810351 91.992812 93.360947 93.462401 94.925561 96.838061
12.770000 91.979155 93.217089 94.733088 94.828413 96.472410 98.163999
12.870000 92.950015 94.391847 96.027709 96.115059 97.868223 99.614121
12.970000 94.117987 95.598185 97.331162 97.381759 99.168334 101.185908
13.070000 94.912933 96.551147 98.562542 98.546884 100.425701 102.569888
13.170000 95.871279 97.620974 99.689463 99.669089 101.622930 103.843232
13.270000 96.690768 98.735566 100.757363 100.765102 102.772867 105.120623
13.370000 97.437507 99.765453 101.859988 101.846044 103.802799 106.288017
13.470000 98.592756 100.912200 102.912248 102.946391 104.988097 107.487369
13.570000 99.524331 102.125552 103.988582 104.016891 105.992749 108.558777
13.670000 100.780246 103.295641 105.080017 105.116442 107.083553 109.584308
13.770000 102.046929 104.342742 106.284025 106.320763 108.276579 110.667438
13.910000 103.867596 106.028090 107.853868 107.901486 109.874617 112.086310
13.990000 104.795445 106.887639 108.808860 108.847232 110.887126 113.022466
14.090000 106.091370 108.244858 109.990571 110.051946 111.961307 113.958794
14.190000 107.720217 109.593886 111.304089 111.303669 113.132989 114.740234
14.290000 109.194071 111.059383 112.656450 112.625194 114.248170 115.877561
14.390000 110.744552 112.690244 114.315991 114.165411 115.649235 117.056756
14.490000 113.258055 114.760390 116.052590 116.018541 117.261581 118.603251
14.600000 115.525632 116.695276 117.865592 117.892025 119.085249 120.267308
14.690000 117.073335 118.080704 119.205720 119.195319 120.337060 121.393110
14.790000 118.471762 119.405653 120.439455 120.441918 121.487475 122.566386
14.890000 119.635005 120.579250 121.546868 121.571516 122.663718 123.602151
14.990000 120.869218 121.643969 122.581386 122.639401 123.662099 124.754095
15.090000 121.770210 122.686039 123.641040 123.673072 124.675386 125.760363
15.190000 122.882942 123.742691 124.790403 124.809398 125.876975 126.921696
15.290000 124.064569 125.081887 126.093788 126.140788 127.206080 128.315387
15.390000 125.761373 126.639565 127.804772 127.815674 128.962032 130.152703
15.490000 126.983077 128.188491 129.326556 129.415715 130.649361 132.111131
15.590000 128.535842 129.841828 131.162226 131.259549 132.687326 134.409427
15.690000 130.474704 131.832190 133.498108 133.613297 135.401997 137.564654
15.790000 132.069785 133.579572 135.269536 135.368918 137.146218 139.515942
15.890000 133.501644 135.198163 136.971075 137.032964 138.758601 140.829377
15.990000 135.009953 136.570651 138.326463 138.433184 140.227391 142.400777
16.100000 136.286325 137.931592 139.728753 139.857875 141.857780 143.824577
16.195000 137.422906 139.129856 140.949898 141.043082 143.037373 145.180760
16.290000 138.624763 140.218236 142.076810 142.192301 144.102681 146.358218
16.390000 139.707829 141.375353 143.363986 143.456881 145.460391 148.060042
16.490000 141.005021 142.651371 144.646244 144.730911 146.679109 149.519702
16.590000 142.136071 143.772537 145.868461 145.953140 148.001742 150.937960
16.690000 143.350941 144.932365 147.046502 147.223997 149.510211 152.375126
16.790000 144.418579 146.199164 148.312245 148.509421 150.820770 153.577564
16.890000 145.474152 147.384905 149.692500 149.780234 152.182462 154.915062
16.990000 146.486056 148.651826 150.989686 151.081214 153.430163 156.172190
17.090000 147.612980 149.928111 152.400098 152.392024 154.737103 157.387856
17.190000 148.873988 151.242521 153.727925 153.705458 156.144993 158.626141
17.290000 149.999192 152.596309 154.889203 154.992372 157.438458 160.022960
17.390000 151.598817 153.939728 156.190765 156.251152 158.664021 160.940982
17.490000 152.829337 155.324024 157.514696 157.518577 159.904655 161.913265
17.590000 153.939882 156.532326 158.724113 158.752945 161.062528 163.014359
17.690000 155.405698 157.861336 159.929445 159.963146 162.207404 164.159208
17.790000 156.703741 159.083660 161.216615 161.200760 163.387482 165.426909
17.890000 158.133621 160.359875 162.425767 162.452940 164.616258 166.508630
17.990000 159.648388 161.685863 163.706908 163.782454 165.904896 168.312721
18.090000 160.982102 163.042660 164.995990 165.119294 167.201868 169.858770
18.190000 162.370402 164.341828 166.353813 166.417170 168.446339 171.396230
18.290000 163.568278 165.638022 167.617362 167.747230 169.690670 173.273084
18.390000 164.842888 166.852266 168.906866 169.058517 171.038551 174.965071
18.490000 165.987366 168.119514 170.226811 170.390452 172.334995 176.719117
18.590000 167.434721 169.477287 171.547361 171.787591 173.911117 177.912681
18.690000 168.868463 170.839328 173.032376 173.246448 175.587433 179.101024
18.790000 169.906793 172.206710 174.400124 174.598797 177.122043 180.397362
18.890000 171.370143 173.685739 175.821984 176.004800 178.527163 181.723442
18.995000 172.280914 175.199599 177.346310 177.487155 179.975625 183.274224
19.100000 173.329606 176.565728 178.888992 178.914189 181.368464 184.271796
19.195000 174.653985 177.659933 180.154318 180.150413 182.535894 185.296329
19.290000 175.771595 178.809565 181.597906 181.442294 183.867455 186.198779
19.390000 177.425748 180.174980 183.130131 182.803054 185.314597 187.412463
19.490000 179.132686 181.614213 184.499708 184.176413 186.485933 188.473579
19.590000 180.447847 183.293179 185.778908 185.540256 187.754146 189.450953
19.690000 181.965444 185.013590 187.120734 186.925964 188.870482 190.398957
19.790000 183.564941 186.672085 188.456587 188.328438 190.123818 191.479329
19.890000 185.737126 188.241214 189.870597 189.746174 191.353112 192.829801
19.990000 187.575273 189.939481 191.459653 191.372178 192.923377 194.397012
20.090000 189.845621 191.527876 192.924550 192.915254 194.461048 195.821079
20.190000 190.974225 192.668041 194.126267 194.150734 195.618384 197.029899
20.290000 192.579446 193.959401 195.326120 195.370596 196.857324 198.141523
20.390000 193.993976 195.233621 196.605926 196.684477 198.130786 199.710310
20.490000 195.288962 196.521055 197.909106 197.973080 199.394442 201.224449
20.590000 196.236125 197.633626 199.043474 199.151025 200.721523 202.484752
20.690000 197.400909 198.726584 200.229357 200.294980 201.827054 203.574137
20.790000 198.499172 199.811105 201.368380 201.424222 203.064043 204.912865
20.890000 199.496431 200.859110 202.410712 202.535725 204.233892 206.030024
20.990000 200.642879 201.935435 203.645151 203.715711 205.499340 207.154952
21.090000 201.742378 203.146962 204.837266 204.907210 206.854302 208.321716
21.190000 202.750287 204.336514 206.100879 206.107703 207.983819 209.399264
21.290000 203.901062 205.527450 207.394493 207.314119 209.015671 210.310506
21.390000 205.142841 206.740378 208.646610 208.494009 210.147601 211.286439
21.490000 206.350886 208.072879 209.880485 209.675856 211.124273 212.251277
21.590000 207.575656 209.406051 211.081041 210.879263 212.224942 213.231404
21.690000 208.884409 210.692031 212.219233 212.026036 213.265280 214.219449
21.790000 210.105474 211.953232 213.246125 213.098667 214.259521 215.223453
21.890000 211.936067 213.156235 214.253586 214.177993 215.220789 216.150830
21.995000 213.229387 214.345062 215.371753 215.349646 216.371015 217.324771
22.100000 214.630634 215.611824 216.575241 216.599411 217.590610 218.645019
22.195000 215.942676 216.922432 217.868086 217.948455 218.990679 220.451787
22.290000 217.249913 218.246152 219.310677 219.395501 220.485736 222.087803
22.390000 218.539450 219.649604 220.847820 220.986144 222.367512 224.326063
22.490000 219.865441 221.028223 222.406361 222.566341 224.059526 226.229298
22.590000 221.029868 222.399669 223.929199 224.056586 225.710343 227.666118
22.690000 222.377372 223.817139 225.498669 225.560210 227.297896 229.060302
22.790000 223.657990 225.358861 227.068759 227.146998 228.950979 230.940277
22.890000 225.228385 226.872870 228.739808 228.738414 230.610438 232.162361
22.990000 226.687658 228.581859 230.476579 230.379761 232.175255 233.603936
23.090000 228.291678 230.398495 232.254550 232.053495 233.723472 234.884065
23.190000 229.959807 232.281762 233.982001 233.728327 235.154829 236.178890
23.290000 232.557321 234.396173 235.549942 235.430192 236.526545 237.530649
23.390000 234.223953 235.745655 236.798691 236.757505 237.780910 238.779597
23.490000 236.076610 237.036364 237.970864 237.980833 238.943053 239.851837
23.590000 237.106352 238.121070 239.040169 239.056381 239.974737 240.788452
23.690000 238.302378 239.216036 240.125339 240.123035 241.031580 241.842123
23.790000 239.463368 240.378383 241.279622 241.269257 242.168348 242.973381
23.890000 240.656212 241.516188 242.418484 242.417073 243.239324 244.136357
23.990000 241.694743 242.545810 243.412610 243.464270 244.390719 245.490245
24.090000 242.655605 243.551904 244.419731 244.473049 245.417240 246.602340
24.190000 243.588254 244.526441 245.451908 245.533107 246.544887 248.064426
24.290000 244.523716 245.483543 246.514049 246.614747 247.705485 249.263260
24.390000 245.332481 246.392267 247.528046 247.702375 249.022868 250.653688
24.490000 246.273981 247.329178 248.693661 248.786829 250.206938 251.906097
24.590000 247.122889 248.264370 249.709953 249.817618 251.359361 253.169683
24.690000 247.975943 249.120874 250.719764 250.822550 252.470741 254.288781
24.790000 248.855070 250.031742 251.733225 251.821759 253.566470 255.571752
24.890000 249.700683 251.067591 252.708752 252.838419 254.647280 256.718921
24.995000 250.547451 252.074044 253.794487 253.908929 255.750388 257.936700
25.100000 251.470052 253.014027 254.923487 254.974842 256.886509 259.013496
25.195000 252.277964 253.904111 255.887740 255.969139 257.939471 260.211892
25.290000 253.148304 254.877659 256.964267 256.979852 259.058327 261.208919
25.390000 254.111706 255.848395 257.986049 258.033905 260.179743 262.119553
25.490000 255.057617 256.872187 259.049669 259.103922 261.293859 263.427307
25.590000 256.043885 257.939681 260.117165 260.166264 262.348773 264.458589
25.690000 257.019187 259.014731 261.213955 261.245686 263.476241 265.490886
25.790000 257.989339 260.148912 262.229008 262.327960 264.617813 266.666871
25.890000 258.793785 261.237179 263.310060 263.412301 265.867609 267.904727
25.990000 259.774968 262.328642 264.334899 264.496763 266.961056 268.986118
26.090000 260.992005 263.442986 265.384205 265.583833 268.046531 270.269679
26.190000 262.151140 264.637033 266.480704 266.645610 268.989210 271.129457
26.290000 263.218081 265.862271 267.553572 267.711880 269.866184 271.923791
26.390000 264.530722 267.043070 268.778448 268.838967 270.871635 272.952628
26.490000 265.561845 268.273325 269.898924 269.958297 271.884841 274.066217
26.590000 266.740342 269.428205 271.111999 271.144885 272.987974 274.920622
26.690000 267.972119 270.639513 272.305229 272.345516 274.184600 275.943049
26.790000 269.319491 271.808556 273.573688 273.534497 275.356235 277.021602
26.890000 270.897138 273.027075 274.817617 274.741627 276.509267 278.164084
26.990000 272.168926 274.324700 276.090984 276.027770 277.811883 279.172753
27.090000 274.015282 275.761402 277.361898 277.349470 278.942704 280.145563
