depth(m) lower_95(kyr) lower_68(kyr) median(kyr) mean(kyr) upper_68(kyr) upper_95(kyr)
0.140000 0.034461 0.243236 0.682629 0.764470 1.269014 1.970783
0.190000 1.814260 2.702359 3.951981 4.343892 6.305764 8.404571
0.240000 4.075162 5.714397 7.508656 7.571229 9.478898 11.133725
0.290000 8.938722 10.449434 11.911754 11.778577 13.015820 14.065134
0.340000 12.455360 13.652041 14.606715 14.539810 15.468751 16.195253
0.390000 14.859036 15.762922 16.744728 16.762684 17.761877 18.852702
0.440000 16.441526 17.283379 18.493280 18.492627 19.623137 20.931244
0.490000 17.989855 18.979193 20.083117 20.148052 21.237830 22.759356
0.540000 19.407425 20.545180 21.810379 21.825242 22.993024 24.442531
0.590000 21.022052 22.143856 23.497080 23.494698 24.740071 26.213124
0.640000 22.531985 23.813963 25.136687 25.164052 26.478733 28.180869
0.690000 24.162439 25.455624 26.857994 26.932656 28.406066 30.089043
0.740000 25.704706 27.195683 28.691923 28.834951 30.496244 32.348802
0.790000 27.575216 29.125426 30.896805 30.959239 32.602970 34.956411
0.840000 29.774684 31.372511 33.210655 33.420040 35.374712 38.619528
0.890000 32.109898 33.649876 35.887467 36.178063 38.659548 42.646805
0.940000 34.077505 35.799951 38.480002 38.692966 41.455596 45.041339
0.990000 35.974890 38.072534 41.063263 41.367309 44.761852 47.852314
1.040000 38.249652 40.592226 43.827162 43.904492 47.214891 50.090321
1.140000 42.306075 45.841370 49.128886 48.972000 51.885626 54.807165
1.190000 44.364715 48.721275 51.717407 51.597280 54.576664 57.237595
1.240000 46.804956 51.401088 54.228556 54.116160 57.032367 59.930986
1.290000 49.327570 53.586606 56.657618 56.507872 59.472741 62.220655
1.340000 51.783200 55.910714 58.950332 58.871016 61.690833 65.034923
1.390000 54.691341 58.453465 61.598802 61.464892 64.416412 67.486110
1.440000 57.722158 61.340928 64.636795 64.350470 67.352770 69.675254
1.490000 60.397923 64.151191 67.360699 67.152162 70.298321 72.486208
1.590000 67.771501 70.150526 72.302651 72.691339 74.588179 87.250013
1.640000 70.813976 72.900316 74.898914 75.574751 76.982923 90.003195
1.690000 74.099458 76.108352 78.039018 79.031433 79.993452 93.318816
1.740000 77.674568 79.754557 81.608048 82.984953 84.166535 97.441783
1.790000 80.337337 82.462991 84.961359 86.979841 94.031591 101.558107
1.840000 82.718859 85.702383 90.187199 91.458492 98.414022 105.720785
1.890000 85.440445 90.037945 94.476924 95.683179 102.589492 108.649818
1.940000 89.734223 93.883799 97.971501 99.420795 106.990965 112.087568
1.990000 94.473188 97.690989 101.649633 103.204477 110.895057 114.653826
2.040000 97.763595 100.798897 105.402609 106.712218 114.326628 116.531366
2.090000 101.132927 104.652769 111.092036 110.697725 116.545484 118.479490
2.140000 104.382582 110.565921 116.107330 115.095191 118.920755 120.559536
2.190000 116.346277 118.427113 120.405813 120.264634 122.052335 123.658744
2.240000 119.897240 121.409898 122.946911 122.928864 124.448070 125.995028
2.340000 124.848140 126.263882 127.520700 127.594319 128.934763 130.648407
2.390000 127.465110 128.632422 129.966784 130.064684 131.517457 133.022519
2.440000 129.591068 131.112091 132.584170 132.667523 134.218534 135.758599
2.490000 132.564950 134.301255 136.170304 136.260832 138.176837 140.470567
2.540000 135.407926 137.285747 139.391431 139.469548 141.614971 144.173369
2.620000 138.915047 141.981790 144.443388 144.481952 147.092862 150.184291
2.670000 141.904533 144.751959 147.516678 147.605362 150.628143 153.676019
2.720000 143.861306 147.009114 150.095340 150.243929 153.735954 156.518039
2.770000 145.925931 149.151590 152.748894 152.764587 156.524663 159.383717
2.820000 147.969919 151.374903 155.230336 155.128586 158.938401 161.898397
2.870000 150.294782 153.536075 157.749745 157.475589 161.230454 164.010767
2.920000 152.908099 155.926360 160.069494 159.792672 163.418047 166.153509
2.970000 155.208451 158.383859 162.181445 161.970159 165.263474 168.100476
3.020000 157.480447 160.885456 164.327397 164.110440 167.114302 170.100010
3.070000 159.886246 163.312046 166.439191 166.255150 169.046710 172.114625
3.120000 161.848543 165.562045 168.473527 168.324040 171.053288 174.341836
3.170000 164.063238 167.790712 170.565168 170.525674 173.216660 176.704551
3.220000 166.230269 170.200065 172.952031 172.896320 175.648000 178.751441
3.270000 168.266155 172.092362 175.624530 175.245182 178.150303 180.692447
3.320000 170.782369 174.497120 178.015840 177.570385 180.445226 182.898918
3.370000 172.771277 176.827799 180.479771 179.903279 182.537908 185.008542
3.420000 174.908070 179.374794 183.040042 182.309347 184.810658 186.909872
3.470000 177.497216 181.799346 185.344554 184.696285 187.238421 188.891696
3.520000 180.034724 184.528985 187.686933 187.087736 189.455200 190.940664
3.570000 183.135564 187.244101 189.985827 189.520003 191.623980 193.679309
3.620000 185.511648 189.474125 191.794546 191.519469 193.409780 195.362180
3.670000 188.991112 191.771694 193.622163 193.635511 195.280450 197.793752
3.720000 192.938606 194.572862 195.974572 196.276839 197.659972 203.489783
3.770000 195.562639 197.206425 198.725640 199.120416 200.708592 207.315876
3.820000 197.784219 199.274936 201.100848 201.754361 204.150024 210.393419
3.870000 199.684865 201.169251 203.522470 204.408587 208.239190 212.985287
3.920000 201.531779 203.428380 206.252817 207.122663 211.849003 214.951040
3.970000 203.803530 205.898319 209.067061 209.873621 214.758401 216.937016
4.020000 206.468937 209.342719 212.313241 212.861144 217.070498 218.801485
4.050000 208.616881 211.841805 215.102553 214.975408 218.371458 219.995799
4.120000 217.781027 219.194962 220.730829 220.825696 222.402711 224.197343
4.170000 220.718536 221.912941 223.363163 223.504460 224.974382 227.577066
4.220000 222.867096 224.146612 225.698540 225.936421 227.654041 230.308839
4.280000 225.417657 226.809080 228.823970 229.052215 231.497680 233.668448
4.320000 227.279133 228.766880 231.281464 231.540185 234.503756 236.707338
4.370000 229.441660 231.167593 234.321615 234.558749 238.222820 241.429881
4.420000 231.918825 233.831444 237.196574 237.736079 242.114324 244.246126
4.470000 235.508045 237.615274 241.934487 241.499051 244.694421 246.926719
4.520000 243.198594 245.070293 247.067528 247.349424 249.929287 252.068115
4.570000 245.820119 247.848759 250.577543 250.623095 253.374304 256.209569
4.620000 247.930075 250.136379 253.612654 253.550684 256.737831 259.290768
4.720000 251.021020 254.077057 259.629870 258.840177 262.617887 264.695371
4.770000 253.137367 256.678047 262.462566 261.415500 265.037074 267.233967
4.820000 255.423344 259.857977 264.793235 263.918188 267.279339 269.259824
4.920000 260.789920 265.659592 269.156938 268.463321 270.864618 272.561869
4.970000 263.356195 268.815520 271.278002 270.796055 273.022816 274.621941
5.020000 266.663269 271.650431 273.527695 273.218535 275.327007 276.796709
5.070000 269.764924 274.059071 275.960475 275.711887 277.590085 278.971294
5.120000 275.075245 277.079630 278.879623 278.703819 280.279090 281.470451
5.170000 279.131185 280.823034 282.156001 282.178851 283.467532 285.399588
5.220000 282.780982 284.301432 285.674958 285.661171 286.944487 288.538135
5.270000 286.572823 288.198805 289.676690 289.778297 291.301505 293.869906
5.320000 289.438589 291.206133 293.017510 293.171159 295.069426 297.729817
5.370000 291.871006 293.892735 296.153526 296.302350 298.782112 301.656436
