depth(m) lower_95(kyr) lower_68(kyr) median(kyr) mean(kyr) upper_68(kyr) upper_95(kyr)
0.010000 5.012751 6.047043 6.905227 6.887106 7.776056 8.520511
0.123333 5.347428 6.346650 7.200411 7.187519 8.103592 8.779994
0.236667 5.681263 6.616132 7.493893 7.483666 8.393512 9.082265
0.350000 5.987477 6.934889 7.795835 7.780330 8.694092 9.412661
0.470000 6.273481 7.263657 8.099846 8.114115 9.058855 9.785973
0.590000 6.601084 7.565991 8.419990 8.454921 9.438602 10.126114
0.710000 6.848171 7.885013 8.751538 8.780944 9.762206 10.436873
0.830000 7.336954 8.195380 9.099612 9.116970 10.105306 10.804101
0.940000 7.608610 8.504054 9.397383 9.433324 10.408761 11.146330
1.050000 7.881017 8.803865 9.715907 9.745867 10.745927 11.481921
1.160000 8.146604 9.121840 10.063595 10.064344 11.090446 11.799158
1.230000 8.332832 9.332857 10.315988 10.288646 11.321934 12.024627
1.371333 8.723683 9.729125 10.767656 10.735269 11.785495 12.584327
1.512667 9.195641 10.140117 11.222513 11.182069 12.220527 12.994817
1.654000 9.622762 10.528624 11.660303 11.627293 12.721172 13.452058
1.795333 10.008997 10.948267 12.084065 12.063649 13.161309 14.090875
1.936667 10.474866 11.359350 12.511295 12.499577 13.588767 14.674347
2.078000 10.939783 11.772592 12.964397 12.957457 14.070586 15.242491
2.219333 11.433127 12.248372 13.392966 13.432963 14.539731 15.933277
2.360667 11.914336 12.679340 13.800728 13.876898 15.035637 16.403829
2.502000 12.360639 13.115494 14.226163 14.346171 15.513838 16.985620
2.643333 12.725550 13.614124 14.664335 14.783021 15.963470 17.508029
2.784667 13.184963 14.061625 15.122959 15.253528 16.475754 18.055596
2.926000 13.577247 14.480280 15.578043 15.693600 16.873193 18.621225
3.067333 14.092452 14.921360 16.004231 16.141088 17.384221 19.261970
3.208667 14.586310 15.399461 16.389927 16.596015 17.837985 20.025399
3.350000 14.979422 15.836543 16.794417 17.037803 18.320366 20.602481
3.470000 15.391336 16.153486 17.145421 17.383505 18.735839 21.024253
3.590000 15.718328 16.448510 17.474149 17.734838 19.149210 21.436221
3.710000 16.063300 16.757719 17.810496 18.087204 19.535030 22.042068
3.830000 16.326991 17.061146 18.151976 18.424643 19.882751 22.354325
3.963333 16.580984 17.397135 18.496107 18.784007 20.240374 22.662092
4.096667 16.860096 17.735461 18.825590 19.146988 20.668440 23.013367
4.230000 17.134381 18.004684 19.144833 19.504249 21.046228 23.524347
4.367500 17.430766 18.305856 19.460185 19.861636 21.414811 23.876731
4.505000 17.705778 18.621229 19.761069 20.211468 21.772079 24.281468
4.642500 18.023339 18.933441 20.073972 20.559451 22.132080 24.704581
4.780000 18.321571 19.266931 20.385268 20.902240 22.448200 25.113901
4.917500 18.595638 19.573542 20.694288 21.259642 22.899790 25.572578
5.055000 18.823445 19.917976 20.993344 21.607298 23.317047 26.055036
5.192500 19.104884 20.280723 21.289678 21.954116 23.769618 26.404084
5.330000 19.383829 20.634733 21.566242 22.299277 24.162819 26.780602
5.338000 19.407823 20.660750 21.594599 22.321390 24.179619 26.798743
5.468667 19.752068 21.084386 22.152108 22.691719 24.620026 27.138304
5.599333 19.992855 21.471989 22.661728 23.061888 24.950567 27.471733
5.730000 20.368772 21.801714 23.111362 23.435887 25.306870 27.883385
5.850000 20.662073 22.122297 23.523515 23.772127 25.652501 28.191795
5.970000 21.012107 22.404143 23.882077 24.109951 26.014345 28.412871
6.090000 21.246367 22.739014 24.284583 24.453227 26.353917 28.684386
6.210000 21.671805 23.067141 24.607999 24.799322 26.699282 28.978752
6.330000 22.003006 23.422839 24.912875 25.156010 27.096928 29.319910
6.450000 22.361240 23.860915 25.231521 25.522496 27.489884 29.630208
6.565000 22.612904 24.275472 25.538226 25.888723 28.051989 29.983970
6.680000 22.914768 24.735170 25.850754 26.250903 28.408153 30.329821
6.795000 23.191491 25.139531 26.175737 26.606803 28.725203 30.716789
6.830000 23.350294 25.274270 26.272798 26.716013 28.816060 30.801726
6.941667 23.708642 25.604149 26.636177 27.093369 29.182237 31.088200
7.053333 23.983656 25.954498 27.057520 27.472790 29.555164 31.580265
7.165000 24.311017 26.309843 27.489105 27.874884 29.989348 32.035259
7.310000 24.885985 26.801945 28.119194 28.490968 30.680763 32.654594
7.443333 25.367035 27.288885 28.793632 29.181827 31.394807 33.649838
7.576667 25.972217 27.774108 29.466911 29.917210 32.055247 37.041121
7.710000 26.466492 28.285043 30.058509 30.543682 32.659004 38.660529
7.830000 27.037300 28.710428 30.592782 31.160236 33.509139 39.633623
7.950000 27.578130 29.138871 31.166728 31.699323 34.131665 40.121632
8.010000 27.846213 29.373097 31.394853 31.941370 34.357950 40.326348
8.140000 28.278433 30.107940 32.464819 33.114865 36.133989 41.658246
8.270000 28.772950 30.838220 33.772414 34.592698 38.585844 44.225430
8.400000 29.565037 32.165551 35.406337 36.177168 40.830928 45.405228
8.530000 30.345082 33.040041 36.669918 37.300600 42.097428 46.011401
8.666000 30.813876 34.064616 38.199938 38.415694 43.103565 46.668789
8.802000 31.643721 34.916682 39.593598 39.475740 44.183430 47.209544
8.938000 32.350985 36.017670 41.111088 40.793238 45.383095 47.944811
9.074000 33.177881 37.064950 42.309454 41.840066 46.132605 48.686400
9.210000 33.826393 38.052945 43.350231 42.773080 46.824189 49.040740
9.330000 34.417675 38.682394 44.015635 43.331633 47.287550 49.499583
9.450000 34.958250 39.188826 44.618189 43.856333 47.725134 49.766928
9.545000 35.104633 39.486554 45.022326 44.238587 48.076880 50.165008
9.640000 35.407395 40.110452 45.438366 44.628227 48.407395 50.507191
9.770000 36.453038 40.874479 46.224824 45.373984 48.872575 51.006063
9.900000 37.271081 42.113019 46.950516 46.136125 49.450040 51.789994
10.030000 37.795089 43.269167 47.643723 46.816539 49.984094 52.478941
10.170000 38.407153 44.217401 48.295870 47.482708 50.453919 53.310995
10.310000 39.264886 44.811348 48.926824 48.100142 50.931187 53.932509
10.407500 39.461655 45.143040 49.344366 48.459584 51.284230 54.302664
10.505000 39.844139 45.445559 49.729263 48.824379 51.605270 54.586138
10.607500 40.112289 45.781813 50.131692 49.207311 51.900181 54.961535
10.710000 40.524928 46.250191 50.536649 49.608093 52.246466 55.346507
10.830000 41.036748 46.866369 50.972829 50.068374 52.625577 55.723311
10.950000 41.446521 47.343110 51.353872 50.490867 53.030791 56.107601
11.087000 42.077919 47.869209 51.810706 50.960950 53.503293 56.437953
11.224000 42.706494 48.402420 52.216483 51.425794 53.953373 56.710202
11.361000 43.142319 48.899612 52.642411 51.864963 54.357479 57.046308
11.498000 43.653775 49.566093 53.000100 52.334215 54.761509 57.400323
11.635000 44.263288 50.087622 53.460528 52.783208 55.181765 57.695882
11.776217 44.724103 50.831442 53.889167 53.246200 55.562836 57.981885
11.917435 45.744952 51.367841 54.318722 53.723150 55.941126 58.205115
12.058652 46.545776 51.927725 54.764275 54.184735 56.401466 58.443069
12.199870 47.143657 52.411118 55.140774 54.611658 56.772095 58.756377
12.341087 47.971675 52.992058 55.561079 55.057157 57.105700 59.059266
12.482304 48.638080 53.456523 55.955128 55.491324 57.457128 59.307412
12.623522 49.375043 54.011751 56.367291 55.936234 57.840270 59.599346
12.764739 50.150347 54.514699 56.788743 56.392899 58.222458 59.900286
12.905957 50.939098 55.054823 57.177416 56.830222 58.613279 60.215159
13.047174 51.730588 55.594406 57.589195 57.260079 58.953623 60.470529
13.188391 52.496720 56.139164 58.012053 57.701482 59.316373 60.739464
13.329609 53.037389 56.629706 58.405178 58.122401 59.704538 61.084704
13.470826 53.981707 57.162960 58.787793 58.582306 60.099734 61.449979
13.612043 54.672633 57.627676 59.177631 59.017368 60.470023 61.777375
13.753261 55.310259 58.165656 59.615911 59.456858 60.897970 62.113861
13.894478 56.000923 58.664555 59.986863 59.904956 61.367310 62.535419
14.035696 56.764050 59.136622 60.386985 60.356860 61.736391 62.884921
14.176913 57.598369 59.618269 60.822071 60.795763 62.137699 63.254220
14.318130 58.289295 60.080841 61.281725 61.234675 62.584627 63.686260
14.459348 58.955252 60.541686 61.691709 61.671616 62.950146 64.092387
14.600565 59.462971 60.984356 62.124109 62.113680 63.344234 64.548988
14.741783 60.127402 61.378675 62.529917 62.539284 63.726429 64.919917
14.883000 60.621615 61.798492 62.895470 62.952756 64.064030 65.240817
14.893000 60.647886 61.831014 62.925879 62.981320 64.103798 65.287325
15.033000 61.185126 62.182192 63.310623 63.385974 64.492084 65.616732
15.173000 61.682017 62.599559 63.735722 63.770379 64.858553 65.975244
15.258000 61.903026 62.834221 64.001847 64.007699 65.092715 66.273956
15.343000 62.097376 63.127865 64.253868 64.245665 65.325610 66.577226
15.453000 62.433944 63.448507 64.556030 64.550136 65.628046 66.868373
15.583000 62.774475 63.788203 64.967455 64.912405 65.992050 67.162885
15.713000 63.275068 64.143743 65.346537 65.271033 66.355458 67.449607
15.843000 63.634068 64.499177 65.703360 65.631953 66.680436 67.732211
15.973000 63.962275 64.855080 66.062999 65.988911 67.022854 68.036490
16.073000 64.177196 65.156934 66.343001 66.264402 67.272443 68.263911
16.173000 64.450886 65.429927 66.597657 66.536729 67.544097 68.443181
16.273000 64.715361 65.714006 66.846442 66.806367 67.798749 68.660012
16.410000 65.146099 66.121716 67.259227 67.176163 68.134131 68.966164
16.550000 65.540579 66.551847 67.640151 67.552057 68.472167 69.283036
16.630000 65.806031 66.814719 67.856404 67.774528 68.697782 69.482266
16.770333 66.176333 67.253546 68.250236 68.174766 69.059081 69.856976
16.910667 66.548200 67.715525 68.661032 68.578497 69.424256 70.246830
17.051000 67.043925 68.178840 69.019654 68.971899 69.762593 70.644629
17.191333 67.464075 68.626193 69.422427 69.370613 70.150789 71.143396
17.331667 68.080474 69.054931 69.812939 69.787287 70.512571 71.540563
17.472000 68.570887 69.523905 70.197661 70.197168 70.861152 71.938127
17.612333 69.140207 69.929185 70.621279 70.615101 71.204561 72.305342
17.752667 69.624714 70.366953 71.024768 71.020893 71.577678 72.698556
17.893000 70.058315 70.810169 71.406414 71.414156 71.961735 73.066483
17.953000 70.269971 70.965355 71.554131 71.588110 72.117133 73.238015
18.073000 70.662176 71.356079 71.899400 71.951927 72.533317 73.585405
18.173000 70.997725 71.686880 72.172079 72.265979 72.937292 73.918810
18.273000 71.283447 72.024570 72.470508 72.575963 73.242479 74.251616
18.353000 71.472158 72.262638 72.687460 72.804385 73.531054 74.494382
18.473000 71.735084 72.546469 72.986686 73.119415 73.898962 74.878854
18.573000 71.966745 72.784419 73.209031 73.360951 74.185634 75.192909
18.673000 72.157644 73.004611 73.408013 73.599410 74.461482 75.498739
18.773000 72.372603 73.204330 73.623272 73.825230 74.733118 75.740414
18.873000 72.566550 73.424857 73.845444 74.046714 74.970097 75.970880
18.973000 72.785083 73.629224 74.047851 74.257649 75.165275 76.203792
19.115333 73.063985 73.899172 74.329709 74.545187 75.473080 76.483381
19.257667 73.331052 74.152780 74.624205 74.829033 75.766543 76.781947
19.400000 73.515722 74.434549 74.911207 75.113322 76.041617 77.075862
19.544000 73.774614 74.702010 75.192256 75.398740 76.350361 77.370208
19.688000 74.050790 74.948689 75.477981 75.678715 76.614123 77.648430
19.824364 74.358123 75.204136 75.731841 75.954034 76.899759 78.008730
19.960727 74.646002 75.449985 76.018781 76.225560 77.191664 78.285669
20.097091 74.897794 75.689529 76.320656 76.508743 77.487000 78.635968
20.233455 75.177703 75.943916 76.605404 76.791961 77.746155 78.958405
20.369818 75.471512 76.203509 76.909873 77.074225 78.017912 79.267188
20.506182 75.680312 76.471024 77.209386 77.364948 78.352128 79.548359
20.642545 75.959040 76.712108 77.521684 77.646500 78.627389 79.817804
20.778909 76.232439 76.993099 77.805763 77.933421 78.883292 80.047832
20.915273 76.506767 77.284480 78.100970 78.226943 79.160392 80.289549
21.051636 76.742434 77.549918 78.413455 78.519697 79.500265 80.554607
21.188000 76.974795 77.813238 78.745722 78.831249 79.857003 80.915783
21.330500 77.274566 78.136382 79.136797 79.175216 80.236240 81.335089
21.473000 77.613466 78.482763 79.466359 79.519991 80.556449 81.741540
21.608000 77.925882 78.825365 79.853798 79.896155 80.958496 82.010867
21.743000 78.323681 79.156256 80.256920 80.280168 81.370286 82.393988
21.878000 78.758648 79.605040 80.656326 80.685934 81.729683 82.803788
22.013000 79.150304 79.998980 81.072747 81.107586 82.115371 83.160191
22.148000 79.592394 80.478783 81.478237 81.528978 82.544395 83.495675
22.283000 79.916432 80.942301 81.928312 81.967476 82.967045 83.908091
22.418000 80.328614 81.406131 82.367926 82.389558 83.361447 84.192500
22.553000 80.731430 81.859300 82.818110 82.819421 83.694719 84.522906
22.688000 81.306922 82.320755 83.304697 83.276404 84.130406 84.999622
22.808000 81.665012 82.756197 83.683569 83.673655 84.503009 85.563951
22.928000 82.130076 83.209548 84.082342 84.091541 84.862389 86.002946
23.048000 82.436968 83.629024 84.497128 84.495186 85.256607 86.373211
23.168000 82.855925 84.098361 84.914993 84.911469 85.650576 86.769524
23.266000 83.388305 84.450789 85.234361 85.242692 85.953750 87.232689
23.391000 83.943013 84.882007 85.655581 85.679996 86.340676 87.708207
23.516000 84.254274 85.283035 86.063409 86.099334 86.755459 88.127436
23.641000 84.846567 85.732168 86.468364 86.529715 87.182887 88.906802
23.766000 85.450294 86.199349 86.883889 86.968650 87.616060 89.341271
23.796000 85.584308 86.287090 86.974647 87.062291 87.718827 89.412673
23.908500 85.889260 86.667028 87.348413 87.438913 88.154241 89.695752
24.021000 86.234417 87.056823 87.715132 87.813633 88.514791 90.071630
24.133500 86.591211 87.463926 88.096301 88.198486 88.895899 90.622101
24.246000 86.921781 87.841897 88.453308 88.575668 89.267358 91.196129
24.366000 87.190482 88.242405 88.849712 88.977539 89.693506 92.125837
24.486000 87.388751 88.651117 89.223385 89.379971 90.171129 92.551188
24.503000 87.452616 88.695520 89.279888 89.431135 90.240315 92.621544
24.629750 87.795311 89.041506 89.639277 89.822534 90.694500 92.952583
24.756500 88.155346 89.383785 90.017806 90.197558 91.065682 93.210715
24.883250 88.575148 89.709768 90.417341 90.580989 91.504367 93.468558
25.010000 88.991000 90.008458 90.826049 90.962866 91.930499 93.865813
25.150000 89.414849 90.378660 91.253349 91.382052 92.373975 94.223954
25.290000 89.758081 90.747285 91.708390 91.791896 92.829554 94.540550
25.430000 90.122629 91.086053 92.110824 92.198251 93.283809 94.856758
25.570000 90.408204 91.398447 92.543048 92.592458 93.745987 95.260984
25.710000 90.822013 91.761290 92.919737 92.977890 94.136024 95.569330
25.850000 91.162065 92.105230 93.342881 93.364804 94.557679 96.037053
25.990000 91.467594 92.438715 93.703809 93.738424 94.968368 96.366752
26.115667 91.772550 92.740508 94.037928 94.065706 95.324206 96.615256
26.241333 92.046132 93.060340 94.369800 94.387902 95.676220 96.937486
26.367000 92.292319 93.366309 94.659352 94.705538 96.023048 97.255725
26.477000 92.600842 93.645479 94.936771 94.985600 96.302277 97.514235
26.587000 92.846749 93.906885 95.232562 95.259863 96.560977 97.843275
26.697000 93.128802 94.134441 95.494080 95.521120 96.828364 98.085771
26.807000 93.323202 94.413679 95.760759 95.785108 97.083352 98.307757
26.943364 93.546244 94.780998 96.068991 96.094653 97.373021 98.594926
27.079727 93.895117 95.129866 96.385070 96.411683 97.679823 98.892289
27.216091 94.160774 95.456824 96.703459 96.719165 97.996141 99.178062
27.352455 94.494626 95.746597 97.001508 97.013933 98.294157 99.511485
27.488818 94.811194 96.052761 97.314538 97.318941 98.561826 99.888758
27.625182 95.099824 96.354774 97.648572 97.620273 98.822016 100.128888
27.761545 95.361213 96.703677 97.981241 97.930569 99.087277 100.525545
27.897909 95.660957 97.006021 98.302847 98.240095 99.402168 100.905710
28.034273 95.940054 97.292140 98.590698 98.542545 99.640020 101.157662
28.170636 96.260927 97.579136 98.924237 98.843920 99.960686 101.506821
28.307000 96.590255 97.889967 99.241653 99.148775 100.286785 101.832474
28.443600 96.865779 98.159019 99.525520 99.453961 100.590368 102.103554
28.580200 97.090854 98.511435 99.840894 99.772598 100.889807 102.522363
28.716800 97.352272 98.826434 100.123062 100.078689 101.186181 102.959839
28.853400 97.674504 99.090616 100.420697 100.394921 101.473920 103.475619
28.990000 98.092563 99.402006 100.710201 100.710414 101.860478 103.810944
29.095667 98.329274 99.658942 100.954461 100.966224 102.121367 104.076346
29.201333 98.576165 99.916336 101.203681 101.222696 102.429375 104.391015
29.307000 98.846929 100.166661 101.418458 101.473241 102.734778 104.704238
29.432000 99.083200 100.485008 101.719450 101.778554 103.085426 104.983560
29.557000 99.430864 100.823208 101.992282 102.088942 103.406718 105.414652
29.682000 99.651989 101.105754 102.308724 102.397977 103.772770 105.630052
29.807000 99.935729 101.434670 102.583314 102.708711 104.166621 106.034129
29.910000 100.187512 101.706955 102.845195 102.967671 104.424189 106.388153
30.013000 100.432487 101.954213 103.081254 103.219558 104.676285 106.602439
30.116000 100.702093 102.224753 103.328247 103.480057 104.926082 106.916247
30.249444 101.021548 102.612474 103.624759 103.808299 105.273025 107.215128
30.382889 101.341892 102.933628 103.930886 104.126885 105.622887 107.516171
30.516333 101.638218 103.276946 104.260110 104.458779 105.960148 107.942644
30.649778 101.916938 103.574526 104.621024 104.786399 106.257255 108.169148
30.783222 102.186554 103.854086 104.917530 105.107810 106.579556 108.442397
30.916667 102.451933 104.190926 105.258770 105.432808 106.903957 108.754296
31.050111 102.744731 104.529837 105.600718 105.755846 107.180918 109.002769
31.183556 103.027808 104.820167 105.946810 106.077948 107.457029 109.239335
31.317000 103.327959 105.174364 106.303148 106.409315 107.802357 109.611388
31.460625 103.582904 105.554471 106.658599 106.760871 108.171310 109.924519
31.604250 103.876603 105.911033 107.036779 107.117457 108.539128 110.227278
31.747875 104.325875 106.261393 107.456520 107.492031 108.846693 110.467053
31.891500 104.697931 106.641533 107.859769 107.867842 109.191440 110.858620
32.035125 104.997853 106.993251 108.259185 108.241808 109.519081 111.210502
32.178750 105.345001 107.336289 108.722557 108.622342 109.856672 111.552517
32.322375 105.697385 107.704021 109.082019 108.997031 110.179909 111.930625
32.466000 106.043448 108.058153 109.493197 109.393369 110.556375 112.318760
32.579667 106.520415 108.385300 109.805620 109.707925 110.842134 112.557448
32.693333 106.848786 108.705141 110.144612 110.020529 111.136569 112.736717
32.807000 107.154893 108.993474 110.455059 110.337949 111.476348 112.953906
32.946500 107.433509 109.416476 110.862004 110.728586 111.814334 113.389586
33.086000 107.863598 109.817346 111.266612 111.124577 112.250618 113.744359
33.226000 108.278023 110.276673 111.677425 111.541865 112.669789 114.089871
33.366000 108.770201 110.668092 112.039445 111.948525 113.131547 114.445750
33.506000 109.350315 111.143231 112.399893 112.365496 113.565926 114.838660
33.646000 109.810525 111.614952 112.786659 112.787067 113.999688 115.365875
33.786000 110.384831 112.077444 113.177986 113.225779 114.452341 115.917330
33.906000 110.757575 112.480379 113.527255 113.594136 114.865113 116.240036
34.026000 110.995474 112.809994 113.891425 113.967978 115.260115 116.607536
34.146000 111.471644 113.221678 114.268172 114.352558 115.688112 117.122752
34.266000 112.032327 113.615519 114.629576 114.758698 116.081609 117.441855
34.391000 112.455558 114.009626 115.054690 115.152024 116.459101 117.906113
34.516000 113.079574 114.388584 115.473453 115.585086 116.903452 118.272889
34.641000 113.587980 114.783463 115.917606 116.025416 117.432035 118.655450
34.766000 114.094389 115.157165 116.329114 116.443273 117.858644 119.118725
34.891500 114.596740 115.577376 116.803700 116.893390 118.261890 119.602896
35.017000 115.027398 115.967807 117.270897 117.356516 118.703206 120.297597
35.143333 115.474395 116.453347 117.742239 117.917906 119.365065 121.052947
35.269667 115.921925 116.993364 118.294998 118.488105 119.995524 121.907019
35.396000 116.293573 117.465655 118.835815 119.037598 120.559149 122.918592
