depth(m) lower_95(kyr) lower_68(kyr) median(kyr) mean(kyr) upper_68(kyr) upper_95(kyr)
45.860000 311.859161 314.880059 318.489982 317.752520 319.845594 320.850962
45.935000 312.239257 315.146304 318.891376 318.149862 320.216018 321.161106
46.010000 312.691788 315.509840 319.282683 318.546183 320.578554 321.497459
46.060000 312.999901 315.808146 319.528503 318.802739 320.839468 321.658677
46.160000 313.424949 316.181955 320.056047 319.323436 321.348922 322.128959
46.210000 313.658739 316.512066 320.271941 319.575200 321.587542 322.340600
46.310000 314.188547 316.947949 320.790931 320.091349 322.122540 322.868915
46.410000 314.925767 317.647283 321.319011 320.601148 322.601399 323.398575
46.551667 315.639292 318.715655 321.946307 321.257889 323.149713 324.109480
46.693333 316.272768 319.736724 322.499847 321.879159 323.698246 324.656880
46.835000 317.178194 320.675471 323.018475 322.502961 324.264159 325.309706
46.976667 317.937980 321.485442 323.637256 323.135522 324.781574 325.914777
47.118333 318.754576 322.131505 324.212196 323.776988 325.468000 326.456553
47.260000 319.804277 322.759555 324.823445 324.406619 326.022995 327.053433
47.401667 320.594554 323.465804 325.365287 325.041733 326.585069 327.685244
47.543333 321.681625 324.079917 325.961440 325.654600 327.142465 328.218906
47.685000 322.785116 324.769074 326.505463 326.274739 327.658283 328.691374
47.826667 323.600350 325.491955 327.107323 326.912394 328.269585 329.188155
47.968333 324.577929 326.264613 327.740777 327.563076 328.838178 329.695093
48.110000 325.437440 326.985760 328.369880 328.211075 329.383916 330.269492
48.185000 325.752246 327.387859 328.702219 328.566671 329.691242 330.537055
48.260000 326.149529 327.821735 329.036116 328.922178 329.997871 330.758482
48.393333 327.048026 328.499191 329.645310 329.522804 330.538723 331.251688
48.526667 327.522026 329.169836 330.223382 330.089741 331.029454 331.726480
48.660000 328.543801 329.845906 330.772872 330.662030 331.521399 332.131008
48.710000 328.776067 330.068084 330.995696 330.890052 331.743194 332.330117
48.810000 329.242000 330.475702 331.450165 331.334826 332.149716 332.741509
48.910000 329.727672 331.020542 331.946150 331.806644 332.598672 333.196497
48.960000 330.006651 331.260517 332.213586 332.069623 332.893285 333.429569
49.010000 330.373794 331.537071 332.478749 332.352213 333.192593 333.734380
49.060000 330.662624 331.798515 332.795669 332.670387 333.528849 334.026149
49.172500 331.513170 332.613125 333.655765 333.585089 334.528997 335.526995
49.285000 332.321625 333.546154 334.558276 334.516945 335.499633 336.376163
49.397500 333.320550 334.527517 335.514683 335.440790 336.322624 337.061613
49.510000 334.864825 335.664334 336.394321 336.367816 337.079844 337.693730
49.560000 335.132198 336.008368 336.697253 336.675601 337.404982 337.947732
49.685000 336.122898 336.813121 337.459597 337.430311 338.067996 338.458516
49.810000 337.060600 337.646606 338.218390 338.165207 338.663860 339.069879
49.885000 337.557459 338.056768 338.583789 338.539557 338.994981 339.336271
49.960000 337.982876 338.477512 338.929619 338.884591 339.287208 339.574517
50.010000 338.258637 338.700923 339.132298 339.099276 339.468220 339.764689
50.060000 338.505386 338.960753 339.351323 339.314613 339.669456 339.955145
50.110000 338.717991 339.169252 339.549873 339.517133 339.852906 340.131100
50.185000 339.070632 339.486787 339.839535 339.808417 340.123701 340.407480
50.260000 339.388182 339.785384 340.117123 340.092525 340.398605 340.711436
50.310000 339.574744 339.978543 340.297848 340.280843 340.575975 340.915392
50.410000 339.893273 340.316572 340.646233 340.616605 340.906778 341.198421
50.460000 340.077332 340.497592 340.808656 340.791994 341.069659 341.429141
50.560000 340.421809 340.827326 341.122925 341.118539 341.402287 341.788037
50.660000 340.799603 341.150191 341.450145 341.442503 341.722982 342.111972
50.710000 341.003483 341.318002 341.612373 341.615891 341.903689 342.277313
50.810000 341.307900 341.641611 341.954818 341.947724 342.220720 342.618066
50.860000 341.492866 341.810405 342.120765 342.121369 342.399954 342.801639
50.960000 341.842571 342.141332 342.456745 342.452233 342.732495 343.146322
51.010000 342.012190 342.324365 342.620881 342.626960 342.896429 343.296040
51.110000 342.332036 342.655191 342.950549 342.956290 343.237482 343.660102
51.160000 342.505435 342.812830 343.123273 343.126758 343.418109 343.815292
51.273333 342.809673 343.160369 343.479588 343.469583 343.760798 344.184186
51.386667 343.157504 343.519033 343.812366 343.814781 344.108226 344.487059
51.500000 343.456969 343.860821 344.170992 344.165933 344.467956 344.846487
51.575000 343.682303 344.105935 344.413016 344.407041 344.703685 345.084682
51.650000 343.905261 344.363156 344.655392 344.655175 344.967369 345.319737
51.700000 344.070437 344.522625 344.827123 344.831511 345.140929 345.514147
51.800000 344.395444 344.877679 345.166125 345.173495 345.479293 346.008310
51.850000 344.557598 345.060067 345.348176 345.363512 345.668154 346.211512
51.900000 344.758409 345.244825 345.543928 345.565775 345.875795 346.438447
51.950000 344.927239 345.429621 345.761932 345.781418 346.129972 346.803977
52.000000 345.112444 345.617995 345.973438 346.004579 346.392142 347.050840
52.050000 345.337760 345.837731 346.188108 346.243669 346.659360 347.405059
52.100000 345.621867 346.054438 346.411021 346.503689 346.962480 347.871050
52.150000 345.831511 346.277206 346.667635 346.779664 347.306646 348.256706
52.200000 346.038823 346.498810 346.930195 347.057204 347.653533 348.812711
52.250000 346.282109 346.729252 347.223627 347.365632 348.052163 349.121647
52.300000 346.576839 346.985638 347.520367 347.683452 348.453511 349.618827
52.350000 346.793778 347.219283 347.882853 348.018815 348.877447 349.965429
52.400000 347.009573 347.450162 348.229594 348.352252 349.277076 350.298617
52.500000 347.433693 347.961964 349.084709 349.131759 350.212566 351.277084
52.550000 347.632469 348.232613 349.449404 349.444232 350.553403 351.536394
52.600000 347.852879 348.564628 349.798394 349.755938 350.882957 351.891851
52.650000 348.050369 348.830433 350.100006 350.058808 351.232158 352.175564
52.700000 348.286961 349.119687 350.429320 350.360310 351.494587 352.515049
52.800000 348.636138 349.829848 351.125673 350.990771 352.107447 353.053092
52.850000 348.802907 350.128257 351.416588 351.286698 352.390271 353.329267
52.900000 348.986539 350.492366 351.706572 351.582228 352.665165 353.589641
53.000000 349.432989 351.098449 352.361348 352.202424 353.223670 354.146098
53.100000 349.868129 351.842671 353.020604 352.824491 353.807588 354.734574
53.200000 350.539168 352.453264 353.543127 353.355854 354.220768 355.157951
53.250000 350.828688 352.712840 353.788195 353.611894 354.468832 355.367342
53.325000 351.347696 353.063976 354.129003 353.972450 354.798427 355.710572
53.400000 352.146673 353.408589 354.494422 354.351235 355.152279 356.063439
53.450000 352.493820 353.664870 354.711365 354.589390 355.369385 356.305409
53.500000 352.779536 353.875486 354.918796 354.819121 355.587037 356.525615
53.550000 353.038007 354.136330 355.135663 355.038181 355.778335 356.754950
53.600000 353.265178 354.434392 355.332209 355.251868 355.978297 357.049241
53.650000 353.527150 354.628406 355.537243 355.461448 356.171090 357.204054
53.700000 353.753091 354.826867 355.726599 355.665540 356.373953 357.416476
53.800000 354.214420 355.289587 356.083037 356.056771 356.723613 357.835437
53.850000 354.421308 355.563339 356.275372 356.252782 356.905660 358.020058
53.900000 354.560232 355.811486 356.473875 356.457151 357.095998 358.258960
53.950000 354.788599 356.007715 356.681837 356.660869 357.269598 358.431026
54.000000 354.991952 356.222135 356.876521 356.868264 357.500766 358.631887
54.050000 355.215103 356.458750 357.087972 357.079263 357.709974 358.863710
54.100000 355.414646 356.695571 357.269741 357.284436 357.920931 359.119768
54.150000 355.605348 356.873657 357.465562 357.485803 358.107732 359.299910
54.200000 355.965915 357.070251 357.666146 357.690098 358.334335 359.548781
54.250000 356.200581 357.286057 357.831626 357.886157 358.547546 359.690440
54.300000 356.430682 357.466476 358.001262 358.081137 358.744679 359.910660
54.350000 356.671148 357.659209 358.159503 358.273698 358.970679 360.102172
54.450000 357.189571 358.019483 358.468698 358.628186 359.489934 360.537792
54.550000 357.763383 358.346114 358.785685 358.975479 359.902264 360.915271
54.650000 358.196435 358.689668 359.097312 359.322793 360.355173 361.266757
54.700000 358.410285 358.855781 359.272074 359.510673 360.591983 361.449908
54.750000 358.623613 359.045166 359.447175 359.696468 360.804867 361.661356
54.800000 358.829717 359.229758 359.634112 359.884422 360.993091 361.840650
54.850000 359.073440 359.398073 359.808551 360.077114 361.206292 362.025904
54.900000 359.236278 359.579302 359.979516 360.265536 361.442957 362.211336
55.000000 359.555327 359.902574 360.321603 360.614336 361.776434 362.550977
55.050000 359.762201 360.082800 360.488860 360.803893 362.003020 362.734954
55.150000 360.079086 360.430089 360.858238 361.165163 362.393585 363.120809
55.200000 360.259984 360.619552 361.061028 361.362070 362.633571 363.299424
55.250000 360.436720 360.812839 361.260798 361.569406 362.835329 363.510885
55.300000 360.632739 360.992261 361.498679 361.787814 363.070332 363.695084
55.375000 360.885337 361.299182 361.898485 362.144356 363.379918 363.973728
55.450000 361.171468 361.637128 362.312560 362.517472 363.678061 364.262275
55.500000 361.416746 361.852873 362.567713 362.768800 363.886117 364.547234
55.600000 361.780797 362.336167 363.129148 363.281275 364.313150 365.122351
55.650000 361.987719 362.593800 363.396237 363.544559 364.554089 365.364330
55.700000 362.224975 362.865620 363.696699 363.820539 364.764447 365.729121
55.750000 362.498778 363.175778 363.977262 364.102715 365.022771 366.088487
55.800000 362.735967 363.453382 364.291623 364.399482 365.316310 366.362023
55.850000 363.007766 363.742777 364.573441 364.687033 365.603480 366.686936
55.900000 363.281772 364.011066 364.853503 364.965853 365.867587 367.002444
56.000000 363.821535 364.601513 365.452238 365.565188 366.557327 368.217410
56.050000 364.099456 364.855684 365.757921 365.863502 366.854207 368.564939
56.150000 364.800059 365.382055 366.390528 366.523599 367.551883 369.317867
56.200000 365.034687 365.700151 366.697163 366.835682 367.856243 369.596342
56.250000 365.291407 365.961943 367.057346 367.154898 368.225038 369.842851
56.300000 365.648141 366.318519 367.373419 367.490876 368.574486 370.300294
56.350000 365.885842 366.692640 367.724371 367.838020 368.923711 370.628415
56.450000 366.524057 367.484435 368.727700 368.779933 370.025908 371.544934
56.550000 367.093812 368.396790 369.609247 369.694820 371.007391 372.633265
56.650000 367.863464 369.244028 370.684159 370.668935 372.076202 373.638337
56.725000 368.400860 369.877861 371.278665 371.301710 372.737355 374.226126
56.800000 368.909679 370.456980 371.871015 371.871198 373.301193 374.755956
56.850000 369.201720 370.840051 372.243373 372.228279 373.671722 374.982652
56.970000 370.716012 372.046559 373.102793 373.230902 374.815563 375.708595
57.020000 371.073895 372.415191 373.427874 373.551331 375.159726 375.968498
57.070000 371.344716 372.725550 373.689399 373.847875 375.431762 376.161512
57.120000 371.711508 373.008806 373.947809 374.127914 375.659591 376.353217
57.170000 372.075229 373.336784 374.211275 374.396421 375.903875 376.559421
57.220000 372.428246 373.593982 374.479240 374.652817 376.108260 376.770359
57.270000 372.734103 373.830074 374.726116 374.896312 376.303584 376.970866
57.370000 373.317807 374.307713 375.163102 375.357559 376.653046 377.371791
57.470000 373.906739 374.800451 375.644259 375.817047 377.044310 377.780591
57.520000 374.165389 375.025054 375.864178 376.040570 377.239702 378.024951
57.570000 374.446950 375.219012 376.088014 376.259168 377.424793 378.208721
57.620000 374.674952 375.453678 376.309200 376.475270 377.604656 378.451015
57.670000 374.930189 375.651531 376.487397 376.686738 377.792225 378.729459
57.720000 375.214867 375.869958 376.689100 376.886249 377.976868 378.952361
57.820000 375.582179 376.243852 377.060030 377.258040 378.344843 379.407496
57.870000 375.752171 376.461254 377.249014 377.452889 378.553097 379.597174
57.920000 375.998311 376.642737 377.478849 377.659990 378.784785 379.816933
57.970000 376.162711 376.887972 377.686089 377.866082 379.011185 380.033213
58.020000 376.363195 377.087766 377.949453 378.091888 379.249168 380.270679
58.070000 376.562628 377.300295 378.241490 378.325962 379.504245 380.531455
58.120000 376.830006 377.493158 378.479816 378.555956 379.772107 380.751623
58.220000 377.218283 377.911005 378.940176 378.994689 380.244570 381.110350
58.270000 377.391075 378.120764 379.197288 379.221602 380.505072 381.319491
58.320000 377.588824 378.337266 379.430711 379.453529 380.771782 381.509265
58.370000 377.784233 378.538186 379.658978 379.700973 380.996616 381.720334
58.420000 378.016901 378.816236 379.897042 379.951860 381.251269 381.951564
58.470000 378.206754 379.104760 380.165089 380.212938 381.498452 382.118884
58.520000 378.414850 379.413191 380.459376 380.472919 381.694857 382.320607
58.570000 378.625241 379.743390 380.726535 380.733092 381.936675 382.495553
58.620000 378.828461 380.026719 380.967471 380.986351 382.172274 382.663946
58.670000 379.024054 380.343388 381.224384 381.238506 382.384322 382.839257
58.720000 379.140766 380.648202 381.472350 381.483508 382.596058 383.018155
58.770000 379.404121 380.955429 381.722723 381.729785 382.831726 383.191205
58.870000 379.780595 381.480339 382.170335 382.177101 383.191841 383.503782
58.920000 379.994171 381.705596 382.436571 382.409827 383.390475 383.691660
58.970000 380.166395 381.939458 382.684298 382.637966 383.579217 383.854982
59.020000 380.385160 382.155960 382.958827 382.867612 383.765701 384.048247
59.070000 380.562596 382.369526 383.227040 383.094036 383.955212 384.229194
59.120000 380.877464 382.582124 383.503126 383.320098 384.130800 384.402847
59.170000 381.067831 382.772987 383.719320 383.539603 384.320652 384.597034
59.220000 381.426971 382.987398 383.969956 383.752182 384.498960 384.815799
59.270000 381.810803 383.190035 384.184921 383.964511 384.687168 384.984655
59.320000 382.211666 383.419284 384.428627 384.182756 384.887815 385.217812
59.420000 382.801901 383.872769 384.807689 384.604670 385.245622 385.624521
59.520000 383.458703 384.317338 385.210465 385.031251 385.621902 386.063355
59.570000 383.795111 384.546291 385.418602 385.267948 385.843092 386.315074
59.620000 384.046932 384.832597 385.631142 385.508972 386.071001 386.575607
59.720000 384.572077 385.456540 386.087239 386.023803 386.591263 387.128997
59.770000 384.858918 385.715731 386.357301 386.309370 386.922813 387.441369
59.820000 385.110075 386.011591 386.652037 386.605917 387.283738 387.773630
59.920000 385.718668 386.579733 387.201775 387.168697 387.806388 388.385151
60.020000 386.087097 387.123485 387.786590 387.748968 388.421190 389.025029
60.070000 386.309292 387.344795 388.091181 388.023414 388.722721 389.345170
60.120000 386.512558 387.580035 388.337166 388.284821 388.996538 389.628227
60.170000 386.688573 387.819558 388.599223 388.555526 389.270989 389.966951
60.270000 387.069165 388.390031 389.103041 389.087734 389.831874 390.771731
60.370000 387.532026 388.912495 389.585958 389.608118 390.462539 391.404033
60.470000 387.967020 389.381031 390.084917 390.115974 391.007776 391.980408
60.520000 388.154325 389.638741 390.321633 390.379239 391.322216 392.261968
60.620000 388.638775 390.095523 390.841286 390.903806 391.958639 392.937243
60.670000 388.873405 390.333399 391.103568 391.167770 392.202566 393.195021
60.720000 389.177397 390.549532 391.384893 391.436927 392.487202 393.491220
60.820000 389.926278 391.027999 391.941194 391.983469 392.988096 394.167810
60.920000 390.642008 391.539184 392.475512 392.568138 393.632743 394.775988
61.020000 391.272868 392.125820 393.197519 393.289206 394.475779 395.549498
61.120000 391.992853 392.891113 394.031735 394.078748 395.309357 396.473173
61.220000 392.794605 393.936663 395.165911 395.181791 396.448422 397.850275
61.320000 393.882472 395.109183 396.379569 396.406246 397.755447 399.001052
61.420000 395.167326 396.346701 397.558655 397.598788 398.901232 399.967964
61.520000 396.681533 397.835268 398.993126 399.014876 400.230898 401.079594
61.620000 398.716367 399.744130 400.745225 400.653680 401.521161 402.185325
61.670000 399.155648 400.206214 401.187628 401.073106 401.884077 402.537606
61.720000 399.662526 400.701164 401.597133 401.487408 402.260157 402.842687
61.770000 400.040578 401.112661 401.957176 401.847248 402.579461 403.077552
61.820000 400.390396 401.550144 402.252148 402.167926 402.824985 403.301231
61.920000 401.444687 402.207036 402.786691 402.729191 403.253128 403.698987
62.020000 402.100976 402.714933 403.202541 403.181241 403.654633 404.097816
62.120000 402.663310 403.121307 403.579054 403.574791 404.007431 404.502332
62.220000 403.106550 403.526094 403.934135 403.946476 404.365949 404.840634
62.270000 403.344402 403.732822 404.135316 404.148468 404.549685 405.009856
62.320000 403.605826 403.952542 404.342287 404.350763 404.747715 405.231160
62.370000 403.807367 404.160384 404.542610 404.557217 404.937846 405.522693
62.420000 403.976674 404.362077 404.745138 404.760747 405.155586 405.729327
62.470000 404.171004 404.544758 404.943497 404.966760 405.388709 405.980444
62.520000 404.382133 404.745996 405.137781 405.175204 405.599660 406.207289
62.595000 404.672259 405.044497 405.431968 405.501649 405.951231 406.700088
62.670000 404.956186 405.340298 405.751242 405.841872 406.388741 407.106544
62.770000 405.340174 405.709291 406.208519 406.326778 406.973645 407.832631
62.820000 405.544425 405.926260 406.494101 406.603290 407.302935 408.183646
62.920000 405.973348 406.443613 407.207872 407.294896 408.152425 409.277614
63.065000 406.574008 407.276529 408.461904 408.674971 410.141397 412.056896
63.210000 407.301689 408.358051 409.923876 410.115138 411.871899 413.789555
63.355000 408.170536 409.588136 411.507136 411.602316 413.637513 415.480407
63.500000 409.258430 411.139827 413.104714 413.126715 415.214050 416.954307
63.645000 410.619620 412.462222 414.678583 414.634118 416.685215 418.812868
63.790000 411.989631 414.024159 416.174110 416.133744 418.198943 420.108906
63.935000 413.268115 415.509525 417.717966 417.616500 419.681790 421.329949
64.080000 414.922402 417.064667 419.237875 419.082358 420.946872 422.506316
64.225000 416.657777 418.781602 420.612514 420.523176 422.337292 423.597861
64.370000 418.686144 420.432026 422.011746 421.921871 423.468402 424.443834
64.445000 419.064606 421.018323 422.665480 422.507822 423.955592 424.983182
64.520000 419.881538 421.666910 423.197079 423.067521 424.446876 425.382422
64.640000 421.045821 422.582336 424.073055 423.944675 425.253786 426.290995
64.760000 421.957302 423.550122 424.955639 424.813048 426.004448 426.878916
64.880000 423.273304 424.572725 425.768473 425.650779 426.714507 427.562929
65.000000 424.406330 425.678729 426.586647 426.492184 427.324610 427.973542
65.120000 426.030316 426.627823 427.281476 427.269886 427.940255 428.582866
65.195000 426.423104 426.935711 427.637390 427.613731 428.276859 428.893187
65.270000 426.824076 427.218172 427.948332 427.932041 428.574825 429.149285
65.395000 427.271705 427.624311 428.410976 428.365063 429.025800 429.620460
65.520000 427.709929 427.994893 428.839374 428.774374 429.431393 430.054646
65.620000 427.980856 428.305444 429.159851 429.089408 429.774819 430.341067
65.670000 428.113339 428.448111 429.346465 429.253170 429.954267 430.502508
65.745000 428.345927 428.659395 429.581072 429.487701 430.208525 430.758336
65.820000 428.566121 428.880665 429.820208 429.728328 430.469361 431.016332
65.870000 428.708583 429.026343 429.987761 429.892723 430.641430 431.190311
65.970000 428.978950 429.288529 430.296399 430.186698 430.976897 431.475259
