depth(m) lower_95(kyr) lower_68(kyr) median(kyr) mean(kyr) upper_68(kyr) upper_95(kyr)
0.560000 3.042993 3.758762 4.535249 4.509344 5.297525 5.903047
0.660000 3.530473 4.326008 5.101729 5.079949 5.840980 6.653530
0.760000 4.098675 4.901737 5.741656 5.699492 6.465480 7.264322
0.860000 4.755023 5.549393 6.356264 6.350622 7.164748 7.939738
0.910000 5.099342 5.891853 6.694419 6.684044 7.514093 8.134648
0.960000 5.467841 6.259165 7.062679 7.040390 7.861962 8.420443
1.010000 5.835975 6.631977 7.441740 7.422083 8.243636 8.819938
1.060000 6.236065 7.023711 7.834599 7.794113 8.589117 9.163223
1.110000 6.667564 7.430004 8.234592 8.211208 8.973717 9.581821
1.160000 7.102779 7.915290 8.723906 8.691854 9.438027 10.085495
1.240000 8.065661 8.854811 9.643507 9.635763 10.426925 11.084433
1.320000 9.117918 9.839478 10.550124 10.535225 11.195870 11.939508
1.370000 9.681707 10.328436 11.006345 11.005729 11.648796 12.427910
1.410000 10.046087 10.703252 11.340390 11.366444 12.037211 12.724238
1.490000 10.861085 11.576979 12.406271 12.378353 13.202295 13.815469
1.570000 11.882142 12.643510 13.387412 13.325149 13.971933 14.443298
1.610000 12.231949 12.986214 13.700373 13.627282 14.243378 14.715518
1.660000 12.606612 13.343079 14.007399 13.943350 14.525935 14.955948
1.710000 12.990146 13.698263 14.298994 14.242867 14.790902 15.165038
1.820000 13.883541 14.381712 14.844620 14.837655 15.309128 15.659265
1.860000 14.134652 14.615113 15.072738 15.064856 15.534833 15.893165
1.910000 14.443818 14.911762 15.361289 15.354049 15.792552 16.255599
1.985000 14.884466 15.334742 15.782237 15.783556 16.227393 16.645653
2.060000 15.325454 15.791416 16.210758 16.202653 16.616250 17.018388
2.110000 15.618493 16.054581 16.508628 16.484918 16.900322 17.301267
2.160000 15.795841 16.318289 16.766894 16.744545 17.162945 17.529283
2.240000 16.209391 16.747682 17.188962 17.148873 17.558405 17.868719
2.320000 16.693177 17.149920 17.561866 17.537074 17.940043 18.192031
2.360000 16.861195 17.346321 17.756408 17.728801 18.118409 18.410390
2.410000 17.120611 17.583081 17.980475 17.946090 18.318055 18.628319
2.460000 17.297416 17.789323 18.187974 18.157916 18.520686 18.800982
2.510000 17.542076 18.010511 18.387619 18.355915 18.707021 18.973229
2.610000 17.911751 18.406097 18.757321 18.719695 19.052892 19.310229
2.660000 18.091801 18.606123 18.936815 18.902954 19.226782 19.450317
2.740000 18.451013 18.910354 19.214847 19.189035 19.495843 19.709067
2.820000 18.771362 19.191479 19.503861 19.468697 19.754347 19.969801
2.870000 18.941940 19.392527 19.697025 19.654030 19.934796 20.147332
2.910000 19.093426 19.558712 19.837126 19.801470 20.076594 20.282998
2.960000 19.353048 19.743929 20.009359 19.974847 20.236333 20.443921
3.010000 19.546922 19.917801 20.179367 20.148451 20.411528 20.605025
3.060000 19.698176 20.099294 20.339304 20.316657 20.572344 20.785246
3.110000 19.948527 20.271775 20.507960 20.488169 20.741316 20.938783
3.210000 20.317729 20.578674 20.801195 20.784045 21.011406 21.231220
3.320000 20.627999 20.906541 21.125881 21.108445 21.328866 21.532395
3.360000 20.754789 21.041419 21.258172 21.244528 21.464047 21.683353
3.410000 20.920521 21.211263 21.419785 21.406516 21.624045 21.834777
3.460000 21.065397 21.363127 21.585763 21.569112 21.788453 22.009346
3.510000 21.246083 21.521455 21.744683 21.730041 21.956664 22.171910
3.560000 21.420816 21.673096 21.892976 21.890299 22.120837 22.339473
3.610000 21.567211 21.827565 22.043777 22.045672 22.284155 22.509876
3.735000 21.869933 22.158822 22.386412 22.388761 22.648077 22.911633
3.860000 22.205107 22.489447 22.741243 22.741685 23.020718 23.250752
3.910000 22.346983 22.636013 22.886466 22.897850 23.196147 23.442214
3.960000 22.531780 22.784477 23.056078 23.060827 23.360685 23.611294
4.010000 22.681799 22.934386 23.221685 23.222057 23.516996 23.809818
4.060000 22.836116 23.095610 23.386976 23.381762 23.679848 23.969553
4.190000 23.172337 23.430293 23.735393 23.744561 24.067332 24.375172
4.320000 23.517963 23.774333 24.131131 24.112554 24.448734 24.742924
4.370000 23.656294 23.920606 24.296701 24.272795 24.618892 24.879201
4.410000 23.765281 24.048380 24.433779 24.406454 24.754593 25.025191
4.460000 23.925574 24.186557 24.601429 24.572110 24.929242 25.204976
4.570000 24.232977 24.513524 24.935960 24.911230 25.270941 25.554605
4.610000 24.372351 24.642890 25.067995 25.051154 25.429283 25.722925
4.660000 24.527089 24.813998 25.239203 25.225430 25.592096 25.950697
4.710000 24.652616 24.985347 25.424141 25.399711 25.777556 26.126731
4.820000 24.983823 25.305262 25.771919 25.746342 26.140843 26.561650
4.910000 25.258311 25.584158 26.062430 26.040054 26.427057 26.880419
4.950000 25.373852 25.708982 26.206438 26.183545 26.563621 27.080503
5.060000 25.674730 26.060993 26.560155 26.536034 26.935839 27.453394
5.160000 26.013344 26.363990 26.871747 26.856235 27.258996 27.867001
5.230000 26.219397 26.591791 27.102349 27.086755 27.503413 28.171403
5.320000 26.484677 26.885977 27.385328 27.381461 27.789324 28.531199
5.360000 26.616915 27.015310 27.531528 27.524736 27.955135 28.715337
5.410000 26.764803 27.170602 27.701729 27.703225 28.147921 28.996981
5.460000 26.928229 27.337116 27.860517 27.876810 28.328465 29.154462
5.563333 27.244624 27.649579 28.182272 28.216621 28.711079 29.645973
5.666667 27.534909 27.959851 28.495015 28.549714 29.109734 30.045357
5.770000 27.844716 28.273512 28.802421 28.880998 29.506706 30.500239
5.870000 28.153838 28.550687 29.116042 29.215230 29.914405 30.937460
5.920000 28.303658 28.723918 29.276720 29.404472 30.102117 31.221464
6.020000 28.624278 29.013370 29.603789 29.761558 30.542874 31.714071
6.070000 28.798978 29.201439 29.773634 29.952647 30.792088 32.015277
6.120000 28.978118 29.364759 29.948173 30.139068 31.000003 32.296342
6.170000 29.145106 29.536897 30.119330 30.336071 31.262615 32.546684
6.220000 29.323022 29.722754 30.292063 30.538118 31.487538 32.919014
6.270000 29.476885 29.914541 30.472744 30.738128 31.751339 33.203980
6.345000 29.744809 30.165603 30.739706 31.032579 32.082988 33.480638
6.420000 29.989218 30.406689 31.002669 31.319361 32.400419 33.971541
6.520000 30.296089 30.728136 31.329244 31.704966 32.845577 34.441587
6.570000 30.497211 30.900947 31.504585 31.911796 33.110715 34.754944
6.620000 30.657206 31.083914 31.695785 32.122136 33.374064 35.105293
6.670000 30.835702 31.271986 31.875375 32.333500 33.579788 35.365315
6.720000 30.997681 31.449564 32.058101 32.543969 33.851918 35.666288
6.795000 31.244799 31.715812 32.327912 32.862160 34.321790 36.046430
6.870000 31.521978 31.983818 32.629828 33.184872 34.771631 36.477636
6.920000 31.680939 32.162463 32.810072 33.397391 35.048407 36.740413
7.020000 32.031890 32.507530 33.226393 33.824106 35.586243 37.313114
7.070000 32.272201 32.703827 33.491083 34.050689 35.831010 37.580789
7.120000 32.471825 32.887510 33.717850 34.278566 36.148027 37.789060
7.170000 32.681970 33.072103 33.953421 34.505061 36.466208 37.990022
7.220000 32.839926 33.264781 34.213675 34.732194 36.730970 38.218177
7.270000 33.055021 33.435436 34.477016 34.952276 36.992447 38.457401
7.395000 33.400630 33.836306 34.971942 35.448042 37.502103 38.986676
7.520000 33.838079 34.229806 35.528639 35.961494 38.142251 39.611437
7.570000 34.002005 34.413481 35.774720 36.180031 38.422324 39.905108
7.670000 34.306376 34.769773 36.243137 36.604488 38.926996 40.369846
7.720000 34.498456 34.954479 36.476315 36.828671 39.256679 40.589212
7.795000 34.742340 35.257884 36.824017 37.157343 39.642164 40.935464
7.870000 34.996681 35.560217 37.185830 37.486308 40.008776 41.373074
7.970000 35.339415 35.976260 37.657777 37.940653 40.422362 41.937427
8.020000 35.531997 36.165344 37.893922 38.172414 40.614172 42.201337
8.070000 35.707396 36.398955 38.139309 38.405661 40.840402 42.503003
8.120000 35.915846 36.585456 38.356016 38.633173 41.057172 42.814079
8.170000 36.129888 36.818560 38.559606 38.857283 41.257119 43.160942
8.295000 36.564245 37.361494 39.016833 39.412718 41.818466 43.994083
8.420000 37.037342 37.989129 39.498981 39.954227 42.309761 44.708379
8.470000 37.191279 38.232059 39.695407 40.189234 42.482054 45.113293
8.520000 37.373925 38.483891 39.905641 40.423509 42.790620 45.479918
8.570000 37.543761 38.796097 40.115664 40.665894 43.074692 45.884952
8.620000 37.777068 39.083461 40.312251 40.912144 43.340887 46.110737
8.670000 38.012459 39.294113 40.536560 41.158328 43.610485 46.396720
8.720000 38.274801 39.526153 40.741453 41.405108 43.953301 46.615958
8.770000 38.483087 39.855533 40.946305 41.658283 44.304033 46.958835
8.895000 38.987263 40.405169 41.408299 42.263980 45.274719 47.713729
9.020000 39.505759 40.997646 41.895387 42.901263 46.484092 48.345028
9.070000 39.723775 41.208899 42.107656 43.150680 46.871968 48.656863
9.120000 39.924111 41.439927 42.372718 43.401137 47.191091 48.979938
9.170000 40.128274 41.663956 42.577618 43.656406 47.425743 49.230544
9.270000 40.743204 42.149087 43.105870 44.181285 48.036413 50.002665
9.370000 41.354869 42.610736 43.621201 44.706969 48.542802 50.539295
9.420000 41.731847 42.840652 43.879776 44.990380 48.863963 50.772465
9.470000 42.065240 43.122001 44.187543 45.295528 49.137032 50.969352
9.520000 42.465552 43.415708 44.472540 45.590113 49.429241 51.377650
9.620000 42.974635 43.984375 45.220147 46.233026 50.096567 52.453254
9.670000 43.250633 44.317081 45.510392 46.536538 50.438329 52.868775
9.720000 43.450369 44.632658 45.809322 46.843040 50.734800 53.470913
9.795000 43.893896 45.206407 46.293474 47.348361 51.209864 54.095356
9.870000 44.465605 45.740439 46.817396 47.868503 51.782549 54.752214
9.920000 44.760566 46.105954 47.125594 48.186478 52.108218 55.082327
9.970000 45.009541 46.430679 47.440773 48.497911 52.463850 55.401347
10.020000 45.583531 46.713968 47.706424 48.793382 52.783300 55.840350
10.070000 45.810839 46.982063 47.933980 49.099280 53.095866 56.164570
10.120000 46.018601 47.249263 48.248917 49.389729 53.445409 56.504654
10.220000 46.656976 47.784925 48.745637 49.997313 54.136189 57.246361
10.320000 47.202106 48.316851 49.269929 50.620620 54.701484 58.454868
10.370000 47.505152 48.588726 49.549003 50.922109 55.017888 58.942590
10.420000 47.691268 48.859092 49.889477 51.243200 55.432352 59.302233
10.470000 48.015741 49.133676 50.290244 51.593269 55.791000 59.569177
10.570000 48.606234 49.788422 51.223559 52.483252 56.633861 60.194603
10.670000 49.155913 50.460369 52.410293 53.477138 57.458933 60.636278
10.770000 49.907349 51.275630 53.716729 54.483815 58.842214 61.290318
10.845000 50.309578 51.956820 54.401081 55.172493 59.438121 61.672751
10.920000 50.828773 52.650956 55.247104 55.838272 60.089345 61.986092
10.970000 51.218725 53.039092 55.657395 56.252779 60.488400 62.276952
11.020000 51.670028 53.462956 56.083292 56.676485 60.839766 62.577976
11.100000 52.600832 54.340504 57.045208 57.512146 61.425428 63.023976
11.180000 53.508182 55.363004 57.865164 58.355025 61.944725 63.435723
11.305000 56.130950 58.043117 60.270703 60.350359 62.800120 64.106002
11.430000 59.140795 60.902429 62.326225 62.277857 63.830497 64.900660
11.480000 59.649114 61.344554 62.788484 62.691564 64.180253 65.216482
11.530000 60.211120 61.753663 63.194999 63.063634 64.482856 65.418901
11.580000 60.453524 62.101298 63.547048 63.416230 64.797817 65.677716
11.680000 61.362944 62.789682 64.263268 64.101046 65.401862 66.231857
11.730000 61.681786 63.168594 64.572853 64.409580 65.654201 66.480370
11.855000 62.623542 63.962651 65.268452 65.134520 66.264804 67.109174
11.980000 63.500692 64.817612 65.970910 65.855977 66.839203 67.710993
12.030000 63.793708 65.128740 66.291137 66.140248 67.106035 67.989061
12.130000 64.458878 65.761185 66.829417 66.689852 67.579937 68.420998
12.180000 64.877127 66.007751 67.084807 66.971012 67.865921 68.670199
12.280000 65.637277 66.626665 67.593320 67.541290 68.399103 69.114952
12.380000 66.399773 67.308934 68.165525 68.111164 68.911705 69.543140
12.430000 66.630463 67.653471 68.486942 68.432660 69.237106 69.783331
12.480000 67.019046 68.013125 68.794233 68.747443 69.535735 70.024000
12.530000 67.426571 68.313051 69.127121 69.057340 69.817271 70.337369
12.580000 67.874856 68.663880 69.425135 69.383428 70.103300 70.668783
12.630000 68.256742 69.021829 69.768222 69.717943 70.405114 70.984882
12.680000 68.542921 69.368862 70.108894 70.053387 70.716461 71.312366
12.730000 68.903563 69.734856 70.415047 70.390736 71.036316 71.677601
12.805000 69.429540 70.289028 70.943045 70.911756 71.570885 72.224116
12.880000 70.181810 70.834214 71.454459 71.460603 72.110418 72.725087
12.930000 70.595994 71.176297 71.809884 71.819051 72.441381 73.053114
12.980000 70.992850 71.539925 72.164977 72.172966 72.763917 73.372716
13.030000 71.336987 71.856622 72.524945 72.508320 73.114086 73.716018
13.080000 71.624774 72.165143 72.836502 72.847350 73.460893 74.166257
13.130000 71.947526 72.548098 73.151616 73.175468 73.766871 74.673774
13.180000 72.261176 72.855213 73.457544 73.481663 74.085008 75.043300
13.230000 72.541030 73.155048 73.767068 73.790063 74.356682 75.296453
13.280000 72.857557 73.464413 74.049665 74.092823 74.688501 75.637697
13.330000 73.193279 73.781245 74.326436 74.396743 74.999798 76.014028
13.380000 73.475932 74.069531 74.640989 74.719904 75.394497 76.442449
13.430000 73.807282 74.374505 74.959398 75.045987 75.745914 76.764825
13.480000 74.058537 74.685785 75.306783 75.381383 76.141627 77.033846
13.580000 74.647500 75.230014 75.953522 76.060406 76.947733 77.683760
13.630000 74.883474 75.558573 76.365082 76.421889 77.323933 78.024110
13.680000 75.233320 75.881710 76.766863 76.793067 77.698734 78.566758
13.730000 75.500453 76.221707 77.143461 77.163552 78.083130 78.991457
13.780000 75.837468 76.581661 77.575126 77.565859 78.449882 79.352200
13.855000 76.434288 77.198518 78.270343 78.227415 79.180260 80.065836
13.930000 76.988421 77.882030 78.904656 78.911441 79.900305 80.959649
13.980000 77.362171 78.340378 79.345276 79.342337 80.379496 81.420251
14.050000 77.751350 78.915599 79.970254 79.968290 81.050147 82.018643
14.150000 78.477571 79.668088 80.815910 80.855340 82.028125 82.971494
14.250000 79.152784 80.573076 81.742512 81.723666 82.865097 83.965165
14.375000 79.829070 81.544612 82.784205 82.877632 83.924294 87.701090
14.500000 80.558402 82.579393 83.719736 83.996710 84.742259 90.509955
14.550000 80.820813 82.959861 84.057198 84.343377 85.034654 90.960448
14.600000 81.179417 83.326955 84.366508 84.693730 85.375161 91.334354
14.650000 81.573761 83.714860 84.655185 85.038657 85.717939 91.737480
14.700000 82.053720 84.109795 85.010356 85.400588 86.153836 92.059084
14.750000 82.428067 84.528934 85.358237 85.824767 86.705513 92.426311
14.800000 83.036590 84.905756 85.808733 86.269818 87.257902 92.692649
14.850000 83.615369 85.352933 86.350370 86.779836 87.878102 92.905258
14.975000 85.871033 87.190812 88.964084 89.128005 90.981500 93.569293
15.100000 88.527572 90.078685 91.499432 91.457033 92.802366 94.257440
15.150000 89.096492 90.613726 92.030474 91.944618 93.167360 94.550729
15.250000 90.782895 92.011544 92.960013 92.974187 93.953880 95.127711
15.300000 91.424403 92.446760 93.384643 93.402213 94.306520 95.551563
15.350000 91.779842 92.903697 93.763510 93.787405 94.687878 95.999953
15.400000 92.352681 93.278209 94.151803 94.172266 95.021044 96.292022
15.450000 92.720967 93.617862 94.527339 94.537645 95.375368 96.576500
15.550000 93.520570 94.390295 95.223831 95.246746 96.110522 97.183712
15.600000 93.936974 94.749336 95.562985 95.597871 96.434938 97.499658
15.650000 94.335179 95.141038 95.923528 95.947473 96.763641 97.802621
15.700000 94.635966 95.454144 96.246939 96.292542 97.160266 98.189569
15.750000 94.906597 95.800604 96.617078 96.645213 97.453150 98.507370
15.800000 95.190756 96.151114 96.999746 96.982402 97.753260 98.791359
15.875000 95.739924 96.647968 97.491419 97.482895 98.320786 99.185687
15.950000 96.205537 97.161331 97.979262 97.976391 98.816353 99.689207
16.000000 96.498143 97.463826 98.300752 98.302227 99.173656 100.149149
16.050000 96.755945 97.729224 98.598444 98.617640 99.493392 100.531936
16.100000 96.989353 98.037512 98.936347 98.938114 99.863199 100.877166
16.150000 97.247217 98.330321 99.236365 99.249517 100.195827 101.223526
16.200000 97.604555 98.631408 99.541001 99.557877 100.501408 101.550886
16.250000 97.853729 98.923573 99.854317 99.877778 100.857778 101.790335
16.300000 98.139056 99.198014 100.198611 100.195071 101.220927 102.103797
16.350000 98.488282 99.487853 100.495420 100.509135 101.562217 102.453589
16.400000 98.858115 99.786212 100.783129 100.816773 101.888885 102.747811
16.500000 99.479583 100.343842 101.382836 101.421719 102.591815 103.311047
16.550000 99.848947 100.672622 101.667999 101.732403 102.923700 103.585429
16.600000 100.137440 100.961675 101.938096 102.033385 103.216101 103.949290
16.700000 100.800044 101.489577 102.506131 102.593332 103.734010 104.499609
16.750000 101.040190 101.811187 102.813610 102.892161 104.027512 104.750278
16.800000 101.295625 102.140696 103.142554 103.201785 104.328100 105.049987
16.850000 101.696957 102.463429 103.518451 103.538804 104.618702 105.453086
16.900000 102.037469 102.789143 103.857980 103.868199 104.900216 105.822533
16.950000 102.376469 103.123015 104.192497 104.185429 105.184900 106.128419
17.050000 103.008509 103.670357 104.876517 104.794988 105.794477 106.755307
17.100000 103.268422 103.972803 105.193003 105.106793 106.110388 107.102596
17.150000 103.523532 104.276791 105.501556 105.431205 106.411082 107.547053
17.200000 103.770411 104.593949 105.852108 105.755576 106.737363 107.873949
17.250000 104.061437 104.909396 106.152480 106.073733 107.076926 108.199109
17.300000 104.370231 105.210973 106.451885 106.391929 107.437898 108.635459
17.350000 104.682998 105.547943 106.789292 106.738962 107.803758 109.041979
17.450000 105.256124 106.204169 107.427703 107.439946 108.536061 109.899503
17.525000 105.634012 106.731660 107.972209 107.991413 109.224054 110.423734
17.600000 106.079396 107.308662 108.512759 108.529565 109.847264 110.950054
17.650000 106.411207 107.664220 108.871993 108.900947 110.255423 111.268455
17.700000 106.785088 107.983823 109.244294 109.256401 110.663106 111.544963
17.750000 107.175884 108.359992 109.669455 109.626580 110.993523 111.789339
17.800000 107.480787 108.724459 110.101549 110.000110 111.335099 112.061720
17.900000 108.251026 109.740219 110.943948 110.819710 111.903777 112.538019
17.950000 108.703608 110.172032 111.303978 111.189997 112.183602 112.861159
18.050000 110.098547 111.234226 112.024630 111.970061 112.744362 113.397897
18.100000 110.629723 111.577454 112.389472 112.316533 113.014281 113.610324
18.150000 111.140565 111.988924 112.735175 112.655804 113.316749 113.828470
18.200000 111.564579 112.353818 113.059489 112.992110 113.635740 114.162191
18.250000 111.986455 112.729969 113.391493 113.351540 113.957232 114.516767
18.300000 112.343418 113.065829 113.726285 113.697189 114.312382 114.848462
18.350000 112.778406 113.457632 114.086212 114.061205 114.681296 115.216841
18.400000 113.250778 113.886360 114.491682 114.494056 115.098348 115.749414
18.450000 113.617249 114.327553 114.989027 114.962192 115.589182 116.227923
18.500000 114.064752 114.765222 115.487491 115.488169 116.209786 116.937880
18.610000 114.857036 115.639220 116.526081 116.555822 117.496248 118.480421
18.720000 115.563281 116.608335 117.565037 117.574747 118.526166 119.525418
18.830000 116.744750 117.613879 118.644117 118.587899 119.529867 120.220571
18.930000 117.594127 118.524728 119.471131 119.420946 120.298378 120.924224
19.030000 118.390203 119.435233 120.300504 120.210046 120.960495 121.421198
19.130000 119.507740 120.272933 121.028203 120.926155 121.538199 121.917401
19.230000 120.296456 120.937011 121.567220 121.504728 122.035627 122.425752
19.280000 120.601398 121.255840 121.846505 121.784350 122.279136 122.696190
19.330000 120.894736 121.513713 122.092399 122.032097 122.505584 122.923282
19.430000 121.329760 122.028458 122.541111 122.472220 122.925300 123.326506
19.505000 121.691077 122.354517 122.849803 122.800532 123.243531 123.650289
