depth(m) lower_95(kyr) lower_68(kyr) median(kyr) mean(kyr) upper_68(kyr) upper_95(kyr)
0.790000 11.191118 12.068324 13.005709 13.007382 13.907730 14.733406
0.900000 12.752509 13.867201 14.777850 14.847625 15.860540 17.170867
1.010000 14.381106 15.389801 16.391869 16.495024 17.703979 19.029730
1.125000 15.706799 16.641500 17.706662 17.843015 19.118527 20.590657
1.240000 16.834567 17.876237 19.008736 19.154325 20.521906 22.234963
1.385000 17.998603 19.272589 20.528767 20.738604 22.175719 24.244812
1.530000 19.389853 20.685102 22.151765 22.346381 24.020960 26.175173
1.630000 20.416123 21.741625 23.399042 23.539468 25.287364 27.959421
1.730000 21.526947 22.848169 24.534557 24.784027 26.687120 29.521865
1.830000 22.543818 23.882817 25.669946 26.027352 28.111297 31.202463
1.930000 23.606172 25.035068 26.901484 27.286616 29.577302 32.824622
2.030000 24.618170 26.243620 28.133443 28.634511 31.128700 35.058212
2.115000 25.646509 27.260619 29.303253 29.867481 32.656269 36.599971
2.200000 26.724286 28.284997 30.572052 31.139354 34.093316 38.379281
2.290000 27.831791 29.550797 31.978954 32.605538 35.876005 40.041054
2.380000 28.979012 30.793658 33.474304 34.094341 37.674109 41.972406
2.490000 30.312437 32.322463 35.477343 35.994664 39.866220 44.286314
2.600000 31.727607 34.003635 37.603379 37.995379 41.914441 47.227860
2.715000 33.284653 35.799057 39.893297 40.241998 44.531409 50.131120
2.830000 34.911877 37.799108 42.494925 42.560720 47.195517 52.401007
2.925000 36.376687 39.524976 44.778982 44.585508 49.069558 54.413045
3.020000 38.033137 41.599640 47.050279 46.714174 51.357632 55.960627
3.160000 41.227203 45.479379 50.193636 50.209754 55.020127 58.500314
3.300000 44.857030 50.823842 54.552751 54.278268 58.348729 60.836774
3.440000 49.782175 54.790740 59.088973 58.314312 61.487421 63.846319
3.570000 54.449891 60.300314 62.938868 62.453044 65.013079 66.843599
3.690000 59.571579 63.903129 65.945323 65.708434 67.775825 69.283199
3.810000 64.193908 67.187814 69.208396 69.045937 70.943608 72.807336
3.910000 67.602538 70.073253 72.118892 72.075269 74.144008 76.391021
4.010000 71.213052 72.949945 74.982079 74.971214 77.062944 79.125780
4.130000 74.056078 75.822678 77.708073 77.801333 79.747781 82.078212
4.220000 76.077253 78.144471 80.026237 80.086034 82.105975 84.327505
4.320000 78.511668 80.682571 82.656511 82.667110 84.578142 86.859710
4.420000 81.251351 83.920791 85.601268 85.587349 87.443163 89.436696
4.520000 84.595147 86.378923 88.076664 88.091243 89.862431 91.541876
4.640000 87.141664 88.975275 90.751912 90.758224 92.647626 94.519762
4.760000 89.766276 91.698786 93.461881 93.575241 95.387263 98.374346
4.880000 92.967772 94.651106 96.527540 96.723463 98.772697 101.557935
5.000000 95.643834 97.627838 99.818581 99.956753 102.317208 104.823252
5.095000 97.537067 99.983596 102.914065 102.787948 105.537268 107.986405
5.190000 100.208444 103.093765 105.837127 105.728246 108.405132 110.526265
5.280000 102.554868 105.643056 108.594941 108.249954 110.737831 112.162954
5.370000 105.349525 108.465890 111.144496 110.734547 112.822753 114.006070
5.490000 109.966681 112.617097 114.249033 113.984765 115.380555 116.367211
5.600000 114.334182 115.776065 116.901653 116.886252 118.054286 119.320765
5.690000 117.573700 118.744447 120.245945 120.557969 122.465652 125.210474
5.780000 120.706130 122.471345 124.650805 124.646584 126.844718 128.164126
5.860000 126.452659 128.204247 129.347642 129.215324 130.314998 131.199380
5.935000 128.774727 130.158968 131.359271 131.411885 132.545879 134.217501
6.010000 130.589680 131.817691 133.021225 133.196204 134.418007 136.814234
6.113333 132.278792 133.568802 134.815200 135.166748 136.560753 140.154819
6.216667 133.901867 135.301829 136.624255 137.089643 138.578727 143.797499
6.320000 135.762214 136.978512 138.443833 139.030844 140.540728 147.710197
6.405000 137.148740 138.438800 139.958131 140.727932 142.368258 151.366668
6.490000 138.660446 139.990228 141.446492 142.531105 144.462049 154.957453
6.560000 140.106528 141.209037 142.891136 144.242915 146.589662 157.425564
6.620000 141.444282 142.630484 144.425816 145.949707 149.140344 159.205279
6.670000 142.548799 143.875184 146.222303 147.681550 151.753325 160.677164
6.750000 144.305437 146.478013 149.761926 151.107607 156.519716 162.720263
6.850000 146.862959 149.981784 155.790805 155.994256 162.114528 165.837484
6.950000 149.209032 155.802037 161.731047 161.278322 166.757729 169.632579
7.040000 152.530713 161.829064 166.456649 165.748178 170.328255 172.547651
7.140000 159.146483 166.458244 170.587737 169.804969 173.301628 175.832057
7.230000 164.087922 170.074620 173.366260 172.809380 175.939627 178.294710
7.310000 167.188023 172.606727 175.709054 175.209073 178.145454 180.167298
7.380000 169.117811 174.749969 177.667965 177.192850 179.871765 181.729356
7.460000 171.166569 176.948027 179.685634 179.254709 181.730600 183.721108
7.540000 174.087590 179.102066 181.704783 181.319477 183.671768 185.593333
7.610000 176.835052 180.991434 183.321229 183.033830 185.358617 186.940256
7.690000 178.408190 182.948793 185.291289 184.924145 187.156033 189.098714
7.770000 180.527643 184.904470 187.117396 186.816275 188.926864 190.975945
7.890000 184.709553 187.714460 189.792047 189.776718 191.892594 194.401209
8.010000 188.552164 190.549851 192.760669 192.892420 195.243704 197.448809
8.125000 191.480984 193.358282 195.963528 196.268315 199.335790 202.219985
8.240000 194.674236 196.970615 199.532859 200.067528 203.570137 206.139844
8.300000 196.514645 199.455105 202.213024 202.304508 205.399802 207.989377
8.350000 197.587019 201.776122 204.344678 204.245687 207.014392 209.364722
8.400000 198.668556 203.939529 206.316438 206.030036 208.470945 210.450660
8.450000 200.296628 205.562734 208.041667 207.682024 209.993374 211.930440
8.500000 202.277634 207.086631 209.703708 209.306987 211.606532 213.500124
8.550000 204.151751 208.582693 211.166614 210.856304 213.202844 215.165355
8.610000 207.478883 210.714022 213.064168 212.835587 215.016879 216.712551
8.700000 211.524112 213.982015 216.376257 216.056653 217.946163 219.105108
8.750000 214.087517 216.710339 218.644279 218.358946 219.909041 221.048762
8.800000 220.294392 221.328941 222.819056 222.944685 224.641042 226.513088
8.850000 222.172165 223.717253 225.714850 225.741273 227.607551 229.579872
8.900000 224.264681 226.392832 228.581825 228.491550 230.508999 232.113680
8.950000 226.596824 229.017021 230.829237 230.784252 232.556934 234.292354
9.000000 231.570354 232.984596 234.579050 234.639675 236.228308 238.371888
9.050000 234.124477 235.695238 237.404856 237.462024 239.403523 241.088150
9.100000 236.084126 237.857091 240.105812 239.843042 241.702692 242.755978
9.150000 237.508741 240.160776 242.747867 242.225549 243.832706 245.011582
9.235000 240.350566 243.211028 245.023231 244.851441 246.434335 248.159963
9.320000 244.195963 245.576990 247.028775 247.093991 248.557995 250.315025
9.400000 245.855119 247.238755 248.684182 248.782547 250.264608 252.056248
9.480000 247.269557 248.824901 250.221555 250.347157 251.868767 253.908315
9.620000 249.464159 251.023273 252.508460 252.653041 254.190331 256.924643
9.700000 250.726779 252.259717 253.794906 254.050941 255.750731 259.051643
9.780000 252.102452 253.598969 255.200079 255.480471 257.176623 261.166541
9.920000 254.301699 255.847912 257.558921 257.966689 259.963668 264.174649
10.000000 255.490816 257.120093 258.962187 259.455967 261.735254 265.673242
10.080000 256.964876 258.547088 260.436829 260.931309 263.384881 267.570813
10.220000 258.877522 260.805221 262.879038 263.400607 266.091752 271.155563
10.300000 260.180496 262.174536 264.342381 264.924741 267.660267 273.815973
10.380000 261.485940 263.543260 265.836076 266.432574 269.296972 276.067812
10.455000 262.756939 264.855043 267.305785 267.909259 270.787505 278.060316
10.530000 264.085184 266.180084 268.844463 269.360909 272.312003 280.166932
10.590000 265.062276 267.233404 270.138782 270.590756 273.343690 283.029404
10.675000 266.378324 268.817922 271.911429 272.283384 274.699449 286.382074
10.760000 267.866895 270.451156 273.516131 273.881216 275.944535 289.406519
10.890000 270.422532 272.938128 275.563547 276.053338 277.779651 292.629686
10.965000 271.967505 274.301297 276.782835 277.329520 278.839277 293.990073
11.040000 273.977038 276.009581 278.071953 278.686127 279.998962 295.626437
11.115000 275.586312 277.620501 279.406380 280.074835 281.205953 296.827225
11.190000 277.111168 279.271021 280.759408 281.491499 282.505551 298.300623
11.265000 278.736996 280.561470 282.139287 282.866595 283.881138 299.421835
11.340000 280.679898 281.935167 283.542857 284.258415 285.283972 300.602474
11.415000 281.879166 283.223373 284.923995 285.570083 286.516527 301.637666
11.490000 283.148101 284.542344 286.153343 286.848311 287.880620 302.645176
11.565000 284.546286 285.928014 287.511326 288.222565 289.142546 303.459146
11.640000 285.876744 287.470491 288.915390 289.662069 290.618656 304.457560
11.715000 287.305025 289.023349 290.509567 291.291796 292.613149 305.499457
11.790000 289.075320 290.556676 292.116511 292.950957 294.563295 306.434524
11.900000 290.816325 292.702900 294.541750 295.422025 297.191567 307.774136
12.010000 293.024265 295.016350 297.213834 297.976096 299.891542 309.311007
12.090000 294.598643 297.034170 299.319601 300.151306 303.563320 310.612774
12.175000 297.174749 299.501117 301.956485 302.857372 306.920281 312.066226
12.260000 300.115258 302.284704 305.334848 306.000906 310.120814 314.035779
12.390000 304.158142 307.550201 310.852013 311.003588 314.376589 318.366163
12.465000 307.008683 310.968666 313.924906 314.021394 317.549410 320.461779
12.540000 311.532885 313.833905 316.650483 316.788338 320.077852 321.987482
12.615000 313.801547 316.559963 319.454655 319.266682 321.885604 323.609311
12.690000 316.137039 319.683492 322.040876 321.714040 323.760461 325.326219
12.765000 319.135822 322.331616 324.161014 323.985143 325.763783 327.275784
12.840000 323.286622 324.652293 326.070447 326.047509 327.420612 328.881507
12.915000 324.721952 326.190369 327.539211 327.501694 328.814732 330.115672
12.990000 326.170817 327.489749 328.897231 328.845017 330.129497 331.293029
13.065000 327.384894 328.825723 330.132558 330.070459 331.330624 332.429370
13.140000 328.553309 330.038172 331.314586 331.249806 332.449641 333.603581
13.215000 329.920110 331.274281 332.536637 332.445656 333.578555 334.729855
13.290000 331.272632 332.582794 333.741213 333.665299 334.740764 335.908874
13.400000 333.055331 334.324730 335.375964 335.481308 336.539862 338.328297
13.510000 335.091232 336.099196 337.218649 337.408946 338.430788 340.913269
13.590000 337.190976 338.533019 340.357947 340.650853 342.876339 345.766509
13.675000 338.680242 340.657203 343.440245 343.439373 345.904748 348.957658
13.760000 340.030116 343.287780 346.136065 345.885496 348.259117 351.343378
13.890000 342.613573 346.808120 348.848873 348.934148 351.086010 355.719490
13.965000 343.977685 348.548598 350.381009 350.548255 352.679950 358.007726
14.040000 345.439289 350.000169 351.907669 352.061489 354.192319 359.405813
14.115000 347.080249 351.460657 353.373144 353.606221 355.830249 361.030610
14.190000 348.999912 352.860488 354.696046 355.081871 357.374079 362.873839
14.265000 350.902819 354.059974 355.993905 356.505177 358.833623 364.700383
14.340000 352.736974 355.519163 357.258115 357.897400 360.304047 366.225676
14.415000 354.019938 356.810090 358.651263 359.245459 361.613176 367.662446
14.490000 355.508643 358.097513 359.958665 360.562420 362.953071 368.903138
14.593500 357.842448 359.777076 361.646850 362.278947 364.841595 370.382375
14.697000 359.758342 361.565595 363.281985 364.020828 366.375397 371.837475
14.710000 360.036652 361.829528 363.561578 364.289752 366.602034 372.118262
14.790000 361.659936 363.268655 365.191021 365.879611 368.663805 373.475425
14.870000 362.865685 364.676326 366.991186 367.535809 370.613221 374.791004
15.010000 365.333257 367.183346 369.884791 370.290279 373.927646 376.973901
15.090000 366.666937 368.893841 371.591196 372.000392 375.506841 378.184421
15.175000 368.191085 370.744083 373.624724 373.857502 377.388348 380.105611
15.260000 370.072063 372.647512 375.517051 375.742831 379.145588 381.816018
15.390000 373.392053 375.663388 378.706218 378.910258 382.336592 384.561863
15.465000 375.245401 377.718500 380.944900 380.973765 384.147602 386.775392
15.540000 377.487426 379.911779 383.307575 383.130009 386.179971 388.888848
15.615000 379.261789 382.153172 385.307305 385.175726 388.089965 390.541697
15.690000 381.048585 384.561217 387.372153 387.227895 389.948174 392.141944
15.765000 383.061697 386.288998 389.250177 389.056209 391.732639 393.722520
15.840000 385.462466 388.308921 391.210247 390.805093 393.259337 394.946840
15.915000 387.467288 390.341762 392.839778 392.536512 394.674865 396.153832
15.990000 389.226076 392.428426 394.477719 394.264360 396.128404 397.518900
16.065000 391.965889 394.549184 396.123848 395.979697 397.498100 398.882725
16.140000 394.943545 396.403570 397.648805 397.692684 399.099225 400.346691
16.210000 396.779049 397.930627 399.202042 399.264843 400.696192 402.080347
16.290000 398.527690 399.580597 400.891700 400.934940 402.244525 404.039992
16.400000 400.323160 401.439518 402.876606 402.979220 404.464535 406.461956
16.510000 402.254080 403.346777 404.943616 405.002103 406.529948 408.570685
16.590000 403.453664 404.715232 406.484455 406.508051 408.111247 410.173794
16.675000 404.983835 406.337945 408.155947 408.249678 410.063594 411.993078
16.760000 406.431080 408.150306 410.000246 410.056581 411.969008 413.809770
16.890000 409.244051 411.165040 413.211550 413.073568 414.995702 416.344819
16.965000 411.169406 412.990501 415.001313 414.897918 416.700404 418.186864
17.040000 413.208392 415.004402 416.765164 416.695220 418.351063 419.793320
17.115000 414.724894 416.519785 418.138124 418.128774 419.697326 421.169583
17.190000 416.151270 417.871862 419.515304 419.489909 421.099449 422.381726
17.265000 417.590068 419.226199 420.931455 420.858007 422.503889 423.583534
17.340000 419.279036 420.936014 422.544406 422.383621 423.808358 424.807995
17.410000 421.239255 422.940626 424.356499 424.217547 425.442159 426.431700
17.490000 424.907422 426.413998 427.975674 428.258757 429.678147 434.578779
17.565000 426.433380 427.834413 430.509613 430.865725 433.839136 437.805889
17.640000 427.815729 429.043104 433.187074 433.274245 437.356653 440.168028
17.710000 428.849482 430.364479 435.034101 434.955748 439.180833 442.045975
17.790000 430.365240 432.300900 436.902573 436.799158 440.901283 443.604222
17.890000 432.035178 434.723111 439.354302 439.165791 442.990227 446.023314
17.990000 433.954634 437.518497 441.805144 441.488861 445.179535 448.524131
18.090000 436.072590 439.875829 444.087069 443.836505 447.468403 451.022537
18.175000 437.518160 441.827058 445.939966 445.693359 449.396133 452.748860
18.260000 439.336317 443.567239 447.728457 447.487261 451.106074 454.189204
18.390000 441.834009 446.281690 450.298989 450.050021 453.724783 456.436269
18.465000 443.139472 447.937234 451.797343 451.609538 455.371897 458.000906
18.540000 444.810088 449.673532 453.539264 453.187675 456.921406 459.355965
18.615000 446.466260 451.373562 455.338381 454.828603 458.300430 460.640502
18.690000 448.018025 453.154677 457.082646 456.559623 459.965706 462.098321
18.765000 449.877461 455.077800 458.797723 458.240219 461.433113 463.321730
18.840000 451.968190 456.871158 460.628823 460.015023 462.996955 464.571530
18.940000 455.539349 459.911451 462.843995 462.346901 464.860892 466.317218
19.040000 459.008500 462.666895 464.894790 464.632341 466.707433 468.260550
19.140000 462.232421 465.220365 467.059454 466.899588 468.555520 470.070737
19.220000 464.652708 467.035257 468.725948 468.581210 470.046573 471.559284
19.350000 467.594508 469.454439 471.000170 471.018207 472.377653 473.973022
19.425000 469.019989 470.859448 472.340232 472.386607 473.699985 475.131723
19.500000 470.413321 472.237098 473.650232 473.738930 475.040481 476.456025
19.630000 473.087481 474.548785 475.881379 476.043513 477.308258 479.409415
19.650000 473.528699 475.074754 476.324686 476.524359 477.739162 480.095062
19.725000 475.268650 476.844732 478.290222 478.638061 480.201682 483.005489
19.800000 476.859625 478.544313 480.576920 480.942550 482.998949 486.734209
19.875000 478.564439 480.630251 483.306350 483.845273 486.610349 492.624859
19.950000 480.791607 483.407659 486.229566 487.001348 490.213157 497.087166
20.025000 483.164774 486.309401 489.325205 490.149114 494.085636 500.124312
20.100000 486.523973 489.641030 492.556904 493.477946 497.834530 502.952217
20.175000 489.756304 493.125931 497.144037 497.681964 502.136138 508.047970
20.250000 494.005208 497.345952 501.966878 502.231667 506.256245 515.273309
20.360000 501.011172 506.240654 513.049116 513.072931 520.172889 524.744394
20.470000 514.570429 520.527585 524.303338 523.845940 527.099320 531.263393
20.550000 520.304072 526.130408 529.317856 528.973405 532.552256 534.484952
20.620000 527.422730 530.664542 534.091139 533.453872 535.886040 538.165911
20.720000 534.758329 536.899423 538.904937 539.258787 542.017944 545.748875
20.850000 538.562333 541.077545 544.315726 544.383043 547.714048 550.607612
20.925000 540.636113 543.689321 547.145876 547.058231 550.353077 552.651934
21.000000 542.700146 546.436344 549.791206 549.501835 552.508388 554.729097
21.075000 545.259896 549.082817 552.272876 552.000039 554.757168 557.035194
21.150000 548.030532 551.834998 554.752549 554.434176 556.926671 559.719974
21.225000 550.846540 553.926364 556.645457 556.603502 559.039266 562.392968
21.300000 553.474761 556.261396 558.574159 558.745173 561.194607 565.466263
21.375000 555.552732 558.250571 560.933781 561.214925 564.058080 569.233425
21.450000 557.200772 559.855702 563.491807 563.628097 567.010323 572.125517
21.525000 558.765349 561.114340 565.168699 565.600181 569.919442 575.495580
21.600000 559.927061 562.391247 566.930343 567.646092 572.821796 579.240538
21.675000 561.346658 563.588751 568.641406 569.837816 577.604133 581.235661
21.750000 562.578642 564.605636 570.566124 572.007379 580.862668 583.622851
21.850000 563.642116 565.970782 575.569789 575.342913 584.184548 588.414076
21.950000 564.924714 567.308435 581.272757 578.673026 587.777364 592.273327
22.050000 566.317768 568.561122 587.067040 582.068798 591.285781 595.514835
22.130000 567.263991 569.707961 589.977296 584.309991 593.607277 597.747216
22.220000 568.352880 570.829758 592.359743 586.370563 595.944518 599.579945
22.350000 569.778004 572.237435 595.078166 589.187123 599.155290 601.844587
22.450000 570.990608 573.517335 597.524437 591.313776 601.169248 603.286322
22.550000 572.171688 574.856692 599.968401 593.430321 602.814570 604.498185
22.630000 572.976499 575.928626 601.649038 594.927825 604.002742 605.360791
22.720000 574.021057 577.095523 603.220344 596.400761 605.161734 606.425014
22.800000 574.883235 578.120400 604.355524 597.574466 606.164305 607.404050
22.930000 576.519104 579.669714 605.889034 599.168889 607.583593 608.686823
23.000000 577.549059 580.672293 606.737343 600.081105 608.338656 609.349944
23.115000 578.957772 585.635468 608.016242 602.185510 609.525576 610.486615
23.230000 580.429328 592.344222 609.148698 604.361628 610.645657 611.674650
23.342500 585.052100 596.002503 610.234469 606.268676 611.665176 612.627453
23.455000 591.316213 599.952102 611.271362 608.195279 612.785709 613.675034
23.567500 596.954267 604.136814 612.451717 610.090406 613.727462 614.690085
23.680000 601.910594 607.383394 613.520236 611.870297 614.727681 615.806042
23.755000 604.863835 609.098388 614.270276 612.954537 615.439391 616.510318
23.830000 607.145626 610.702452 614.997743 614.000681 616.241840 617.214830
23.940000 609.679310 612.917839 616.046107 615.371781 617.316792 618.237746
24.050000 611.928013 614.634589 617.157266 616.678207 618.414272 619.320387
24.130000 613.469778 616.056426 618.049869 617.727365 619.291076 620.234989
