depth(m) lower_95(kyr) lower_68(kyr) median(kyr) mean(kyr) upper_68(kyr) upper_95(kyr)
0.110000 2.419721 3.291384 4.158639 4.119690 4.962642 5.687397
0.210000 4.062470 4.938473 6.032858 6.064536 7.114309 8.439382
0.310000 5.786451 6.915975 8.410240 8.453415 9.852673 12.038407
0.410000 11.331490 14.174078 15.999933 15.758782 17.306697 18.730326
0.510000 14.179341 16.229314 17.746357 17.658622 19.035168 20.855557
0.610000 16.735447 17.906302 19.179185 19.252727 20.571513 22.349465
0.710000 18.402665 19.481248 20.661969 20.813584 22.210476 23.822205
0.810000 19.838637 21.078308 22.405900 22.630445 24.249626 26.264837
0.910000 21.470994 22.770027 24.410759 24.520998 26.245112 28.191722
1.010000 23.120219 24.671681 26.543357 26.551335 28.413038 30.376445
1.110000 24.886555 26.532001 28.306397 28.417543 30.314746 32.385957
1.210000 26.590446 28.157074 29.995525 30.184748 32.173504 34.680294
1.310000 28.217253 29.821328 31.735731 31.924680 34.116355 36.750865
1.410000 29.258249 31.299169 33.471233 33.649785 36.133937 38.424010
1.510000 30.794007 32.828413 35.195759 35.375238 38.130287 40.282442
1.610000 32.282926 34.370421 37.114962 37.131868 39.906751 41.901429
1.710000 33.823490 36.013401 38.888621 38.845545 41.653369 43.435330
1.810000 35.161476 37.711902 40.748658 40.567888 43.298779 45.244207
1.910000 36.684647 39.267417 42.664265 42.258331 44.999848 46.701725
2.010000 38.024468 40.678856 44.393643 43.862969 46.617285 48.201100
2.110000 39.717916 42.136971 46.006952 45.412044 48.090171 49.417615
2.210000 41.166811 43.629114 47.484871 46.877265 49.467971 50.649018
2.310000 42.648090 45.103559 49.078645 48.316827 50.755642 51.913046
2.410000 43.843004 46.554578 50.487667 49.718591 51.989880 53.273521
2.510000 45.068350 47.915245 51.804310 51.028501 53.162302 54.607815
2.610000 46.336554 49.597937 52.994046 52.333373 54.420431 56.037288
2.710000 47.561802 51.129585 54.193327 53.621683 55.694073 57.139608
2.810000 49.035015 52.795433 55.450040 54.954965 56.930157 58.391697
2.910000 50.719526 54.231715 56.679019 56.311065 58.253817 59.670706
3.010000 52.328576 55.704132 57.997561 57.649566 59.489182 60.942192
3.110000 54.034787 57.156841 59.282528 58.992334 60.745637 62.139985
3.210000 55.650805 58.649319 60.533179 60.281260 61.940198 63.382051
3.310000 56.891393 60.107442 61.730731 61.562464 63.047750 64.591272
3.410000 59.199982 61.530081 62.975315 62.890815 64.367426 65.697369
3.520000 60.838412 62.869924 64.322743 64.197320 65.635532 66.950630
3.630000 62.158375 64.268447 65.627245 65.539159 66.934447 68.233810
3.740000 63.842473 65.632529 66.997071 66.915711 68.270454 69.377405
3.840000 65.608296 67.056938 68.270507 68.273673 69.540512 70.804130
3.940000 67.632719 68.838284 69.986466 70.035207 71.254950 72.898176
4.040000 70.626331 72.091294 74.155738 74.320002 76.663935 78.839670
4.140000 73.636504 75.509022 77.967009 77.780363 79.836468 81.265606
4.240000 76.555847 78.470878 80.195377 80.129307 81.737247 83.133023
4.340000 78.720980 80.328730 82.003013 81.908394 83.450717 85.002079
4.440000 80.251294 81.945823 83.656183 83.623879 85.229908 87.143403
4.540000 81.983616 83.675842 85.485362 85.516679 87.435951 89.375841
4.640000 83.621451 85.479213 87.480139 87.452830 89.509007 91.115314
4.740000 85.977341 87.617046 89.651287 89.540539 91.458986 92.762346
4.840000 88.327766 90.060538 91.788952 91.714816 93.341936 94.752815
4.940000 90.856072 92.546274 94.057685 94.002596 95.404643 97.009876
5.040000 93.226794 94.755575 96.020960 96.026038 97.268017 99.172140
5.140000 95.059705 96.595351 97.850487 97.931492 99.259886 101.109943
5.240000 96.809111 98.161692 99.632395 99.726455 101.243428 103.248786
5.340000 98.342172 99.853542 101.418327 101.571928 103.338458 105.053723
5.440000 100.493465 101.788111 103.644610 103.691729 105.539161 107.471857
5.540000 102.210145 103.712701 105.698251 105.740890 107.611493 110.020663
5.640000 104.137167 106.165027 108.023212 108.028572 109.929734 112.018072
5.740000 106.661499 109.022274 110.813721 110.670317 112.340618 113.955950
5.840000 110.259831 112.788657 114.265157 114.087149 115.478854 116.572070
5.940000 115.141026 116.458841 117.631342 117.617091 118.758198 120.046085
6.040000 118.168390 119.353261 120.659226 120.714532 122.019473 123.580157
6.140000 120.391741 121.846170 123.370929 123.326617 124.756982 126.371859
6.240000 122.505033 124.282376 126.234883 126.153423 127.874378 129.613928
6.340000 129.910219 131.303826 132.717126 132.711628 134.059903 135.741690
6.440000 132.828441 134.141971 135.524150 135.748856 137.349773 139.740629
6.573333 134.778440 136.317749 137.991661 138.325473 140.329853 143.466942
6.706667 136.855992 138.351853 140.150724 140.679817 143.183796 147.364731
6.840000 138.742679 140.331102 142.292376 142.916512 145.678279 150.439683
6.940000 140.273532 141.972354 144.090110 144.831520 148.012216 152.726315
7.040000 141.942318 143.644053 146.028525 146.815264 150.352583 155.016319
7.140000 143.508703 145.239382 147.969453 148.832051 153.046732 157.113306
7.240000 144.995194 146.965313 150.026191 150.843094 155.455932 159.280020
7.335000 146.364141 148.648125 152.122828 152.760184 157.401467 160.997243
7.430000 148.002846 150.441858 154.350743 154.725685 159.141964 162.588119
7.530000 149.624564 152.278364 156.936897 156.856099 161.096919 164.242540
7.630000 151.307686 154.496115 159.586832 159.066087 163.144464 166.159506
7.730000 153.220470 157.198369 161.859613 161.303578 165.142287 167.866382
7.830000 155.273635 159.724057 163.984634 163.478113 166.924180 169.690079
7.930000 158.162858 162.228594 166.027798 165.612540 168.685842 171.221887
8.030000 161.016837 164.648757 168.014511 167.734777 170.464852 173.558514
8.130000 163.728039 167.278267 170.168638 170.049553 172.729109 175.697524
8.230000 165.488006 169.410719 172.472138 172.218123 175.033398 177.736047
8.330000 167.574320 171.062668 174.392548 174.280705 177.488599 179.969322
8.430000 170.746865 173.147850 176.353738 176.331282 179.420742 181.930509
8.530000 172.975909 175.273157 178.403319 178.367044 181.464779 183.499995
8.630000 174.989281 177.502905 180.625692 180.476533 183.421789 185.373120
8.730000 177.195254 179.665007 182.818410 182.598637 185.377164 187.103774
8.830000 179.146039 181.849807 185.068358 184.696380 187.240953 188.809592
8.930000 181.531199 184.529834 187.315713 186.996816 189.182680 191.031406
9.030000 184.596680 187.866148 189.802561 189.719780 191.784833 193.830415
9.130000 189.164044 190.825798 192.370440 192.485914 194.227081 195.611203
9.230000 191.958876 193.185604 194.802486 194.852501 196.382398 197.976553
9.330000 193.845951 195.416940 196.936648 196.939812 198.362608 200.108911
9.430000 196.210169 197.496138 198.872992 198.985136 200.443542 202.448372
9.530000 197.997261 199.158050 200.632360 200.815338 202.413374 204.696775
9.630000 199.495603 200.890514 202.474786 202.707747 204.364631 207.544769
9.753333 201.485173 203.076420 205.005421 205.139875 207.116587 210.043347
9.876667 203.419481 205.407826 207.513529 207.554331 209.740794 212.127836
10.000000 205.520303 207.914202 209.999033 209.962787 212.029308 213.989024
10.100000 207.699840 209.767965 211.863307 211.810023 213.841298 215.601322
10.200000 210.110265 211.939065 213.802719 213.764258 215.642356 217.048133
10.300000 211.962310 213.965125 215.887962 215.714989 217.459323 218.599183
10.400000 214.422729 216.601667 218.406034 218.119501 219.481099 220.515607
10.500000 220.414191 221.148259 222.367009 222.883336 224.917331 227.617253
10.633333 222.704059 224.426514 226.559194 226.782895 229.171518 232.238002
10.766667 225.401403 227.890553 230.133677 230.201228 232.393404 236.050313
10.900000 229.552073 231.542174 233.122027 233.443535 235.220504 239.535007
11.000000 232.334336 233.599101 235.212566 235.639708 237.552649 241.894344
11.100000 235.330290 237.028822 239.227323 239.278305 241.477627 243.061673
11.200000 238.160087 241.953757 243.285603 243.015646 244.213920 245.684675
11.300000 243.452845 244.593526 245.708780 245.860029 247.251156 248.843560
11.400000 245.141683 246.329897 247.710116 247.873263 249.455056 251.942193
11.500000 246.758765 248.052956 249.530149 249.749036 251.385305 254.166719
11.600000 248.408993 249.812830 251.424032 251.650882 253.423179 256.462413
11.700000 250.120147 251.535770 253.186291 253.442620 255.299813 258.431943
11.800000 251.937250 253.271139 254.965297 255.298092 257.132129 261.085174
11.900000 253.580637 255.066864 256.939602 257.354501 259.703670 263.508676
12.000000 255.159729 256.934148 258.950347 259.527752 262.503830 265.708109
12.100000 256.833670 258.807541 261.337475 261.733383 264.975309 267.992086
12.200000 258.657244 260.981076 264.022564 264.115595 267.147450 269.987525
12.300000 260.855866 263.266230 266.701870 266.464253 269.295560 271.776510
12.400000 262.787680 265.976954 269.239881 268.907605 271.409858 273.930719
12.500000 264.918115 268.631124 271.581967 271.546775 274.136227 276.977917
12.600000 267.869388 271.487986 274.196198 274.427868 276.925749 279.922426
12.700000 270.930305 274.522211 278.398099 278.431560 281.514779 286.271453
12.800000 274.385937 278.319409 282.277580 282.243003 285.164969 292.254382
12.944000 276.803964 281.651743 286.134145 286.286487 290.110364 301.497782
13.088000 279.146057 285.009733 289.647990 290.090736 294.928488 305.123759
13.232000 282.569695 288.356821 293.455019 293.758406 298.888367 308.669981
13.376000 285.355655 291.703350 297.256872 297.410095 303.083637 311.757593
13.520000 288.532139 294.852206 300.686169 300.971583 307.006209 315.086429
13.664000 291.355594 298.199532 304.371434 304.466746 310.398389 318.002276
13.808000 295.348677 301.771499 307.696595 307.975281 313.931019 322.246005
13.952000 298.912039 305.016251 311.333752 311.562982 317.786845 325.803559
14.096000 302.864287 308.937462 315.089646 315.197831 321.727051 329.062376
14.240000 306.055110 312.203722 318.594269 318.657120 325.164731 331.944392
14.384000 309.157695 315.445314 322.034881 322.178248 328.592859 334.853608
14.528000 313.266383 319.099509 325.309168 325.709335 332.280518 338.080418
14.672000 316.202989 322.757411 329.055652 329.228859 335.819922 341.316138
14.816000 319.599129 326.473871 332.711777 332.741525 339.146787 344.950656
14.960000 323.468519 330.145934 336.121334 336.318745 342.755462 348.193122
15.104000 327.252225 333.379640 339.807820 339.838727 346.609014 351.610470
15.248000 330.940411 336.972049 343.390449 343.315777 349.857610 355.149077
15.392000 334.101737 340.708264 347.078132 346.945388 353.297334 358.761008
15.536000 337.572725 344.279207 350.808602 350.427130 356.299871 361.506014
15.680000 341.062335 347.923119 354.254897 353.733436 359.439275 364.037834
15.824000 344.401811 351.588540 357.800643 357.159387 362.321578 366.970333
15.968000 348.160997 355.087408 361.336766 360.653419 365.777575 369.829896
16.112000 352.239027 358.992692 364.972725 364.226719 369.064494 372.675393
16.256000 357.358257 362.985629 368.319926 367.720038 372.059228 375.343791
16.400000 363.316525 367.069465 371.650577 371.230521 375.017405 377.834326
16.500000 366.223488 370.063639 373.997135 373.750313 377.322929 380.148189
16.600000 369.355817 372.985705 376.256300 376.203180 379.738359 381.992379
16.700000 373.086118 375.948947 378.532484 378.773917 382.095191 383.955342
16.800000 376.266481 378.428740 381.090028 381.351555 384.562164 386.459052
16.900000 378.559002 380.600948 383.901959 383.833566 386.952426 389.110194
17.000000 380.464607 382.729155 386.662857 386.222345 389.149832 391.276112
17.100000 382.648281 385.104807 389.371857 388.668148 391.559193 393.376403
17.200000 384.795898 387.976719 391.730832 391.315588 393.966578 396.406922
17.300000 387.707483 391.466046 394.256444 394.074603 396.456342 399.319402
17.400000 392.447602 394.850699 396.840003 396.999335 399.095625 402.366927
17.500000 395.578176 397.484710 399.669417 400.300135 403.383391 407.976105
17.600000 398.750842 400.551584 402.589938 403.864372 408.344336 412.318002
17.700000 402.467525 404.425068 407.695804 408.030598 411.828495 415.187583
17.800000 406.987779 410.913429 414.405716 414.200544 417.240275 420.050879
17.900000 416.115658 419.151629 421.943160 421.582881 424.022978 425.382591
18.000000 420.207874 423.149853 425.270028 424.968436 426.822623 428.258090
18.100000 425.250627 426.560839 427.784053 427.762400 428.974681 430.171611
18.200000 428.047583 429.032765 430.024698 430.082129 431.092818 432.461878
18.300000 429.692073 430.592944 431.748009 431.787585 432.951555 434.327336
18.400000 431.194221 432.176546 433.367706 433.464412 434.709115 436.297797
18.500000 432.691249 433.831816 435.113622 435.231409 436.554865 438.833535
18.600000 434.313720 435.494300 436.794708 437.006587 438.455552 441.090309
18.700000 435.907436 437.144128 438.601075 438.831034 440.403788 443.265607
18.800000 437.457138 438.841714 440.436897 440.670925 442.507965 445.621342
18.900000 439.068196 440.593470 442.297544 442.768378 444.914594 449.293676
19.000000 440.846277 442.416315 444.391099 445.137525 447.963592 453.001894
19.145455 443.554520 445.392041 448.364556 449.578927 453.982059 461.782270
19.290909 446.060645 448.769582 452.957768 454.243996 460.018195 468.591748
19.436364 448.855761 452.015300 457.964629 458.884472 465.956697 473.244160
19.581818 452.288561 456.120586 463.201342 463.640219 471.274816 478.039301
19.727273 455.859405 460.858010 468.059190 468.236715 475.820871 481.696268
19.872727 459.780118 465.655167 473.095191 473.010367 480.220598 486.936325
20.018182 463.897359 470.868489 477.890955 477.707036 484.665949 490.186176
20.163636 468.924861 476.034757 482.663637 482.452408 488.871386 494.516318
20.309091 474.115351 481.153667 487.167950 487.026093 493.334257 497.814625
20.454545 481.039172 486.584120 492.029384 491.841221 497.168605 501.108334
20.600000 489.031511 492.705715 497.438100 497.154035 501.395958 504.166641
20.700000 494.677911 498.642846 502.566336 502.250377 505.617910 508.235946
20.800000 502.295496 505.511202 508.010046 507.822033 510.180958 512.018141
20.900000 506.944889 509.031318 510.909126 510.834291 512.717813 514.121248
21.000000 509.178771 511.494773 513.153279 513.047890 514.744379 516.024858
21.100000 511.428620 513.631059 515.126712 515.005950 516.434983 517.634806
21.200000 514.151018 515.787831 517.001513 516.932906 518.175428 519.359712
21.300000 516.161953 517.671080 518.828453 518.772248 519.914610 521.098252
21.400000 518.263149 519.479052 520.613232 520.592732 521.732560 522.735495
21.500000 519.835513 521.173917 522.319406 522.309920 523.481813 524.556832
21.600000 521.579926 522.772701 523.972754 523.962012 525.120383 526.368299
21.700000 523.219896 524.341446 525.629254 525.608105 526.790282 528.244009
21.800000 524.789199 525.975254 527.386119 527.397368 528.779089 530.377361
21.900000 526.551416 527.759178 529.267959 529.320474 530.925119 532.422550
22.000000 528.375202 529.890102 531.760971 531.633676 533.292211 534.473341
22.100000 531.226666 533.136618 534.920824 534.767975 536.146725 537.785776
22.200000 535.182547 536.562089 537.810990 538.225057 539.837253 543.616195
22.300000 536.990959 538.383076 540.124166 540.578793 543.076434 546.390440
22.400000 538.740002 540.403373 542.510596 542.861250 545.607239 548.398839
22.500000 540.735342 542.595737 545.196262 545.319361 548.180244 550.654047
22.600000 542.830690 545.248790 548.105942 547.939833 550.497929 552.364181
22.700000 545.409478 548.166498 550.844711 550.581701 552.945120 554.510306
22.800000 547.781355 550.755200 553.286987 553.096693 555.337353 557.552064
22.900000 549.880758 553.002553 555.454753 555.413037 557.751485 560.183333
23.000000 552.786800 555.517217 557.752600 557.820499 560.235765 562.727944
23.100000 555.021103 557.611124 559.900030 560.072048 563.047352 565.367951
23.200000 557.390449 559.694156 562.182507 562.394195 565.646461 567.625578
23.300000 559.605499 561.838739 564.622456 564.808281 567.936360 569.458364
23.400000 562.472446 564.914683 568.101216 567.687543 570.130017 571.650369
23.500000 565.766851 569.131276 570.771025 570.579772 572.157914 573.620850
23.600000 571.465673 572.250884 573.283387 573.390446 574.574351 575.806010
23.700000 573.093750 574.028645 575.363796 575.364907 576.635426 577.710719
23.800000 574.632047 575.915053 577.264487 577.177468 578.423866 579.323319
23.900000 576.633747 578.037541 579.213355 579.118706 580.249921 581.003417
24.000000 578.877307 580.163206 581.214432 581.271970 582.405754 583.973507
24.100000 581.864295 582.421919 583.300109 583.513793 584.564109 586.502761
24.200000 583.734066 584.573624 585.589867 585.768465 586.914197 588.992533
24.300000 586.114278 587.268253 588.661237 589.006787 590.406359 596.502312
24.400000 588.701648 590.194762 592.387092 592.974207 595.761021 600.492129
24.500000 590.884356 592.952503 596.531210 596.716919 600.807386 602.819449
24.600000 593.382736 596.019376 601.135822 600.187149 603.314299 604.847709
24.700000 596.223193 600.792289 603.774100 603.094012 605.357068 606.769600
24.800000 602.111365 604.471921 606.164085 606.004387 607.587336 609.049013
24.900000 605.409821 607.028017 608.486491 608.462913 609.882569 611.878773
25.000000 608.723864 610.028093 611.452086 611.519569 612.921549 614.547216
25.100000 611.325122 613.035449 614.703646 614.656147 616.245349 617.628779
25.200000 614.339442 616.284049 618.056667 618.037151 619.943719 621.209815
25.300000 617.723258 620.127111 622.567799 622.221375 624.076439 625.443673
25.400000 625.000309 626.064672 627.238694 627.529893 629.126922 631.467299
25.500000 627.690063 628.758261 630.225021 630.450437 632.102690 634.736601
25.600000 629.559170 631.238954 633.063007 633.120520 635.130742 637.220610
25.700000 631.593014 633.561109 635.536287 635.517435 637.526256 639.332108
25.800000 633.818349 635.706680 637.910049 637.882653 639.901422 642.012113
25.900000 635.999247 637.968612 640.113965 640.119462 642.142535 644.906836
26.000000 638.025713 640.205858 642.201643 642.314564 644.306035 647.796985
26.100000 640.279436 642.204587 644.293785 644.476735 646.564878 650.397682
26.200000 642.335410 644.306688 646.459957 646.811615 649.356510 653.420085
26.300000 644.159674 646.227970 648.614078 649.110569 652.167726 656.025727
26.400000 645.927589 648.293647 650.851141 651.448649 655.030049 658.933346
26.500000 648.083034 650.291221 653.315153 653.854217 657.827312 661.642156
26.600000 649.855411 652.410328 655.565012 656.203156 660.591372 663.784212
26.700000 651.920153 654.673446 658.089804 658.673232 663.118392 667.193348
26.800000 653.941444 656.907118 660.566215 660.997867 665.544367 669.112366
26.900000 656.036373 659.093084 662.996428 663.223524 667.596923 671.160581
27.000000 658.167268 661.568310 665.540841 665.619916 669.797121 673.520126
27.100000 660.827365 663.946887 668.027756 668.022814 672.084594 675.895410
27.200000 663.534084 666.681395 670.493273 670.603905 674.530294 678.356220
27.300000 667.025649 670.228134 673.666518 673.823130 677.781892 681.146899
27.400000 669.902829 673.372632 677.185468 677.085895 680.803344 683.676803
27.500000 673.810398 677.602211 681.014492 680.917158 684.501214 686.819548
27.600000 678.259800 681.785890 684.751007 684.556816 687.366723 689.217996
27.700000 683.288756 686.340103 688.561554 688.405567 690.506942 692.253468
27.800000 689.407556 690.923470 692.513007 692.679214 694.392324 697.113572
27.900000 692.390227 693.639890 695.246261 695.554444 697.461241 700.163037
28.000000 694.325602 695.866673 697.744227 698.124738 700.435583 703.625784
28.100000 696.133650 698.128919 700.332629 700.851298 703.560836 708.521363
