depth(m) lower_95(kyr) lower_68(kyr) median(kyr) mean(kyr) upper_68(kyr) upper_95(kyr)
0.070000 0.020036 0.121889 0.428929 0.510366 0.908803 1.463886
0.120000 0.556341 0.885796 1.316963 1.367833 1.834736 2.430978
0.170000 1.273528 1.695415 2.213793 2.236453 2.773584 3.362575
0.220000 2.015096 2.490887 3.065660 3.081466 3.666852 4.280274
0.270000 2.798397 3.332167 3.923821 3.956489 4.573651 5.197799
0.320000 3.590161 4.144094 4.844650 4.834177 5.486032 6.159549
0.370000 4.465392 5.040953 5.703572 5.720925 6.423942 7.094925
0.420000 5.313909 5.960205 6.606201 6.619071 7.335908 7.999081
0.470000 6.139815 6.871620 7.531820 7.536501 8.267516 8.995196
0.520000 7.138339 7.755030 8.482947 8.499963 9.235048 10.037562
0.570000 8.067990 8.760860 9.531938 9.569907 10.364080 11.284789
0.670000 10.166834 11.148529 12.334097 12.419927 13.641344 14.887206
0.720000 13.694699 15.211228 16.923805 17.580505 20.566550 23.616847
0.770000 16.087148 17.957991 20.894631 20.987937 24.073397 26.307940
0.820000 18.158532 20.937330 23.913666 23.742675 26.410046 28.496096
0.870000 21.301459 24.010552 26.566931 26.522737 29.014463 31.717546
0.920000 23.881194 26.428087 28.871413 28.983368 31.526723 34.784837
1.020000 28.893033 31.016945 33.851874 34.250975 37.453628 42.030853
1.070000 30.655625 33.023527 36.500808 36.572680 39.863607 44.738106
1.120000 32.650371 35.119038 38.901626 38.892696 42.154173 47.168062
1.170000 34.197921 37.803586 41.100479 41.131146 44.342119 49.026723
1.220000 36.022942 40.077070 43.006122 43.294293 47.163288 50.658518
1.270000 38.185012 42.470764 44.631359 45.231165 49.891075 52.388961
1.320000 39.967077 44.342088 46.065423 46.976497 51.695787 53.856754
1.370000 41.439797 45.859163 47.707860 48.622185 53.136736 55.197831
1.420000 43.702805 47.294044 49.350104 50.221350 54.607002 56.336333
1.470000 45.669555 48.868314 51.205617 51.994657 56.130617 57.727115
1.520000 47.861935 50.562476 53.731801 53.894774 57.589734 59.092811
1.570000 50.346174 52.517606 56.106267 55.809969 59.010475 60.443423
1.620000 51.957453 54.792578 58.392689 57.769308 60.487263 61.738303
1.670000 53.561516 57.406386 60.272634 59.716899 61.820595 63.040970
1.720000 56.463569 60.236692 62.132570 61.764464 63.447239 64.445313
1.770000 59.199778 62.100625 63.627220 63.384782 64.842576 65.916443
1.820000 61.278714 63.731224 65.045430 64.905006 66.253985 67.389110
1.870000 62.908390 65.103179 66.486892 66.361145 67.603859 69.005540
1.920000 64.701714 66.590085 67.902902 67.855091 69.169091 70.921293
1.970000 66.036360 67.951152 69.194251 69.303435 70.556351 73.344497
2.020000 67.469516 69.142904 70.348605 70.746383 71.855938 77.806565
2.070000 69.029965 70.332801 71.695372 72.331441 73.298447 86.611698
2.120000 70.438550 71.687671 73.083875 74.041960 75.133153 88.555578
2.170000 72.202930 73.403991 74.830664 76.181680 78.058131 90.572382
2.220000 73.673366 74.928316 76.607823 78.642058 84.106598 92.296546
2.270000 75.189676 76.438893 78.491648 81.324510 89.607886 94.084294
2.320000 76.500875 77.982595 81.022537 84.108104 92.979563 96.180599
2.370000 78.019677 79.591851 84.798139 86.987503 95.591462 98.720962
2.470000 80.857158 82.744150 97.921527 94.581589 101.154100 104.566100
2.520000 82.561456 84.658800 100.934091 97.557689 104.699739 107.931629
2.620000 87.747703 102.869718 109.198410 107.002866 112.292219 114.800802
2.720000 114.521096 117.469071 119.409480 119.447655 121.735774 124.133643
2.770000 116.834829 119.961033 122.593248 122.271750 124.576685 126.105673
2.820000 118.332875 122.397229 125.123042 124.550110 126.623711 127.637758
2.870000 120.144600 124.466148 126.856930 126.279923 128.066733 129.030266
2.920000 123.120179 126.734276 128.352894 128.034621 129.500705 130.453774
2.970000 128.562573 129.495756 130.467170 130.411250 131.313565 132.124145
3.020000 130.862622 131.819878 132.790090 132.939591 133.919969 135.656014
3.120000 135.220649 137.355303 140.853680 142.805090 149.697767 159.225569
3.220000 143.184037 151.949701 159.316287 158.600266 164.949013 168.960823
3.270000 148.911042 158.952210 164.891936 164.000870 169.407745 171.761909
3.320000 153.878495 164.583888 170.586139 169.081568 173.172857 175.105869
3.370000 161.375744 168.991667 173.491633 172.566550 176.026642 178.981076
3.420000 166.333214 172.144346 176.082830 175.477451 178.845984 181.458731
3.470000 170.254814 175.034769 178.454499 178.159913 181.403014 183.726255
3.520000 173.501635 177.784512 180.827209 180.603925 183.583317 185.597108
3.570000 176.177642 180.700361 183.500043 183.131262 185.801999 187.395552
3.620000 179.528602 183.768396 186.216252 185.748821 187.769313 189.334337
3.670000 184.612583 187.359049 188.890025 188.781688 190.434640 192.102318
3.720000 188.354397 189.645756 191.249506 191.339148 193.144470 194.861885
3.770000 190.563318 191.901066 193.982380 193.902978 195.846596 197.050811
3.820000 192.515773 194.445567 196.579590 196.325847 198.017571 199.062632
3.870000 194.283990 196.511424 198.468767 198.223407 199.727789 200.825797
3.920000 195.859000 198.182691 200.070583 199.796407 201.236784 202.453107
3.970000 197.308191 199.552754 201.549552 201.258676 202.734877 204.050663
4.020000 198.511433 200.744580 203.012327 202.772818 204.443274 206.375219
4.070000 199.670930 202.098237 204.455274 204.266964 206.112465 208.662848
4.120000 200.950551 203.376188 205.899156 205.755163 207.752549 210.502966
4.170000 202.203764 204.729728 207.389137 207.254380 209.358378 212.913109
4.220000 203.469586 205.995949 208.784997 208.767170 210.945119 215.732678
4.270000 204.743438 207.286479 210.189742 210.418841 212.441806 222.363383
4.320000 206.231360 208.817979 211.709690 212.047965 214.066789 227.942839
4.370000 207.399546 210.326425 213.354511 213.674425 215.743114 230.378160
4.420000 208.656827 211.744299 215.153088 215.521191 217.612343 232.613934
4.470000 209.890662 213.491546 216.846938 217.755936 219.694413 233.948505
4.520000 211.100585 215.234284 218.810239 221.082536 231.977167 235.201718
4.570000 212.405901 217.534398 231.638567 227.466687 234.401421 236.495956
4.620000 213.506263 219.458650 234.812510 231.742778 236.371518 238.020642
4.670000 214.787580 232.735737 236.611373 233.691485 238.067230 239.522462
4.720000 216.201839 234.964095 238.037885 235.208700 239.593273 240.967746
4.770000 217.873544 236.950335 239.394337 236.742241 240.926236 242.287795
4.820000 221.480061 238.151424 240.739672 239.106060 242.294674 243.856097
4.870000 233.921699 240.086149 242.115293 241.447003 243.437237 245.223745
4.920000 237.288086 242.168573 243.492668 243.434776 245.034809 247.377842
4.970000 243.482487 244.581600 245.920953 246.962236 249.310735 257.031110
5.020000 245.135110 246.312013 248.394660 250.361280 256.843742 260.463131
5.070000 247.006618 248.557250 255.353337 254.836620 260.429453 264.142088
5.120000 248.953687 253.468223 260.177379 259.384878 264.481550 267.263606
5.170000 252.471809 259.220385 264.337272 263.580464 267.526896 270.481529
5.220000 256.714403 264.661352 268.729599 267.896399 271.074065 273.451518
5.270000 263.783342 269.261506 272.073380 271.764766 274.379525 276.859035
5.320000 269.820674 274.363661 276.799663 276.630268 279.175262 281.473626
5.370000 274.249678 278.184293 280.709848 280.634457 283.349460 287.290061
5.420000 275.845513 282.666116 285.542456 285.045445 287.955781 290.451846
5.470000 277.194379 289.761970 292.344887 291.467793 294.827763 296.734690
5.520000 278.713560 293.155435 295.985598 294.826038 298.201361 299.837759
5.570000 280.984905 296.650756 299.479174 298.173469 301.489493 303.284263
5.620000 283.057326 299.037961 301.361365 300.200401 303.396541 305.230080
5.670000 285.296609 300.674435 302.839846 301.909566 304.984130 306.951795
5.720000 286.682076 302.078916 304.425326 303.476993 306.430299 308.251708
5.770000 288.368022 303.643464 305.875178 305.045770 307.789156 309.658849
5.820000 291.092481 305.202571 307.297559 306.589511 309.237804 310.947875
5.870000 296.509631 306.666412 308.791059 308.191333 310.595435 312.287023
5.945000 302.281024 308.737557 310.898064 310.492462 312.733170 314.517233
6.020000 307.462421 310.936458 312.983556 312.786319 314.914959 316.480000
6.070000 309.353713 312.202938 314.358134 314.158391 316.301726 317.877185
6.120000 310.473050 313.476332 315.640168 315.488839 317.802033 319.293460
6.170000 311.742199 314.700255 316.823078 316.735676 319.033569 320.614251
6.220000 312.837728 315.893861 318.105229 318.009202 320.201742 321.864653
6.320000 314.566189 318.513009 320.462328 320.253548 322.196437 324.063459
6.370000 315.705865 319.819866 321.657965 321.500068 323.395184 325.389885
6.420000 316.471191 321.225581 322.998456 322.876546 324.758241 327.510541
6.470000 317.591018 322.506174 324.479194 324.514302 326.991943 329.761288
6.520000 318.573248 323.972876 326.725516 326.555578 329.550306 331.706547
6.570000 319.484693 326.169445 329.594087 328.819443 331.596394 333.013936
6.620000 320.633498 328.758997 331.447684 330.605570 332.903152 333.918519
6.670000 321.765575 330.882858 332.670004 331.940588 333.851026 334.766512
6.720000 323.262916 332.350124 333.731644 333.166098 334.691751 335.648217
6.770000 326.166358 333.596440 334.694100 334.345132 335.573977 336.522717
6.820000 333.457105 334.764382 335.708177 335.614683 336.567302 337.569789
6.870000 335.140765 335.979749 336.806272 336.892491 337.698840 339.134900
6.920000 336.333781 337.115047 337.998540 338.453713 339.314669 345.493895
6.970000 337.644624 338.489962 340.018057 341.537905 345.950539 349.284239
7.020000 338.671618 340.027401 345.179259 344.745965 348.834307 352.856562
7.070000 339.913948 343.382061 347.679796 347.605035 351.153630 356.624968
7.120000 341.612496 346.656949 349.416133 349.878065 354.026534 358.549110
7.170000 345.011403 348.501186 351.091434 351.910967 356.276397 361.449703
7.220000 347.150117 350.268280 352.747492 353.756288 358.801536 363.308633
7.270000 348.718025 352.009117 354.391828 355.508091 361.464550 365.527161
7.320000 350.343790 353.633410 355.734558 357.094512 363.925344 367.285194
7.370000 352.160183 354.964940 356.974205 358.494045 365.770211 368.842783
7.420000 353.902650 356.322645 358.211617 359.834773 367.056703 369.968930
7.470000 355.527185 357.609772 359.549591 361.177014 368.411099 371.099966
7.520000 357.003273 359.084284 361.070735 362.606590 369.651574 372.021799
7.570000 358.594150 360.672372 362.880984 364.329201 370.636280 373.167333
7.620000 360.164504 362.327124 365.485297 366.476395 371.978390 374.149195
7.670000 361.979742 364.323795 368.802715 368.788149 373.589396 375.219001
7.690000 362.622355 365.205681 369.726414 369.559015 374.094091 375.745302
7.740000 364.881180 368.383661 373.102875 372.393833 375.855475 377.210011
7.790000 367.026855 372.485873 375.883965 375.133584 377.596276 378.938178
7.840000 370.396836 376.047628 377.942267 377.477067 379.122208 380.502836
7.890000 374.295925 377.743747 379.180826 378.928468 380.253607 381.648262
7.940000 375.975459 378.956460 380.240985 380.088200 381.263207 383.149268
7.990000 377.425509 379.872144 381.209534 381.092206 382.293100 384.453901
8.040000 378.587554 380.938075 382.170574 382.090520 383.282095 385.503086
8.090000 379.791860 381.899912 383.120418 383.138589 384.349021 387.032055
8.140000 381.292486 382.983558 384.185453 384.319612 385.654373 389.082812
8.240000 383.515404 385.020632 386.465807 386.801403 388.730708 391.878272
8.290000 384.811630 386.142238 387.818344 388.161227 390.507471 393.067801
8.390000 386.885544 388.508058 391.021696 390.998087 393.346584 395.306555
8.440000 387.990734 389.784475 392.900165 392.567055 394.896022 396.476557
8.540000 390.616670 393.117929 396.094825 395.788164 398.083671 399.914890
8.640000 393.798989 396.654577 399.002456 398.733216 400.734700 402.465559
8.740000 397.744495 399.799644 401.634080 401.448978 403.025110 404.536140
8.840000 400.131125 402.120338 403.449911 403.404293 404.715961 406.374596
8.890000 401.260369 403.013288 404.302536 404.327782 405.669644 407.207841
8.990000 402.607535 404.612084 405.920088 405.928283 407.326612 408.951821
9.090000 404.219038 406.195309 407.536556 407.507338 408.913276 410.376176
9.190000 405.779221 407.696735 409.051262 409.072277 410.550607 412.061287
9.265000 407.059672 408.897536 410.271211 410.260676 411.745290 413.168994
9.340000 408.312219 410.109777 411.499520 411.462753 412.928981 414.383758
9.390000 409.263475 410.923252 412.423117 412.348404 413.781367 415.259197
9.440000 410.121969 411.897843 413.323577 413.287436 414.712595 416.157347
9.540000 411.893749 413.653951 415.151314 415.140279 416.667704 418.073946
9.640000 413.720473 415.462675 417.055293 417.016810 418.526808 419.967412
9.740000 415.918855 417.611547 419.055379 419.058955 420.496739 421.746107
9.840000 417.864323 419.570641 420.912854 420.841636 422.141808 423.479922
9.965000 420.715086 422.065033 423.215566 423.176582 424.311332 425.569843
10.090000 423.301354 424.534992 425.469344 425.447150 426.390526 427.438554
10.140000 424.365370 425.450735 426.213156 426.277957 427.082633 428.311240
10.240000 426.713357 427.428643 428.040729 428.125474 428.834223 430.131417
10.290000 427.769115 428.414999 429.013895 429.158887 429.892209 431.331625
10.340000 428.809978 429.430645 430.099087 430.301105 431.167361 432.873768
10.440000 430.492328 431.281636 432.343468 432.618007 434.010310 435.800338
10.490000 431.483427 432.480192 433.909511 434.195370 435.928395 438.329689
10.590000 433.968719 436.048162 439.257545 440.309599 444.964689 451.077541
10.640000 436.890365 439.491104 443.436229 443.775732 447.812822 453.934916
10.690000 438.988345 442.003319 445.981336 446.180585 450.084314 455.649688
10.740000 440.636214 444.272368 447.936399 448.256442 452.415648 457.546175
10.790000 442.340043 446.308862 449.749276 450.153572 454.329516 459.191118
10.840000 443.807310 447.919805 451.395388 451.825850 456.341530 460.911097
10.915000 446.461221 450.698076 454.181822 454.628676 459.304249 463.363510
10.990000 449.012997 453.295631 456.988816 457.316675 462.123519 465.273171
11.040000 450.764328 454.694406 458.503444 458.831999 463.680919 466.393566
11.090000 452.324698 455.940116 459.877313 460.273987 465.172314 467.884515
11.140000 453.723432 457.093182 461.106022 461.487845 466.240094 468.851866
11.240000 456.532135 459.477497 463.499797 463.735893 468.476941 470.744314
11.340000 459.046751 461.912740 465.589177 465.978027 470.568848 472.652163
11.440000 461.777358 464.411832 467.971731 468.264015 472.614026 474.398328
11.490000 462.815035 465.490277 469.471951 469.474648 473.637524 475.186937
11.540000 464.383219 466.790881 471.256751 470.846791 474.669042 476.081806
11.590000 465.660960 468.054390 473.168602 472.316840 475.733846 477.206186
11.640000 467.226889 470.072269 474.903304 473.886368 476.785255 478.324555
11.690000 468.715550 472.134920 476.409567 475.519503 477.930758 479.755101
11.740000 470.041325 474.505797 477.771108 477.141966 479.430521 481.284061
11.790000 471.434356 476.866037 479.153553 478.768352 480.919793 482.803872
11.840000 473.540228 478.551612 480.522795 480.265815 482.458227 484.104491
11.890000 475.694427 479.944560 481.970634 481.729082 483.773682 485.328264
11.990000 480.902686 483.155209 485.038308 484.955722 486.720759 488.631247
12.040000 482.661401 484.911758 486.872118 486.790252 488.588117 490.385965
12.140000 486.216927 488.537393 490.270811 490.204299 491.851144 494.110131
12.190000 487.757260 490.165841 491.929321 491.932376 493.771245 495.759027
12.240000 489.106524 491.685894 493.544933 493.540259 495.486741 497.414042
12.290000 490.874420 493.165427 494.959209 495.017473 497.029837 498.794683
12.340000 492.637871 494.254820 496.258484 496.287381 498.408541 500.183607
12.390000 493.760552 495.475645 497.539949 497.528007 499.555637 501.336586
12.440000 494.845332 496.659221 498.755359 498.711392 500.782339 502.380946
12.490000 495.900918 497.845510 499.922931 499.847625 501.905324 503.444624
12.540000 497.008252 498.948787 501.024025 500.961918 503.064316 504.430454
12.615000 498.694993 500.581469 502.577176 502.542383 504.495072 505.968670
12.690000 500.600924 502.399016 504.245367 504.183851 505.979516 507.463238
12.740000 502.029855 503.750346 505.456929 505.428487 507.123770 508.524540
12.790000 503.821057 505.283697 506.931217 506.897809 508.462623 510.086384
12.840000 505.244684 506.789934 508.266921 508.283718 509.807006 511.453318
12.890000 506.496640 507.975630 509.427333 509.456847 511.024916 512.738300
12.965000 507.852915 509.336510 510.940258 510.984878 512.647813 514.275001
13.040000 509.434411 510.851331 512.476756 512.528947 514.261214 515.783339
13.090000 510.376393 511.824593 513.549714 513.593358 515.260339 516.709669
13.140000 511.583406 512.949476 514.742259 514.707273 516.300727 517.792972
13.190000 512.596596 514.141927 515.911856 515.826201 517.456630 518.909601
13.240000 513.627208 515.363183 517.079487 517.020651 518.645798 520.217097
13.290000 514.976451 516.615732 518.180116 518.247081 519.928434 521.617340
13.340000 516.257747 517.810645 519.425246 519.513611 521.279494 523.228175
13.390000 517.444365 518.946815 520.642998 520.752811 522.593816 524.787717
13.490000 519.388376 521.123739 522.895321 523.029223 524.996912 527.174907
13.615000 521.617447 523.494917 525.688012 525.750338 527.994514 530.015716
13.740000 524.088911 526.211295 528.545156 528.524814 530.713766 532.598802
13.865000 527.126869 529.372785 531.569543 531.368304 533.314544 534.853614
13.990000 530.729897 532.951086 534.470106 534.378260 535.734500 537.183885
14.040000 533.064813 534.888241 536.049386 536.099439 537.304078 539.353624
14.090000 535.035036 536.175823 537.360645 537.490923 538.880604 540.846554
14.140000 536.166265 537.344600 538.615902 538.816490 540.348625 542.561492
14.190000 537.396170 538.654729 540.047509 540.262512 541.900619 544.129592
14.240000 538.594252 539.854735 541.469687 541.597222 543.443283 545.465775
14.290000 539.744267 541.053301 542.756282 542.899567 544.727899 546.689696
14.340000 540.833483 542.263816 544.143137 544.204059 546.093331 548.102162
14.390000 541.844247 543.575857 545.489011 545.517429 547.487728 549.354403
14.490000 543.950196 545.919511 547.878068 547.888559 549.903830 551.648377
14.540000 545.408281 547.077015 549.184437 549.120012 551.091655 552.973256
14.590000 546.634559 548.292164 550.395374 550.278694 552.212855 553.960297
14.640000 547.825148 549.486456 551.562018 551.463813 553.381470 555.140426
14.690000 549.009553 550.786027 552.763073 552.706767 554.527479 556.325338
14.740000 550.389409 552.289074 554.242972 554.187632 556.048961 557.643463
14.790000 551.809130 553.809862 555.834192 555.764035 557.790237 559.296517
14.840000 554.124025 556.031387 557.986525 557.971539 559.895768 561.740458
14.890000 556.152183 558.145975 560.266212 560.278686 562.362131 564.612304
14.940000 559.182869 561.323278 563.864466 563.734420 565.857876 569.625549
15.015000 562.045896 564.640917 567.233326 567.465377 569.942997 575.047801
15.090000 565.992803 568.765524 570.766150 571.436560 574.610741 579.651641
15.140000 569.750730 572.475879 574.839387 575.272289 578.454011 580.977421
15.240000 577.998874 582.923831 585.557688 585.745503 589.022901 592.787142
15.290000 580.175064 585.398945 589.187952 588.961293 592.816310 595.057992
15.340000 582.339094 587.574019 591.341582 591.121491 595.169945 596.940848
15.390000 583.834967 590.019142 593.922204 593.426231 597.018371 598.639988
15.440000 585.243210 591.846694 596.339257 595.462719 598.727464 600.475548
15.490000 587.162111 594.267426 598.398164 597.362301 600.381492 602.110625
15.540000 590.272744 596.875867 600.259473 599.396364 602.179250 603.915273
15.640000 597.660894 601.340607 603.496437 603.221011 605.294247 606.959783
15.690000 600.840061 603.478307 605.301063 605.259123 607.201505 608.925267
15.740000 603.263324 605.112763 606.972470 607.068844 609.165743 611.237453
15.790000 605.004917 606.780227 608.538956 608.723060 610.895869 613.322217
