depth(m) lower_95(kyr) lower_68(kyr) median(kyr) mean(kyr) upper_68(kyr) upper_95(kyr)
34.240000 316.447364 320.048398 320.800558 320.561040 321.328814 322.015441
34.270000 316.594208 320.250736 321.001869 320.739884 321.493257 322.180718
34.300000 316.767943 320.422809 321.162752 320.902716 321.653744 322.322362
34.330000 316.935576 320.597574 321.329596 321.060953 321.790640 322.464705
34.390000 317.252199 320.886269 321.622167 321.356742 322.087809 322.830171
34.420000 317.434781 321.028399 321.780057 321.504303 322.235356 322.934504
34.450000 317.633484 321.147013 321.924615 321.647870 322.365410 323.078325
34.555000 318.674108 321.485351 322.324191 322.083481 322.843055 323.472607
34.660000 319.484693 321.835125 322.718897 322.500358 323.275122 323.855438
34.780000 320.668878 322.193920 323.154885 322.953083 323.715599 324.222318
34.900000 321.292258 322.565964 323.595033 323.392936 324.159455 324.597979
34.990000 321.784445 322.851674 323.948814 323.735447 324.488215 324.924153
35.020000 321.949445 322.962421 324.063677 323.864564 324.631376 325.049660
35.110000 322.405952 323.297313 324.489649 324.234966 324.999528 325.397551
35.200000 322.749700 323.570850 324.873832 324.594983 325.384131 325.761229
35.210000 322.782806 323.611823 324.918064 324.639104 325.432098 325.834737
35.310000 323.132985 324.010841 325.261324 324.995668 325.766679 326.219292
35.410000 323.526251 324.383556 325.601923 325.352400 326.121034 326.615327
35.510000 323.908511 324.742587 325.915577 325.705723 326.460340 326.971851
35.610000 324.222042 325.102583 326.260791 326.050300 326.808627 327.355391
35.710000 324.569145 325.489441 326.574447 326.397455 327.164415 327.646580
35.810000 324.941681 325.835302 326.921962 326.747877 327.506560 328.087974
35.910000 325.245712 326.180926 327.249008 327.089189 327.879735 328.480138
36.054444 325.816325 326.674149 327.714334 327.567767 328.330311 328.949843
36.198889 326.202622 327.161629 328.173794 328.041970 328.808321 329.398284
36.343333 326.708097 327.695287 328.616683 328.511444 329.286327 329.966371
36.487778 327.198964 328.144213 329.074622 328.987820 329.762529 330.399768
36.632222 327.616383 328.638082 329.571653 329.475019 330.255630 330.850763
36.776667 328.146381 329.127993 330.064985 329.967032 330.756729 331.338429
36.921111 328.659072 329.632355 330.531383 330.448913 331.262481 331.869038
37.065556 329.203777 330.114839 331.026583 330.946102 331.724955 332.334798
37.210000 329.712489 330.624007 331.524648 331.451419 332.232674 332.836717
37.310000 330.099838 331.015008 331.921697 331.836102 332.618462 333.228775
37.410000 330.460328 331.412970 332.317886 332.245005 333.047214 333.738925
37.510000 330.837219 331.826609 332.745494 332.674355 333.481617 334.220367
37.640000 331.501474 332.418004 333.320105 333.275021 334.121068 334.949668
37.770000 332.197849 333.031809 333.921439 333.937242 334.830925 335.944550
37.898571 332.811481 333.754188 334.781569 334.859561 336.009934 337.437926
38.027143 333.546192 334.495340 335.708002 335.836944 337.194371 338.982975
38.155714 334.284653 335.433579 336.807325 336.912600 338.412962 340.051269
38.284286 335.035200 336.363176 338.053117 338.038324 339.613363 341.134028
38.412857 336.178844 337.501995 339.215765 339.180236 340.788815 342.409765
38.541429 337.509412 338.757537 340.331074 340.282634 341.727881 343.196958
38.670000 338.894661 340.060430 341.385310 341.393615 342.759100 343.801035
38.790000 339.895519 341.111845 342.302246 342.295817 343.558691 344.472477
38.910000 341.012867 342.063738 343.203467 343.185146 344.342199 345.122057
38.990000 341.823160 342.685170 343.788278 343.780067 344.840439 345.664043
39.070000 342.341415 343.387787 344.407457 344.355659 345.297405 346.129754
39.170000 343.219977 344.307890 345.172906 345.148420 346.048316 346.817626
39.270000 344.106460 345.054558 345.887817 345.880469 346.718212 347.572718
39.370000 344.824885 345.772207 346.591459 346.601318 347.447832 348.452717
39.470000 345.580676 346.444257 347.242588 347.256083 348.029469 349.113263
39.570000 346.244396 347.026553 347.805156 347.861143 348.618856 349.675381
39.670000 346.845723 347.589250 348.373942 348.440241 349.260138 350.277340
39.770000 347.365128 348.162134 348.960586 349.024263 349.870294 351.020626
39.870000 347.938543 348.758605 349.524658 349.615156 350.459069 351.633288
39.970000 348.383790 349.308724 350.106849 350.212320 351.150662 352.331884
40.070000 349.039986 349.812566 350.664973 350.822512 351.839231 353.200445
40.210000 349.745332 350.516358 351.442855 351.649796 352.814921 354.615271
40.290000 350.184109 350.895189 351.899979 352.160656 353.484992 355.323044
40.370000 350.588216 351.318163 352.437872 352.699936 354.122821 356.236751
40.483333 351.087136 351.855953 353.173945 353.500476 355.202118 357.635048
40.596667 351.589719 352.356572 353.969801 354.311538 356.285384 358.861770
40.710000 352.088129 352.890389 354.780383 355.119592 357.448290 360.192121
40.790000 352.473795 353.222547 355.403945 355.674948 358.107366 360.783952
40.870000 352.855123 353.585579 355.967473 356.233029 358.819839 361.496636
40.970000 353.349110 354.153814 356.653702 356.933764 359.633903 362.699729
41.070000 353.824923 354.682869 357.394820 357.647943 360.571067 363.806508
41.170000 354.248869 355.257759 358.079812 358.386609 361.500055 364.928381
41.270000 354.864850 355.888098 358.785440 359.157826 362.478307 366.363966
41.310000 355.100029 356.119321 359.005308 359.440632 362.804165 366.727988
41.440000 355.876735 357.182420 359.920803 360.471480 363.794080 368.124186
41.570000 356.848771 358.330604 360.885472 361.526399 364.925147 369.249676
41.710000 357.921468 359.624537 361.984595 362.759012 366.296123 370.622344
41.790000 358.534986 360.396644 362.770528 363.477329 367.233592 371.234218
41.870000 359.293361 361.156983 363.513866 364.231298 368.093556 371.924794
41.970000 360.497260 362.235315 364.562891 365.361920 369.038817 372.743717
42.070000 361.727817 363.645685 365.846252 366.576785 370.226845 373.627333
42.170000 363.046056 364.814585 367.344697 367.836592 371.272580 374.705762
42.270000 364.133505 366.046225 368.699822 369.109069 372.429472 375.745067
42.370000 365.157610 367.380661 370.076736 370.434146 373.790579 376.778623
42.490000 366.799706 369.348100 372.262515 372.281485 375.302416 378.648086
42.610000 368.737565 371.201825 374.203554 374.229166 377.244273 380.086103
42.730000 370.902031 373.329620 376.033960 376.150635 378.875361 381.873228
42.850000 372.924803 375.612865 377.999034 378.127971 380.747065 383.875137
42.970000 375.605379 377.725100 379.826068 380.080540 382.665715 385.416875
43.070000 376.875449 378.818119 380.964930 381.286826 383.962519 386.792186
43.210000 378.545409 380.369157 382.782369 383.143005 386.213987 389.170728
43.290000 379.217197 381.228166 383.669089 383.987531 387.082117 389.941596
43.370000 380.008319 381.971427 384.498295 384.809706 388.334638 390.379699
43.510000 381.426670 383.546811 386.126804 386.494897 390.063133 391.325778
43.590000 382.305739 384.292639 387.006288 387.271735 390.673011 391.921424
43.670000 382.991719 385.073180 387.870541 388.032343 391.229651 392.345879
43.765000 383.934300 386.017315 389.014986 388.932571 391.840513 392.901387
43.860000 385.086281 387.171427 390.149633 389.863441 392.425975 393.464344
43.970000 386.053152 388.410878 391.522720 390.926139 393.045495 394.086122
44.065000 386.654843 389.443376 392.394601 391.782415 393.646991 394.601514
44.160000 387.335795 390.749870 393.111174 392.577758 394.266414 395.143830
44.220000 387.725375 391.360715 393.518695 393.002288 394.616863 395.450663
44.320000 388.450620 392.424358 394.118949 393.669284 395.234235 396.091147
44.460000 389.707429 393.328433 394.893521 394.552687 395.983404 396.930767
44.593333 391.090205 394.213715 395.636407 395.430250 396.849892 397.956079
44.726667 392.920743 395.004502 396.388606 396.304154 397.704234 398.766209
44.860000 394.327780 395.738658 397.206367 397.148638 398.539876 399.568545
44.980000 395.171488 396.343733 397.887405 397.808235 399.230477 400.327428
45.100000 395.784697 396.887079 398.564436 398.449834 399.887162 400.896186
45.220000 396.343012 397.440030 399.154224 399.066319 400.540055 401.633340
45.362857 396.949569 398.039100 399.861172 399.738332 401.236133 402.297205
45.505714 397.572849 398.637567 400.545584 400.404068 401.890498 403.017516
45.648571 398.217114 399.238238 401.265937 401.066429 402.585513 403.656251
45.791429 398.828604 399.847015 401.996296 401.742811 403.304929 404.407868
45.934286 399.335433 400.432485 402.670685 402.405858 403.949728 405.172284
46.077143 399.936970 401.049430 403.326218 403.051793 404.604973 405.896893
46.220000 400.487706 401.640533 404.037785 403.699001 405.267988 406.484595
46.320000 401.021383 402.020420 404.492972 404.175186 405.758662 406.956763
46.420000 401.443350 402.484910 404.971444 404.648848 406.260364 407.378838
46.520000 401.925652 402.945703 405.435165 405.117156 406.750820 407.949352
46.620000 402.310433 403.396568 405.943468 405.589990 407.271485 408.364344
46.720000 402.769509 403.883366 406.444407 406.056525 407.718744 408.826700
46.820000 403.163512 404.391254 406.868283 406.523828 408.203079 409.345733
46.920000 403.594530 404.897495 407.352804 406.996536 408.631287 409.824887
47.053333 404.186591 405.489243 407.957561 407.593135 409.229408 410.291761
47.186667 404.765127 406.175168 408.523035 408.190232 409.787401 410.773337
47.320000 405.366914 406.836216 409.109081 408.791399 410.414246 411.374158
47.420000 405.749696 407.350201 409.568276 409.270172 410.843586 411.818947
47.520000 406.236108 407.881191 410.019720 409.754822 411.304243 412.311308
47.620000 406.732451 408.398765 410.479731 410.219733 411.772736 412.761302
47.720000 407.234676 408.953572 410.942613 410.709107 412.195659 413.155813
47.820000 407.739701 409.582818 411.376496 411.203523 412.686314 413.661531
47.953333 408.369935 410.330598 412.005693 411.835808 413.291537 414.230083
48.086667 409.146055 411.031266 412.656333 412.482288 413.910266 414.872741
48.220000 410.114989 411.705496 413.293077 413.128807 414.446963 415.437461
48.360000 410.906505 412.473817 413.995081 413.818748 415.091111 416.215270
48.440000 411.268050 412.917320 414.394560 414.231271 415.479863 416.556682
48.520000 411.692316 413.359755 414.793962 414.651129 415.876460 416.941828
48.653333 412.500083 414.021457 415.443244 415.333733 416.552823 417.615286
48.786667 413.347015 414.761264 416.153059 416.027978 417.229026 418.277128
48.920000 414.119214 415.472443 416.822687 416.724850 417.879182 418.955229
49.057778 414.879393 416.158045 417.495662 417.418658 418.578728 419.653556
49.195556 415.630790 416.881135 418.219492 418.115647 419.291270 420.313388
49.333333 416.235245 417.598908 418.915432 418.825578 419.987642 420.998405
49.471111 417.024013 418.348066 419.610207 419.542228 420.721320 421.694547
49.608889 417.821085 419.130563 420.322155 420.261512 421.462717 422.360228
49.746667 418.506364 419.912514 421.058679 420.999488 422.218307 422.975778
49.884444 419.369365 420.673473 421.786449 421.769726 422.914693 423.798789
50.022222 420.184544 421.547897 422.591282 422.562732 423.636453 424.443520
50.160000 421.262749 422.387360 423.438036 423.410356 424.423114 425.133310
50.220000 421.704474 422.898586 423.967042 423.895969 424.918604 425.637006
50.320000 422.636457 423.930821 425.028184 424.973901 425.987583 427.023229
50.420000 423.971137 425.142085 426.144286 426.163154 427.173882 428.423075
50.520000 425.657769 426.497943 427.349888 427.428146 428.237032 429.802523
50.615000 426.856017 427.689856 428.623655 428.849074 429.910858 432.345002
50.710000 428.287931 428.934041 429.790542 430.265744 431.914720 434.325396
50.760000 428.758103 429.405038 430.431814 430.841249 432.525319 434.945334
50.885000 429.561054 430.601714 432.148977 432.472315 434.580736 436.700805
51.010000 430.339434 431.965108 434.117445 434.222119 436.531547 438.976770
51.110000 431.118531 433.065310 435.433892 435.515769 437.843977 440.282514
51.210000 431.967542 434.223229 436.617097 436.774000 439.289023 442.286274
51.310000 432.775359 435.531564 438.078122 438.033134 440.510618 443.648230
51.410000 433.723140 436.502715 439.135654 439.117575 441.714528 444.944805
51.510000 434.615356 437.475742 440.077350 440.134853 442.851342 446.426172
51.610000 435.392504 438.414653 441.090534 441.208391 444.218948 447.504367
51.710000 436.188802 439.157889 441.994298 442.163030 445.370311 448.672419
51.810000 436.991802 439.964429 442.866422 443.097694 446.361832 449.826695
51.910000 437.811701 440.714563 443.809497 443.997806 447.241050 451.104802
52.038000 438.778129 441.828497 445.205692 445.222102 448.495723 452.549112
52.166000 439.913551 442.907807 446.326098 446.493301 450.016643 454.194243
52.294000 440.777210 444.230683 447.656023 447.778883 451.333873 455.919029
52.422000 441.829611 445.139158 448.899146 448.929285 452.373404 456.963956
52.550000 443.218066 446.470044 450.047880 450.237228 453.836461 458.466412
52.690000 444.774648 447.875087 451.559946 451.737416 455.502708 459.925121
52.830000 446.040532 449.535415 453.138496 453.295022 457.235021 461.172728
52.970000 447.417658 451.249577 454.689541 454.895767 458.870291 462.701330
53.110000 449.098983 452.762117 456.236860 456.469209 460.313479 464.070696
53.250000 450.688936 454.128582 457.876561 458.020887 461.857421 465.337813
53.370000 452.066466 455.459856 459.249139 459.273702 463.204578 466.803038
53.490000 453.402518 456.575199 460.500745 460.495036 464.312899 467.804658
53.610000 454.420160 457.938030 461.650673 461.749183 465.648317 469.136977
53.710000 455.274114 459.062875 462.612953 462.715582 466.541885 470.346514
53.810000 456.087591 460.034670 463.478641 463.659557 467.449306 471.275209
53.910000 457.084639 461.098273 464.441594 464.584619 468.314995 472.772003
54.010000 458.124785 462.109702 465.426474 465.586860 469.269194 473.766289
54.110000 459.151615 463.241057 466.406440 466.633376 470.089270 474.977582
54.210000 460.580914 464.425945 467.382534 467.692773 471.212078 475.591653
54.320000 462.060463 465.666482 468.659086 469.002672 472.637653 476.420563
54.430000 463.647307 466.856915 470.025450 470.333691 474.141178 477.232984
54.540000 465.173587 468.282008 471.366731 471.661989 475.532224 478.250585
54.650000 466.968653 469.698290 472.810866 473.035970 476.666959 479.351497
54.783333 468.686845 471.611826 474.600869 474.880989 478.406900 480.984163
54.916667 470.454375 473.580863 476.712258 476.727969 480.120034 482.594167
55.050000 472.755370 475.556257 478.673114 478.632409 481.813155 484.178197
55.150000 474.199415 476.946561 479.952986 479.976928 483.032437 485.391256
55.250000 475.233961 478.153773 481.418388 481.277810 484.282404 486.660806
55.350000 477.020225 479.472339 482.838305 482.597118 485.478644 487.820083
55.470000 478.717276 481.186082 484.256349 484.171754 487.029114 489.470725
55.590000 480.033509 482.800168 485.720998 485.681375 488.463348 491.037394
55.710000 481.292329 484.391899 487.170643 487.106081 489.843173 492.374086
55.830000 483.087946 485.630490 488.302283 488.383024 491.249720 493.475926
55.950000 484.353522 487.018211 489.616515 489.621223 492.304161 494.612219
56.070000 485.368791 488.125474 490.901221 490.793416 493.364138 495.693000
56.190000 486.952722 489.352907 492.016639 491.924699 494.345874 496.929714
56.310000 488.132463 490.702097 493.120377 493.002264 495.222645 497.619246
56.430000 489.033102 491.881253 494.092156 494.013469 496.138660 498.450076
56.550000 490.167056 492.965689 495.092324 495.007923 497.096746 499.387069
56.675000 491.303827 494.073043 495.971246 495.964272 498.028066 500.186498
56.800000 492.449051 495.116565 496.842660 496.894061 498.905772 500.979051
56.925000 493.459353 496.022450 497.716229 497.770240 499.751365 501.814739
57.050000 494.380989 496.871784 498.529311 498.639916 500.675604 502.622528
57.130000 495.216631 497.470383 499.036330 499.173621 501.191392 503.125913
57.210000 496.046946 498.021874 499.538636 499.714582 501.674781 503.574620
57.350000 497.076529 498.985482 500.428506 500.604753 502.443347 504.352575
57.430000 497.738530 499.553846 500.938341 501.112145 502.969405 504.776809
57.510000 498.252573 500.079253 501.413206 501.609732 503.420316 505.170571
57.630000 499.230850 500.781571 502.140152 502.379927 504.152333 505.868994
57.750000 500.293629 501.551972 502.851672 503.125384 504.991530 506.554923
57.870000 501.124978 502.289553 503.551838 503.864681 505.728476 507.471004
57.990000 501.946989 502.983410 504.295699 504.616175 506.461461 508.435843
58.110000 502.798154 503.721309 505.037628 505.361585 507.142208 509.245014
58.150000 502.982349 503.982881 505.309034 505.637497 507.387855 509.603541
58.280000 503.794578 504.766672 506.157325 506.517961 508.325952 510.990042
58.410000 504.559913 505.536582 507.019738 507.416530 509.376909 512.502926
58.550000 505.340899 506.310872 507.949281 508.355675 510.413556 513.643228
58.630000 505.828143 506.836344 508.515245 508.935951 511.058685 514.495243
58.710000 506.321009 507.379578 509.064461 509.518108 511.766175 515.061385
58.830000 506.876347 508.171576 510.021595 510.371605 512.707048 515.708816
58.950000 507.547198 508.894308 510.854931 511.222599 513.655128 516.589846
59.070000 508.179697 509.663478 511.731797 512.106090 514.741274 517.440062
59.190000 508.828596 510.417018 512.665784 512.973363 515.702124 518.230735
59.310000 509.497427 511.279524 513.592530 513.840619 516.682270 518.950181
59.416667 510.052981 511.938474 514.405421 514.631570 517.512773 519.771449
59.523333 510.762270 512.671395 515.255585 515.412438 518.299227 520.384762
59.630000 511.369058 513.443612 516.213500 516.236092 519.011958 521.017843
59.758571 512.115255 514.408721 517.175308 517.172187 519.918123 521.997069
59.887143 512.802451 515.329599 518.217115 518.130230 520.866301 523.019106
60.015714 513.743605 516.238297 519.227878 519.079555 521.723096 523.902072
60.144286 514.563088 517.219916 520.099044 519.997550 522.622434 524.890825
60.272857 515.718709 518.233672 520.923867 520.923597 523.555382 525.701469
60.401429 516.668972 519.183088 521.877696 521.845862 524.488979 526.696930
60.530000 517.498952 520.138591 522.767511 522.733759 525.336018 527.579895
60.658571 518.485782 521.167458 523.752736 523.623220 526.242294 528.248056
60.787143 519.055777 522.080792 524.718941 524.532892 527.098471 529.000772
60.915714 520.147966 522.886601 525.581660 525.422341 527.984773 529.802353
61.044286 521.136328 523.968984 526.443010 526.343019 528.838625 530.508078
61.172857 522.199180 524.874232 527.379570 527.236573 529.718326 531.481627
61.301429 523.410777 525.843913 528.253102 528.150361 530.556657 532.168172
61.430000 524.361143 526.837361 529.228022 529.091822 531.427771 532.977564
61.535000 525.146220 527.631738 530.100599 529.899724 532.111656 533.566944
61.640000 526.099235 528.533266 530.985199 530.726033 532.844968 534.132007
61.740000 526.954985 529.402763 531.818958 531.532370 533.519736 534.652272
61.840000 528.090548 530.392474 532.639582 532.347633 534.190383 535.227302
61.940000 528.820229 531.432458 533.464540 533.177062 534.840347 535.839550
62.030000 530.110691 532.372137 534.247856 533.985947 535.572044 536.523857
62.157500 531.552728 533.764693 535.392236 535.200978 536.626687 537.782405
62.285000 533.190629 535.128672 536.466484 536.437610 537.772652 539.126739
62.412500 534.943643 536.423150 537.590444 537.618966 538.856164 540.386341
62.540000 536.706732 537.600783 538.689454 538.775120 539.904350 541.641381
62.630000 537.221777 538.146513 539.277913 539.388184 540.569087 542.528772
62.735000 537.812619 538.730886 539.875998 540.026142 541.366299 543.427927
62.840000 538.269011 539.253286 540.471352 540.614728 542.046046 544.016765
62.980000 538.827765 539.906971 541.221347 541.344866 542.778208 544.881629
63.100000 539.320322 540.503007 541.802236 541.972866 543.473340 545.642081
63.220000 539.847228 541.055679 542.366549 542.578582 544.161251 546.316498
