depth(m) lower_95(kyr) lower_68(kyr) median(kyr) mean(kyr) upper_68(kyr) upper_95(kyr)
0.130000 0.212417 0.765784 1.534336 1.550966 2.320485 3.050565
0.140000 0.926890 1.703758 2.627711 2.772681 3.774345 5.786827
0.170000 3.181087 4.485396 6.171938 6.134440 7.755689 9.088019
0.180000 4.191107 5.784124 7.448439 7.367103 8.963826 10.277318
0.200000 6.446080 8.238021 9.837162 9.818349 11.347957 13.113633
0.230000 14.401567 15.181360 15.939874 15.955744 16.745749 17.643345
0.260000 16.663830 17.381757 18.260795 18.357473 19.339916 20.560199
0.280000 17.703307 18.572407 19.615947 19.749845 20.946015 22.353225
0.290000 18.318115 19.199694 20.269209 20.438847 21.703880 23.379123
0.330000 20.406346 21.492104 22.819048 23.004381 24.523767 26.743644
0.380000 22.997325 24.631048 26.308127 26.656126 28.492556 33.166027
0.430000 26.458613 28.693889 30.854941 31.609663 34.975132 39.878833
0.480000 29.761067 31.974951 35.208731 35.990882 40.496715 44.932503
0.530000 32.898450 35.558892 39.239873 39.984139 44.852323 48.991362
0.580000 36.286634 39.345322 43.247680 43.866448 48.817978 52.312347
0.630000 40.478875 43.371769 47.277920 47.921522 52.466245 56.143115
0.680000 43.930807 47.375811 51.960608 51.882501 55.940996 61.177033
0.730000 48.137745 51.707117 55.997616 55.955804 59.298667 68.150930
0.780000 52.707959 56.837077 59.997866 60.400470 63.586333 71.366962
0.830000 58.221831 63.133165 66.280381 66.414163 69.784841 74.065824
0.880000 68.841085 71.735317 73.956528 73.922511 76.353357 78.907596
0.930000 73.791004 76.178200 78.239658 78.214199 80.030099 82.998311
0.980000 77.607398 79.865995 81.886052 81.942846 83.926319 86.683344
1.080000 82.615065 85.014485 88.528763 88.546362 92.149813 94.847948
1.130000 85.666982 88.357066 91.955339 91.815435 95.023391 97.529660
1.180000 88.898582 91.893066 95.457568 95.157527 98.161831 100.557836
1.230000 91.884124 94.665399 98.301565 97.977125 101.055134 103.121169
1.280000 94.789677 97.372791 101.036246 100.674153 103.671133 105.863270
1.330000 97.461373 100.071729 103.789794 103.402948 106.318049 108.310224
1.380000 100.402947 103.256608 106.853308 106.385101 109.091513 111.023772
1.430000 103.972625 107.314556 110.339604 109.815459 112.083187 113.361233
1.480000 108.216758 112.042173 113.686521 113.396961 114.902417 116.048802
1.530000 114.647941 115.796522 116.852702 116.822720 117.864519 119.002547
1.580000 117.543220 118.533270 119.686258 119.835834 121.112384 122.978110
1.630000 119.812540 121.138008 122.516326 122.712488 124.415679 126.359355
1.680000 122.146894 123.872688 125.548262 125.640055 127.634020 129.242192
1.730000 124.776406 126.552835 128.272873 128.404211 130.374414 132.470471
1.780000 131.293634 133.395408 135.470446 135.680082 137.921125 141.564447
1.830000 135.471508 137.613363 139.711002 140.111833 142.614119 146.764585
1.880000 139.514433 141.854288 144.556231 145.245749 148.531721 155.468086
1.930000 142.980954 145.493670 149.112508 149.741216 154.253777 160.060883
1.980000 146.396866 149.576438 153.685424 154.092382 158.813438 164.291187
2.030000 149.987300 154.400825 158.398780 158.496638 162.746071 167.461892
2.080000 154.225898 159.134925 162.977242 163.069365 167.353798 171.289076
2.130000 158.643701 163.517394 167.513669 167.441993 171.227162 175.751958
2.180000 163.636525 167.678283 171.661543 171.655003 175.691008 179.254897
2.230000 168.381914 172.256579 175.964920 175.919345 179.742928 182.205316
2.280000 172.331663 177.091242 180.560268 180.317248 183.803344 186.015006
2.330000 178.938891 182.508112 185.385177 185.106976 187.523105 190.515416
2.380000 186.819514 189.213380 191.359538 191.751131 194.548670 197.332193
2.430000 192.642196 195.976302 199.302701 199.271679 201.781282 208.537149
2.480000 197.084927 201.180425 204.308087 204.773280 208.405549 214.402495
2.530000 203.139002 205.839133 208.780362 209.654858 214.379237 218.669327
2.580000 209.945693 212.737599 216.377447 215.870507 218.699734 221.110495
2.630000 219.864128 221.150520 222.250545 222.279052 223.412269 224.928841
2.680000 222.626936 224.099989 225.326206 225.313879 226.525177 227.963781
2.730000 225.305081 226.811909 228.093011 228.026331 229.216959 230.451672
2.780000 228.513535 229.861400 231.066080 231.005446 232.169124 233.380419
2.830000 232.251552 233.382395 234.444878 234.462889 235.533190 236.916440
2.880000 235.365773 236.691390 237.877569 237.895797 239.057717 240.419976
2.930000 238.286378 239.892830 241.280215 241.144872 242.345024 243.207131
2.980000 242.717214 243.905598 244.933800 245.532062 246.627353 254.400923
3.030000 244.991172 246.602063 248.265018 249.627440 252.564109 261.075737
3.080000 248.288011 250.118483 253.802880 254.597521 260.022165 264.685755
3.130000 251.043603 254.146633 259.346496 259.699675 265.276316 268.487385
3.180000 254.482357 259.477684 264.691173 264.591113 269.666238 273.016452
3.230000 258.326892 264.534683 270.494192 269.550572 274.001689 276.727143
3.280000 264.690285 272.017398 275.915868 275.040978 278.441426 280.536219
3.330000 276.651326 279.689109 281.648566 281.661964 283.935108 286.138058
3.380000 281.769788 283.819150 285.843678 285.720283 287.559585 289.260706
3.430000 285.703977 287.861719 289.582013 289.534040 291.200570 293.184494
3.480000 289.563153 291.171213 292.738079 292.994102 294.837665 297.209414
3.530000 292.471711 294.150470 295.964277 296.235165 298.293607 301.247932
3.580000 295.446339 297.451304 299.559957 299.951283 302.488133 306.237005
3.630000 298.661973 300.489724 303.508912 303.773553 307.271393 309.719584
3.680000 301.711829 303.519085 307.582728 307.169312 310.542223 312.274630
3.730000 304.722244 307.936316 311.009666 310.534004 312.940438 314.633498
3.780000 309.297589 312.047196 313.996673 313.781546 315.505680 317.191517
3.830000 312.674185 314.877382 316.457713 316.386482 317.909789 319.659147
3.880000 315.424394 317.395320 318.938448 318.806537 320.221360 321.585843
3.930000 318.402459 319.973973 321.341976 321.271346 322.530954 323.824924
3.980000 321.155770 322.514545 323.688295 323.755889 325.005246 326.728034
4.030000 323.515985 324.806014 326.132863 326.234857 327.624148 329.505490
4.080000 325.788604 327.061419 328.588448 328.723348 330.478923 332.190527
4.130000 328.177568 329.994337 331.786754 331.702018 333.261823 334.819908
4.180000 333.263544 334.753319 336.097608 336.077220 337.371072 338.785811
4.230000 337.706622 339.339679 340.928789 341.024293 342.802538 344.884446
4.280000 340.155666 342.018352 344.397038 344.370913 346.561010 349.181001
4.330000 342.787336 344.655779 346.951173 347.199962 349.904374 352.533259
4.380000 344.996203 347.133037 349.763134 349.930280 352.915881 355.431439
4.430000 347.340426 349.613599 352.333205 352.534040 355.691324 358.067314
4.480000 349.758451 352.178387 354.961921 355.149639 358.539365 360.738020
4.530000 352.600059 354.953526 357.868074 357.988248 361.010900 363.843159
4.580000 355.451558 358.016264 360.998394 360.981173 363.800604 367.200714
4.630000 358.141527 361.098683 363.880475 363.921873 366.872409 370.067708
4.680000 361.461664 364.038352 366.794287 366.962194 369.846996 373.156823
4.730000 364.459849 367.053739 370.083499 370.043110 372.931831 375.709571
4.780000 367.680331 370.459124 373.323954 373.288866 375.972431 379.757377
4.830000 371.044394 374.463522 377.027227 377.252917 380.214484 383.905116
4.880000 376.090151 378.671029 381.392284 381.681971 384.854197 388.746231
4.930000 379.518305 382.679437 385.676157 385.788319 388.895313 392.519054
4.980000 383.236661 386.798606 388.948606 389.414540 392.842041 395.483811
5.030000 386.427072 390.326343 392.674473 392.962656 396.008289 399.204542
5.080000 394.856547 397.401485 399.724740 399.608156 402.015925 403.833443
5.130000 398.680441 400.338997 402.393652 402.417807 404.413894 406.277583
5.180000 400.908960 402.363674 404.564565 404.524992 406.555039 408.324494
5.230000 402.885270 404.527491 406.484535 406.495269 408.381757 410.266975
5.280000 404.775572 406.550408 408.488663 408.454593 410.292544 411.955975
5.330000 406.909249 408.651957 410.657528 410.554859 412.327946 413.874900
5.380000 408.994761 411.084943 412.849856 412.779448 414.484343 415.947469
5.430000 411.348263 413.246356 414.980252 414.911508 416.567100 418.066027
5.480000 414.518869 416.044068 417.495925 417.446331 418.901835 420.299523
5.530000 416.861670 418.360243 419.821889 419.765844 421.138119 422.489852
5.580000 418.944724 420.447006 421.979202 421.850532 423.189681 424.266451
5.630000 421.040402 422.755169 424.261330 424.099104 425.380063 426.454010
