depth(m) lower_95(kyr) lower_68(kyr) median(kyr) mean(kyr) upper_68(kyr) upper_95(kyr)
0.070000 0.241991 0.858206 1.598952 1.607826 2.385883 3.089337
0.120000 2.133431 3.352431 5.166055 5.349023 7.412784 9.217737
0.170000 5.717972 7.713425 9.864260 9.582003 11.273165 12.254438
0.230000 8.904211 10.392532 12.163509 11.934356 13.299667 14.105180
0.280000 12.213736 13.379578 14.422881 14.320511 15.184078 16.163070
0.330000 14.511473 15.407792 16.279381 16.528179 17.715139 19.961631
0.380000 15.860316 16.642951 17.780659 18.090874 19.531740 22.096802
0.470000 17.563575 18.697703 20.122885 20.439537 22.231183 24.439469
0.570000 19.755523 21.127223 22.693492 22.943812 24.885071 27.140754
0.620000 20.950476 22.423563 24.151557 24.326021 26.242120 28.848665
0.680000 22.312792 24.038376 25.938461 26.051559 27.991891 30.819231
0.720000 23.427300 25.325783 27.387120 27.506132 29.494464 32.755035
0.780000 25.246387 27.458230 29.664815 29.936315 32.394342 35.766130
0.925000 29.357095 32.030480 34.969168 35.327746 38.768833 42.647310
1.070000 33.943570 36.880864 39.994967 40.476902 44.904542 46.734226
1.180000 38.141533 40.666699 43.456822 44.125565 48.350021 50.140198
1.230000 39.993796 42.706717 45.146726 45.918632 50.047031 51.599488
1.270000 41.759068 44.258797 46.757425 47.348592 51.248565 52.616302
1.320000 43.422719 45.788110 48.716125 48.973992 52.542658 53.953479
1.380000 45.344987 47.706199 50.970013 50.843057 54.017529 55.642324
1.480000 48.949741 51.026453 53.944057 53.759761 56.409017 57.887213
1.520000 50.169068 52.293069 55.119208 54.948714 57.440389 58.969884
1.620000 53.074965 55.394656 57.860785 57.643947 59.829422 61.178014
1.730000 56.624065 58.969222 60.800176 60.734455 62.576052 64.139459
1.770000 58.418887 60.587902 62.280480 62.206666 63.908747 65.496504
1.820000 60.631624 62.512676 64.035263 64.012984 65.548686 67.098432
1.880000 63.072529 64.652367 66.153998 66.120862 67.642488 69.094762
1.930000 65.084442 66.803084 68.260510 68.275059 69.791295 71.296599
1.980000 68.441800 70.032397 71.487410 71.546780 73.185407 74.900741
2.020000 70.620812 71.951777 73.416330 73.559936 75.244101 76.756795
2.080000 72.726205 74.150435 75.844671 75.854809 77.510421 79.012978
2.120000 74.074679 75.626096 77.373976 77.288160 78.872699 80.369749
2.170000 76.054312 77.632497 79.289476 79.233486 80.679936 82.268887
2.230000 78.716670 80.158074 81.655443 81.625315 82.928523 84.423923
2.270000 80.229111 81.787471 83.166791 83.267006 84.716725 86.825201
2.330000 82.769120 84.287556 85.951808 86.381124 88.808802 91.311799
2.380000 84.884888 86.685899 89.279059 89.183499 91.660059 93.403971
2.420000 86.327606 89.002013 91.710740 91.407473 93.641665 95.519244
2.480000 89.308025 92.147723 94.256683 94.032325 95.789422 97.607671
2.520000 91.843819 94.130457 95.789453 95.720149 97.436505 99.387676
2.580000 94.278325 96.139342 97.808714 97.860185 99.596007 101.630463
2.620000 95.624838 97.388220 99.175922 99.261741 101.083690 103.252993
2.670000 97.470108 99.089744 100.945744 100.969927 102.735711 105.200710
2.730000 99.532361 101.244468 102.939792 103.051820 104.958290 107.136645
2.770000 101.139774 102.815098 104.598006 104.719274 106.700509 108.499068
2.830000 103.781098 105.592138 107.478031 107.466214 109.368441 110.840159
2.880000 106.024084 107.952407 109.961114 109.740426 111.404935 112.827114
2.920000 107.730633 110.031446 111.970038 111.763882 113.402828 114.586557
2.980000 111.611107 113.413364 114.924993 114.965185 116.561942 118.003666
3.020000 116.067491 118.017916 119.641076 119.693921 121.424851 123.436718
3.080000 120.135493 121.676497 123.521570 123.492981 125.270064 126.811607
3.120000 122.000236 124.169589 126.184056 125.956682 127.666258 128.715230
3.170000 125.367746 127.420349 129.118544 128.898445 130.324979 131.333857
3.230000 127.563666 129.480051 131.093643 130.916218 132.326559 133.516267
3.270000 130.613975 131.795406 133.006911 133.071382 134.246151 135.953399
3.330000 133.021473 134.000168 135.124529 135.451698 136.894729 139.437863
3.380000 134.513371 135.607919 137.012619 137.472658 139.407604 142.596507
3.420000 135.723180 136.834231 138.512489 139.043772 141.416833 144.766618
3.480000 137.491242 138.748076 140.692970 141.256700 143.745312 147.965448
3.520000 138.819777 140.109395 142.406907 143.005972 145.897447 150.760064
3.580000 140.406899 142.066636 144.738735 145.537222 149.387368 154.223486
3.620000 141.762492 143.546953 146.551399 147.430079 151.797046 156.332905
3.670000 143.357010 145.390055 149.361690 149.855980 154.620717 158.455383
3.730000 145.162406 147.659406 153.040190 152.753683 157.608321 160.744717
3.770000 146.473077 149.365684 155.485216 154.729265 159.401468 162.650229
3.830000 148.624836 151.858803 158.615308 157.583615 162.049680 165.028722
3.880000 150.768566 154.274413 161.037682 159.953027 164.447265 167.017484
3.920000 152.641398 156.672671 162.668285 161.860396 165.978490 168.582533
3.980000 155.228084 160.997365 165.407808 164.843781 168.740325 171.114989
4.030000 158.945677 163.787536 167.692414 167.308072 170.753948 174.014779
4.080000 161.589101 166.196036 170.375532 169.796653 173.195949 176.043574
4.120000 163.197611 167.871702 171.925687 171.529371 175.137563 178.007692
4.220000 166.993417 171.694437 175.527567 175.234356 178.756528 181.438340
4.320000 171.217075 175.527178 178.937696 178.833793 182.559741 184.558446
4.420000 175.600009 179.336458 182.686016 182.474312 185.750187 187.363084
4.470000 178.483070 181.547486 184.893451 184.535860 187.328554 188.875730
4.530000 182.512747 185.024338 187.565950 187.284733 189.417995 190.841697
4.580000 187.732236 189.149528 190.553857 190.533246 191.864937 193.330161
4.620000 189.692888 190.902708 192.196584 192.180714 193.446030 195.089551
4.670000 191.280160 192.434310 193.799407 193.819134 195.150607 196.616645
4.720000 192.697370 193.922506 195.322263 195.367608 196.815307 198.445040
4.780000 194.451736 195.663990 197.067558 197.344900 199.006383 202.458696
4.830000 196.004556 197.218809 198.756498 199.143158 201.239832 204.462398
4.880000 197.497339 198.829822 201.022039 201.139010 203.337362 205.801211
4.920000 198.637226 200.258514 202.808155 202.702290 205.003344 207.226875
5.030000 202.331939 204.191669 206.619498 206.373630 208.390646 209.979145
5.080000 204.222370 206.119247 208.164481 208.041583 209.897212 211.509002
5.120000 205.568301 207.695283 209.616499 209.484638 211.174500 212.799967
5.170000 207.822680 209.828119 211.548645 211.431093 213.054351 214.345303
5.220000 209.413637 211.512082 213.298200 213.142852 214.761397 216.103552
5.280000 211.723287 213.415289 215.252382 215.118548 216.710884 217.725080
5.330000 213.762515 215.331077 216.971141 216.828636 218.267940 219.372948
5.380000 216.093879 217.598840 218.906678 218.825935 219.940831 221.581282
5.420000 218.883843 219.968657 220.991568 221.196253 222.494822 224.491517
5.470000 220.612764 221.563082 222.922768 223.173635 224.937238 226.646291
5.530000 222.170820 223.527904 225.280589 225.349145 227.344851 228.797808
5.580000 223.896517 225.319234 227.247160 227.244553 229.085657 230.465382
5.620000 225.290421 226.791880 228.989926 228.895560 230.805736 232.369056
5.670000 226.967654 228.811049 231.096928 230.974583 233.014020 234.799531
5.720000 228.703418 230.810375 233.016547 233.037225 235.247767 237.890675
5.780000 233.470446 235.158496 237.243529 237.318266 239.702088 241.312438
5.830000 235.956727 238.396634 240.854486 240.461439 242.317371 243.423312
5.880000 241.036470 242.669635 243.640104 243.601297 244.638483 245.910257
5.920000 243.801120 244.650688 245.646846 245.724443 246.865867 248.060078
5.970000 245.377946 246.442915 247.653498 247.759954 249.022496 250.804386
6.030000 247.429289 248.525712 249.939298 250.139881 251.784315 253.924554
6.080000 248.972973 250.215396 251.783644 252.047382 253.937688 256.146576
6.120000 250.106159 251.515902 253.322498 253.587467 255.824484 258.073566
6.170000 251.566083 253.179680 255.354189 255.519483 258.020541 260.083859
6.220000 252.846069 254.677195 257.156834 257.358131 260.175110 262.311563
6.280000 254.691354 256.577917 259.660756 259.584000 262.515940 264.474646
6.330000 256.324953 258.234957 261.915172 261.552426 264.375629 266.584663
6.380000 258.149332 260.275577 263.983052 263.590174 266.306601 268.246606
6.420000 259.719112 262.164162 265.620174 265.226739 267.927792 269.679566
6.470000 261.812088 264.362440 267.670901 267.227067 269.665494 271.448732
6.530000 264.278924 267.314103 269.872642 269.632865 271.859032 273.401355
6.580000 267.332613 269.868962 271.983746 271.772791 273.665635 275.361455
6.620000 269.332177 272.092050 274.082847 273.946578 275.825611 277.663544
6.670000 273.174492 275.411473 277.544267 277.531228 279.570039 281.786152
6.720000 277.714589 280.791676 283.292278 283.346486 286.050902 288.526466
6.830000 287.807082 290.992543 294.599368 294.290035 297.414712 299.940383
6.880000 291.667331 296.533357 299.090217 298.738060 301.135244 304.309880
6.920000 296.114904 300.746102 302.684405 302.431376 304.420013 307.462538
6.970000 299.186261 303.989917 306.099350 305.841445 307.811451 310.715271
7.030000 303.924671 307.467234 309.541662 309.607213 311.874228 315.240565
7.080000 308.274680 310.521693 312.940489 313.482454 317.167515 319.465702
7.120000 311.307285 313.474385 316.367254 316.647492 320.165619 322.023618
7.170000 313.842648 316.350474 320.445776 319.944903 323.080566 324.466508
7.220000 316.497384 319.370865 323.183403 322.687637 325.515113 326.981430
7.280000 320.446592 322.820111 326.037301 325.669092 328.278654 329.678991
7.330000 324.167922 326.482230 329.015634 328.664649 330.662156 331.927734
7.380000 327.485260 330.062224 331.980449 331.610596 333.043327 334.190173
7.420000 330.841016 332.927199 334.152213 333.976823 335.091267 336.039375
7.470000 334.027772 335.125258 335.990733 336.011260 336.966183 337.882789
7.530000 336.971407 337.814951 338.670396 338.717483 339.551667 340.773730
7.580000 339.345283 340.167631 341.136166 341.254008 342.236144 343.914200
7.620000 341.183407 342.107979 343.218332 343.548854 344.757475 348.141990
7.670000 343.531647 344.694606 346.601551 347.613466 350.915080 355.694678
7.720000 345.949433 348.255214 352.384593 353.150505 358.683513 362.294717
7.780000 351.079783 357.822215 364.576421 363.815240 368.400054 373.643013
7.830000 359.268664 365.334144 369.841194 369.580949 374.296179 378.299010
7.880000 366.019681 369.960594 374.363798 374.308449 378.714811 382.165807
7.920000 368.798804 373.691072 377.539694 377.835915 382.488069 385.896113
7.970000 375.470183 378.802030 382.999757 382.820096 386.814148 390.255829
8.030000 380.842381 384.790376 388.839732 388.389779 391.838409 394.020550
8.120000 389.250912 393.732030 395.835453 395.571660 397.533434 399.312191
8.180000 396.401047 398.210446 399.885872 399.806550 401.391129 403.152212
8.220000 399.399856 401.034371 402.630139 402.638329 404.104095 406.118283
8.280000 402.606692 404.166587 405.781899 405.825540 407.506231 409.363433
8.320000 404.671322 406.226667 407.917543 408.004933 409.801633 411.639604
8.380000 407.813880 409.771709 411.422108 411.463269 413.265695 415.133572
8.430000 410.961907 412.748851 414.588051 414.659645 416.643541 418.472784
8.470000 413.807570 415.347737 417.120164 417.238147 419.257924 420.963077
8.530000 417.212899 419.335614 421.772273 421.542204 423.725654 424.877608
8.570000 421.182823 424.117624 426.525897 426.053360 427.581247 429.028252
