depth(m) lower_95(kyr) lower_68(kyr) median(kyr) mean(kyr) upper_68(kyr) upper_95(kyr)
13.000000 305.801851 307.739609 309.063271 308.962103 310.256762 311.508586
13.020000 306.831397 308.422134 309.629034 309.583192 310.783328 311.902166
13.040000 307.616683 309.127486 310.229081 310.209639 311.303574 312.479157
13.060000 308.566193 309.783642 310.821115 310.833268 311.924831 312.965875
13.080000 309.503272 310.494037 311.452267 311.484805 312.527829 313.670824
13.100000 310.167361 311.097562 312.097924 312.109653 313.088762 314.429736
13.120000 310.915646 311.701824 312.672813 312.731429 313.728987 315.038423
13.140000 311.348355 312.273816 313.234556 313.322942 314.382975 315.601180
13.160000 311.895698 312.821055 313.824265 313.903915 315.051646 316.300495
13.180000 312.353878 313.358604 314.404887 314.486721 315.685483 316.946712
13.200000 312.855087 313.832568 314.961664 315.048376 316.306158 317.363077
13.220000 313.306061 314.353232 315.548056 315.575691 316.805059 317.874796
13.240000 313.819833 314.876141 316.120097 316.124238 317.358811 318.406282
13.260000 314.363285 315.403301 316.706921 316.669106 317.925527 318.874244
13.280000 314.938172 315.919254 317.253987 317.208776 318.438245 319.364260
13.300000 315.381242 316.548061 317.874661 317.763902 318.904548 319.731985
13.320000 316.056636 317.146145 318.418651 318.318770 319.460954 320.254177
13.340000 316.754443 317.801610 318.999332 318.899342 319.950265 320.734665
13.360000 317.407163 318.441048 319.575286 319.506241 320.517963 321.341339
13.380000 318.056286 319.186639 320.245504 320.178014 321.159774 322.032828
13.400000 318.757877 319.856029 320.846882 320.793495 321.741471 322.548672
13.420000 319.447980 320.584404 321.499532 321.429990 322.325700 323.038029
13.440000 320.417008 321.291511 322.175425 322.127230 322.923955 323.650279
13.460000 321.372455 322.182538 323.002871 322.983970 323.718698 324.680161
13.480000 322.190628 322.873858 323.608383 323.647101 324.377679 325.273729
13.500000 322.792771 323.470302 324.181377 324.221304 324.970903 325.953082
13.520000 323.315540 324.004023 324.699918 324.772789 325.554793 326.669383
13.540000 323.822248 324.453134 325.209682 325.299343 326.157584 327.439003
13.560000 324.379999 324.937746 325.784037 325.869076 326.707840 328.040734
13.580000 324.893334 325.476758 326.380829 326.486375 327.407337 328.842240
13.600000 325.418114 326.126109 327.108623 327.232402 328.334213 329.704780
13.620000 326.027122 326.825274 327.864342 328.001890 329.178002 330.591827
13.640000 326.639763 327.514218 328.645565 328.759402 330.054538 331.401176
13.660000 327.362861 328.258071 329.611420 329.606196 330.923373 332.107740
13.680000 328.068934 329.159888 330.546580 330.483169 331.786370 332.655718
13.700000 328.912405 330.208830 331.577175 331.439789 332.610302 333.374155
13.720000 330.162587 331.549534 332.647700 332.535817 333.497810 334.185998
13.740000 331.722980 332.868241 333.759952 333.670965 334.463197 335.158463
13.760000 332.879545 333.878634 334.666842 334.624138 335.380611 336.073987
13.780000 333.781111 334.604466 335.420058 335.378916 336.151015 336.916229
13.800000 334.345822 335.194703 336.038940 336.031326 336.848696 337.606347
13.820000 335.274207 336.079521 336.889067 336.873053 337.670517 338.355055
13.840000 335.970538 336.780066 337.574891 337.530106 338.247177 338.896591
13.860000 336.463331 337.345422 338.144464 338.061783 338.734417 339.356974
13.880000 337.362154 338.072697 338.731380 338.692857 339.278661 339.894286
13.900000 338.095370 338.673036 339.203127 339.216729 339.759701 340.379253
13.920000 338.701808 339.189983 339.710871 339.721763 340.283762 340.901015
13.940000 339.124219 339.632823 340.133168 340.164397 340.724669 341.302684
13.960000 339.544914 340.071464 340.538651 340.580276 341.159040 341.705852
13.980000 339.985762 340.456837 340.948931 340.987338 341.535940 342.062569
14.000000 340.351226 340.855008 341.342198 341.368760 341.920647 342.470476
14.030000 340.918300 341.386661 341.891437 341.919881 342.456276 343.123736
14.050000 341.290446 341.747824 342.277152 342.299113 342.832532 343.459646
14.080000 341.825831 342.305544 342.825903 342.851979 343.403026 344.074793
14.100000 342.163596 342.700535 343.212807 343.241360 343.814854 344.434904
14.130000 342.739045 343.258427 343.767026 343.803089 344.337283 345.037055
14.150000 343.116229 343.647467 344.136030 344.197155 344.746280 345.455131
14.180000 343.636232 344.194232 344.699316 344.777861 345.360576 346.080941
14.200000 344.035016 344.603524 345.105465 345.186030 345.780528 346.583654
14.230000 344.637102 345.153268 345.681145 345.777918 346.437618 347.402665
14.250000 344.991845 345.515775 346.087690 346.190719 346.866269 347.947533
14.280000 345.627671 346.126343 346.711712 346.834397 347.548010 348.913227
14.300000 345.981879 346.548430 347.151943 347.294560 348.087473 349.406309
14.330000 346.615960 347.155506 347.784997 347.974183 348.796479 350.133200
14.350000 347.060246 347.589683 348.256323 348.432120 349.299144 350.635947
14.380000 347.647134 348.166356 348.947738 349.123295 350.065122 351.387663
14.400000 348.066563 348.609031 349.418372 349.597294 350.667912 352.104269
14.430000 348.676663 349.246930 350.083630 350.281730 351.393063 352.916269
14.450000 349.142038 349.679933 350.556477 350.748918 351.840299 353.359618
14.480000 349.683375 350.268960 351.243431 351.407910 352.538084 354.056156
14.500000 350.124921 350.701051 351.741679 351.876963 353.014829 354.587038
14.530000 350.657643 351.266851 352.423696 352.568020 353.793887 355.536199
14.550000 351.021455 351.718620 352.918093 353.077900 354.373928 356.223957
14.580000 351.674259 352.359240 353.692811 353.844359 355.309622 357.165020
14.600000 352.105596 352.817826 354.243849 354.401315 356.030168 357.743011
14.630000 352.756030 353.504875 355.126919 355.282954 357.079949 358.733863
14.650000 353.166040 354.049218 355.805719 355.906428 357.701184 359.267447
14.680000 353.809197 355.030142 356.899099 356.881296 358.704174 360.138874
14.700000 354.360922 355.756080 357.628146 357.560426 359.316887 360.690163
14.730000 355.005938 356.910794 358.707596 358.588335 360.316114 361.475402
14.750000 355.592507 357.600950 359.446220 359.290248 360.949426 362.253944
14.780000 356.439180 358.698068 360.649240 360.408964 362.030614 363.434154
14.800000 357.041073 359.465565 361.277044 361.091490 362.608310 364.091044
14.830000 358.256014 360.534638 362.173438 362.020060 363.472114 365.141697
14.850000 359.170532 361.199051 362.746028 362.656110 364.089913 365.891242
14.880000 360.426119 362.161531 363.615675 363.632431 365.098659 367.071464
14.900000 361.210790 362.750263 364.252487 364.263207 365.727068 367.663642
14.930000 362.307964 363.813925 365.132516 365.244980 366.819885 368.480842
14.950000 362.814861 364.396908 365.812779 365.883451 367.481026 369.136651
14.980000 363.681745 365.406796 366.885338 366.892190 368.485222 369.910269
15.000000 364.293671 365.999409 367.557661 367.526532 369.152970 370.444797
15.030000 365.360073 366.937467 368.533045 368.482917 370.065026 371.400439
15.050000 365.900349 367.582092 369.099301 369.080628 370.657417 371.938619
15.080000 366.657482 368.469050 369.977810 369.953407 371.458999 372.737953
15.100000 367.358088 369.017994 370.602222 370.549908 372.077425 373.279127
15.130000 368.390078 369.922358 371.568488 371.447899 372.925537 374.104384
15.150000 369.048204 370.565684 372.170829 372.063324 373.515926 374.653826
15.180000 370.167873 371.602889 373.133885 373.065228 374.526841 375.553088
15.200000 370.917301 372.414635 373.822274 373.781891 375.170991 376.212969
15.230000 372.158073 373.624448 375.010964 374.973660 376.266185 377.549698
15.250000 372.969493 374.530856 375.925562 375.888030 377.207473 378.526095
15.280000 374.466206 375.988167 377.354160 377.385546 378.788738 380.339628
15.300000 375.460745 377.080697 378.386437 378.445311 379.910453 381.412826
15.330000 377.216823 378.559150 379.917506 379.953150 381.417072 382.908724
15.350000 378.051768 379.466094 380.820323 380.854715 382.336496 383.684401
15.380000 379.452547 380.791674 382.210141 382.190494 383.544536 384.822126
15.400000 380.229777 381.647333 383.113919 383.056499 384.378724 385.523590
15.420000 381.112508 382.631611 384.039320 383.902874 385.106656 386.249902
15.440000 381.974444 383.602868 384.757433 384.691609 385.880958 386.902622
15.450000 382.282192 384.004386 385.160902 385.086590 386.218307 387.216807
15.460000 382.718684 384.408152 385.558741 385.475497 386.555963 387.545914
15.480000 383.819699 385.277585 386.443192 386.379355 387.487671 388.398501
15.500000 384.883928 386.126006 387.283549 387.225068 388.276489 389.498726
15.520000 385.664647 386.961999 388.126002 388.070163 389.091658 390.214761
15.550000 386.813581 388.235549 389.369350 389.310627 390.358000 391.520483
15.560000 387.196772 388.627929 389.737769 389.701186 390.714137 391.900256
15.580000 388.277667 389.491768 390.549242 390.506676 391.514154 392.543351
15.600000 389.134829 390.268374 391.356855 391.305613 392.394816 393.321326
15.620000 390.128556 391.082952 392.068825 392.081924 393.085040 394.031000
15.640000 391.159742 392.067177 393.052099 393.029987 394.005515 394.892822
15.650000 391.581405 392.457527 393.443482 393.419933 394.408712 395.260272
15.660000 391.941122 392.851133 393.823405 393.788786 394.757522 395.565117
15.680000 392.831478 393.755883 394.671848 394.658095 395.522655 396.434790
15.700000 393.673494 394.614070 395.466656 395.469701 396.344240 397.108278
15.720000 394.647217 395.494700 396.322674 396.328528 397.207582 398.010731
15.740000 395.391780 396.181062 397.044276 397.025629 397.855735 398.700398
15.750000 395.735054 396.506065 397.391659 397.368149 398.208898 399.017515
15.760000 396.082869 396.849426 397.744054 397.723907 398.580955 399.299645
15.780000 396.678289 397.550582 398.370855 398.357502 399.211026 399.984627
15.800000 397.390215 398.206755 398.954888 398.979095 399.800162 400.535280
15.820000 398.046737 398.809371 399.562743 399.602031 400.404689 401.189311
15.840000 398.625189 399.424696 400.180763 400.190419 400.990728 401.890259
15.850000 398.958958 399.729221 400.458776 400.499183 401.283751 402.217224
15.860000 399.289936 400.011398 400.755298 400.802684 401.584334 402.713622
15.880000 399.817203 400.518534 401.236356 401.332688 402.105622 403.340624
15.900000 400.286702 400.985412 401.681871 401.796525 402.560038 403.832818
15.920000 400.880506 401.442260 402.130164 402.256853 403.061885 404.370072
15.940000 401.329186 401.869545 402.561513 402.692166 403.464256 404.785219
15.950000 401.562946 402.072545 402.770855 402.914719 403.702276 405.050301
15.980000 402.155518 402.679494 403.349548 403.537850 404.454762 405.924565
16.000000 402.509481 403.090587 403.780052 403.962026 404.956939 406.403044
16.020000 402.947847 403.471759 404.216837 404.393584 405.569062 406.809386
16.040000 403.368058 403.868626 404.627620 404.835520 406.031324 407.334036
16.050000 403.562625 404.085930 404.847693 405.073950 406.269876 407.590794
16.060000 403.795425 404.332342 405.079934 405.315085 406.581670 407.855367
16.080000 404.157899 404.784952 405.538686 405.776891 407.092963 408.318587
16.100000 404.554604 405.208757 405.989417 406.230733 407.507126 408.758696
16.120000 404.993242 405.695898 406.441048 406.695278 408.031218 409.228474
16.140000 405.472766 406.146617 406.892677 407.164995 408.526787 409.695255
16.150000 405.725236 406.353889 407.153898 407.417502 408.754996 409.953958
16.160000 405.962333 406.598088 407.408690 407.677543 409.022114 410.179864
16.180000 406.349860 407.061422 407.923542 408.166629 409.516090 410.648746
16.200000 406.815113 407.547681 408.445905 408.679819 410.020004 411.142874
16.220000 407.258708 408.011144 409.027933 409.185837 410.505539 411.562606
16.240000 407.660030 408.559440 409.593647 409.716865 411.020646 412.067481
16.250000 407.993778 408.792603 409.912323 410.012086 411.353789 412.350077
16.260000 408.175328 409.100380 410.255408 410.315754 411.631641 412.681869
16.280000 408.730784 409.671209 410.925277 410.910926 412.153954 413.086849
16.300000 409.391658 410.240326 411.585640 411.519051 412.721169 413.540614
16.320000 409.958931 410.873661 412.187832 412.096837 413.239190 414.054947
16.340000 410.437375 411.528999 412.794292 412.683997 413.828917 414.683691
16.360000 411.065325 412.142933 413.288096 413.251158 414.330665 415.217454
16.380000 411.760672 412.755235 413.853029 413.835434 414.876913 415.777810
16.400000 412.468007 413.466102 414.516920 414.462455 415.432021 416.390228
16.420000 413.080094 414.102136 415.123961 415.076946 415.986805 417.040280
16.440000 413.858189 414.781251 415.801721 415.753232 416.679911 417.624411
16.460000 414.503810 415.412346 416.430717 416.410879 417.378825 418.366496
16.480000 415.112118 416.083398 417.030186 417.048554 418.039378 419.096795
16.500000 415.753029 416.764060 417.672751 417.711300 418.735442 419.780178
16.520000 416.440913 417.395770 418.282521 418.360508 419.409561 420.505998
16.540000 417.116920 418.060712 418.946512 419.016628 420.091821 421.014731
16.560000 417.806936 418.719398 419.665598 419.723361 420.778740 421.909481
16.580000 418.491568 419.445227 420.433771 420.453048 421.511409 422.490340
16.600000 419.332072 420.178570 421.222294 421.214578 422.228513 423.071773
16.620000 420.043917 421.072561 422.085313 422.039743 422.966211 423.889835
16.640000 420.816138 421.838231 422.893307 422.820191 423.751523 424.483817
16.660000 421.693012 422.744809 423.717230 423.631410 424.507854 425.138215
16.680000 422.785425 423.769838 424.701389 424.598395 425.359567 426.045216
16.700000 424.318344 425.302207 425.909312 425.883164 426.532779 427.095468
16.720000 425.764452 426.414746 427.017800 426.976287 427.569735 428.007112
16.740000 426.630503 427.200788 427.757040 427.732456 428.228085 428.771950
16.760000 427.278974 427.859353 428.343986 428.346414 428.799815 429.538001
16.780000 428.049558 428.492091 428.939620 428.991715 429.489732 430.269945
16.800000 428.552166 428.982722 429.458516 429.525270 430.046994 431.029391
16.820000 428.988128 429.390051 429.941638 430.008533 430.589101 431.607096
16.840000 429.408572 429.870682 430.401195 430.504503 431.105827 432.161956
16.860000 429.886181 430.366379 430.876242 430.993267 431.656412 432.689738
16.880000 430.294866 430.802545 431.339499 431.462719 432.187498 433.182169
16.900000 430.709661 431.245973 431.817935 431.931408 432.682465 433.614884
16.920000 431.102212 431.660629 432.247180 432.383447 433.194431 434.101614
16.940000 431.540969 432.098107 432.731872 432.860791 433.728518 434.702210
16.960000 432.007688 432.516469 433.215724 433.343032 434.205411 435.255611
16.980000 432.420294 432.950331 433.722074 433.828287 434.731797 435.770688
17.000000 432.872111 433.378813 434.241857 434.331803 435.308493 436.335036
17.030000 433.467529 434.071281 434.985606 435.099478 436.125675 437.207716
17.050000 433.902791 434.574485 435.540269 435.614865 436.662176 437.906383
17.080000 434.483676 435.311279 436.364949 436.446864 437.574441 438.989922
17.100000 435.044669 435.935402 436.994659 437.086588 438.196985 439.767200
17.130000 435.887099 436.846258 438.089037 438.218482 439.645650 441.334024
17.150000 436.467254 437.456375 438.792289 438.935479 440.437306 442.118437
17.180000 437.356268 438.464448 439.943039 440.102540 441.811823 443.641632
17.200000 437.862259 439.016079 440.678908 440.848862 442.668918 444.291033
17.230000 438.798160 439.966046 441.862776 442.015441 444.074855 445.727536
17.250000 439.385211 440.678687 442.642947 442.771959 444.918238 446.651656
17.280000 440.043864 441.529914 443.808953 443.850748 446.166418 447.763804
17.300000 440.534834 442.095346 444.467511 444.498322 446.877824 448.408292
17.330000 441.303552 442.891547 445.529231 445.446577 447.933619 449.475781
17.350000 441.732492 443.396142 446.180295 446.064167 448.612947 450.269617
17.380000 442.390434 444.123169 447.065463 446.938672 449.556831 451.337723
17.400000 442.968403 444.663647 447.782158 447.557399 450.227862 451.923069
17.430000 443.831228 445.602557 448.846578 448.492094 451.080826 452.758412
17.450000 444.484349 446.198483 449.483488 449.131681 451.749460 453.470078
17.480000 445.469065 447.101565 450.351118 450.142117 452.738575 454.467112
17.500000 446.139760 447.827625 451.094517 450.852212 453.513839 455.459617
17.550000 447.618310 449.830456 452.870135 452.634701 455.309668 457.224796
17.580000 448.542867 450.949174 453.904189 453.713973 456.430790 458.478120
17.600000 449.305083 451.710278 454.647966 454.417593 457.046828 458.993449
17.630000 450.396266 452.936044 455.697048 455.516935 458.117019 459.781425
17.650000 451.334020 453.810040 456.424990 456.237647 458.716121 460.311822
17.680000 452.519147 454.924031 457.487154 457.343369 459.680828 461.307374
17.700000 453.283765 455.596686 458.237512 458.066265 460.384059 462.088888
17.730000 454.304287 456.891603 459.297896 459.131975 461.351146 462.963948
17.750000 455.239680 457.558943 460.044391 459.819467 461.940629 463.594746
17.780000 456.611799 458.910550 461.159479 460.972315 462.938980 464.428096
17.800000 457.312503 459.654220 461.938306 461.693154 463.558130 464.982753
17.830000 458.623214 460.985844 463.057600 462.846458 464.589989 466.020291
17.850000 459.414353 461.952942 463.887808 463.654161 465.346102 466.753711
17.880000 461.429672 463.451421 465.047226 465.029176 466.580674 468.314885
17.900000 462.626465 464.389160 465.971820 465.940042 467.570469 469.237073
17.930000 464.046087 465.774252 467.391651 467.493033 469.269278 471.149561
17.950000 465.137646 466.720614 468.516409 468.584709 470.489945 472.403388
17.980000 466.486956 468.066308 470.056756 470.203998 472.390593 474.728166
18.000000 467.250955 468.999274 471.140267 471.187039 473.389271 475.590241
18.030000 468.443046 470.220781 472.839973 472.749837 475.234898 476.644513
18.050000 469.116840 471.139684 473.791827 473.678714 476.141615 477.479574
18.080000 470.309784 472.769516 475.754114 475.257330 477.328179 478.539556
18.100000 471.213996 473.720497 476.696482 476.134481 478.124511 479.072636
18.130000 472.501446 475.851835 477.898689 477.476375 479.083139 480.033211
18.150000 473.327314 476.790633 478.567938 478.182751 479.671986 480.544724
18.180000 475.125150 477.930164 479.383743 479.128116 480.451481 481.399862
18.200000 475.880227 478.526440 479.967128 479.708245 480.913306 481.960500
18.230000 477.389556 479.417041 480.729864 480.554358 481.698387 482.882578
18.250000 478.046609 480.024171 481.280970 481.111250 482.184059 483.362196
18.280000 479.001088 480.816726 481.978367 481.855731 482.898783 484.083200
18.300000 479.587430 481.324155 482.470800 482.356932 483.392158 484.426539
18.330000 480.645616 482.091342 483.127037 483.069608 484.081142 485.073696
18.350000 481.227542 482.635840 483.597727 483.557300 484.521862 485.553257
18.380000 481.934096 483.351204 484.280694 484.237461 485.144655 486.184279
18.400000 482.425250 483.801523 484.721831 484.688485 485.621090 486.605275
18.430000 483.265321 484.483241 485.370544 485.349643 486.217685 487.263567
18.450000 483.893711 484.975945 485.811767 485.811472 486.658185 487.722846
18.480000 484.540778 485.650293 486.473525 486.467021 487.332026 488.401509
18.500000 484.985992 486.069131 486.889963 486.895851 487.786959 488.928992
18.530000 485.598192 486.639607 487.479166 487.508183 488.394007 489.688671
18.550000 485.989115 487.023156 487.890450 487.928971 488.833936 490.104856
18.580000 486.649167 487.656483 488.472854 488.558286 489.497568 490.808957
18.600000 487.138077 488.091716 488.964187 489.014721 489.924112 491.247639
18.630000 487.940942 488.806368 489.672711 489.712891 490.617162 491.966092
18.650000 488.400545 489.266465 490.156392 490.186354 491.124752 492.440665
18.680000 488.955998 489.943558 490.855627 490.862638 491.783673 493.108744
18.700000 489.450945 490.365908 491.284661 491.313628 492.224007 493.568397
18.730000 490.107066 490.991668 491.979896 491.980284 492.884748 494.256149
