depth(m) lower_95(kyr) lower_68(kyr) median(kyr) mean(kyr) upper_68(kyr) upper_95(kyr)
0.000000 0.745208 1.267306 1.622216 1.718470 2.332453 2.848553
0.020000 0.957665 1.483181 1.836711 1.936176 2.567358 3.017391
0.040000 1.184425 1.673698 2.031277 2.138319 2.787793 3.250078
0.060000 1.413820 1.868713 2.221381 2.342419 3.010940 3.481935
0.080000 1.615118 2.080324 2.410343 2.544211 3.202657 3.684449
0.100000 1.865010 2.291456 2.602608 2.746381 3.412623 3.871199
0.120000 2.092740 2.465968 2.797958 2.947656 3.629939 4.093915
0.140000 2.293585 2.673793 3.000401 3.150425 3.856030 4.285683
0.160000 2.546981 2.871592 3.204483 3.357016 4.027143 4.483565
0.180000 2.773542 3.075154 3.413367 3.571930 4.267121 4.740259
0.200000 2.975393 3.276442 3.624751 3.788995 4.490382 4.937711
0.220000 3.189296 3.482106 3.853277 4.008833 4.716998 5.182863
0.240000 3.406330 3.688093 4.072981 4.235531 4.936792 5.397491
0.260000 3.603550 3.891147 4.306223 4.465567 5.176390 5.621879
0.280000 3.825235 4.107099 4.574239 4.709814 5.428685 5.856552
0.300000 4.035941 4.341188 4.890332 4.979442 5.714708 6.146167
0.320000 4.230225 4.580369 5.200521 5.249598 5.980178 6.404356
0.340000 4.449448 4.828058 5.542770 5.536781 6.246765 6.655204
0.360000 4.687228 5.093573 5.871515 5.827727 6.526015 6.911891
0.380000 4.954925 5.401611 6.222508 6.137863 6.815094 7.166147
0.400000 5.255130 5.765818 6.563669 6.470017 7.105843 7.387942
0.440000 5.936127 6.575404 7.220594 7.125406 7.629767 8.003990
0.460000 6.223708 6.911256 7.491216 7.413845 7.859649 8.200378
0.480000 6.642841 7.281125 7.761243 7.691482 8.079836 8.418332
0.500000 6.919230 7.605969 8.003984 7.949342 8.321083 8.627106
0.520000 7.292744 7.868113 8.241527 8.198570 8.550637 8.841787
0.540000 7.610538 8.138016 8.477372 8.444850 8.768943 9.041862
0.560000 7.994867 8.399946 8.715274 8.696672 9.002641 9.267884
0.580000 8.307890 8.646478 8.939378 8.928634 9.218251 9.458339
0.600000 8.586677 8.868219 9.159796 9.147522 9.436185 9.649498
0.620000 8.807181 9.081468 9.361957 9.352240 9.624318 9.833127
0.640000 9.018264 9.285448 9.561303 9.557109 9.826114 10.046958
0.660000 9.211198 9.490584 9.764425 9.752675 10.019962 10.246533
0.680000 9.419381 9.687377 9.956050 9.949409 10.211585 10.442742
0.700000 9.606865 9.894997 10.166034 10.153189 10.412654 10.648760
0.720000 9.801927 10.096512 10.366908 10.356410 10.616103 10.854631
0.740000 9.984582 10.296593 10.567498 10.558293 10.802670 11.075452
0.760000 10.204943 10.482384 10.758226 10.755170 11.012709 11.304065
0.780000 10.409498 10.689739 10.954588 10.955764 11.220151 11.525583
0.800000 10.611378 10.898621 11.165692 11.164348 11.437575 11.727876
0.820000 10.842545 11.115369 11.369313 11.379858 11.659417 11.978818
0.840000 11.056459 11.319392 11.594285 11.604936 11.899991 12.257900
0.860000 11.238923 11.548200 11.812994 11.840656 12.150659 12.563575
0.880000 11.463737 11.753120 12.039572 12.078199 12.405023 12.867587
0.900000 11.695997 11.998801 12.266602 12.321449 12.680993 13.144606
0.920000 11.917355 12.234408 12.530125 12.581644 12.973726 13.391205
0.940000 12.172737 12.488266 12.829110 12.858594 13.272968 13.670620
0.960000 12.431581 12.757227 13.133854 13.152996 13.582077 13.992476
0.980000 12.711989 13.025649 13.450842 13.467671 13.903063 14.325657
1.000000 12.977340 13.347009 13.824191 13.821596 14.269098 14.745396
1.020000 13.313265 13.719022 14.204804 14.203499 14.673403 15.155874
1.040000 13.786306 14.237509 14.704816 14.711716 15.199861 15.657164
1.060000 14.193871 14.662261 15.098293 15.112303 15.567873 16.077888
1.080000 14.537257 15.023677 15.452344 15.463583 15.914129 16.354220
1.100000 14.899412 15.344951 15.755542 15.771020 16.211789 16.652587
1.120000 15.230663 15.664232 16.079852 16.078608 16.498556 16.951137
1.140000 15.529830 15.938599 16.393551 16.374203 16.816627 17.230861
1.160000 15.847466 16.259015 16.691146 16.679635 17.069206 17.478097
1.180000 16.144372 16.584538 16.988066 16.972135 17.341245 17.766217
1.200000 16.446825 16.879749 17.276587 17.261876 17.638773 17.991948
1.220000 16.759335 17.173523 17.543521 17.538153 17.885358 18.292184
1.240000 17.051208 17.455264 17.782783 17.792028 18.107765 18.623124
1.260000 17.343059 17.702656 18.013193 18.031593 18.331376 18.827133
1.280000 17.581101 17.938061 18.242290 18.267971 18.556509 19.076626
1.300000 17.878906 18.171978 18.469422 18.502662 18.782269 19.374252
1.320000 18.116921 18.414806 18.694031 18.737740 19.017063 19.680866
1.340000 18.386405 18.637374 18.916433 18.968474 19.247530 20.072052
1.360000 18.620835 18.859124 19.132408 19.195762 19.484908 20.406642
1.380000 18.814395 19.065137 19.342500 19.417336 19.732994 20.654594
1.400000 19.019121 19.285491 19.552940 19.644180 19.981903 20.957510
1.420000 19.278384 19.503268 19.782158 19.877197 20.245509 21.232402
1.440000 19.482299 19.716463 20.016083 20.112026 20.484165 21.396130
1.460000 19.700782 19.927386 20.252721 20.358340 20.743735 21.789115
1.500000 20.064978 20.340870 20.695996 20.829740 21.315162 22.377681
1.520000 20.307929 20.571011 20.936788 21.085514 21.637357 22.633392
1.540000 20.506797 20.797873 21.194922 21.353790 21.948762 22.994159
1.560000 20.740639 21.048460 21.450827 21.636073 22.269288 23.365416
1.580000 20.955844 21.288824 21.760543 21.936094 22.684367 23.661948
1.600000 21.214036 21.533705 22.101836 22.265068 23.088718 24.029279
1.620000 21.469146 21.828757 22.443816 22.595444 23.496263 24.296114
1.640000 21.687801 22.124452 22.810269 22.940624 23.816656 24.636504
1.660000 21.987039 22.452150 23.220538 23.318591 24.192068 24.990517
1.680000 22.245410 22.833056 23.671384 23.708471 24.536027 25.304657
1.700000 22.547550 23.229947 24.097457 24.110134 24.920197 25.741104
1.720000 22.921418 23.626441 24.552628 24.520852 25.337797 26.229771
1.740000 23.343185 24.057761 24.972989 24.961399 25.727936 26.844390
1.760000 23.733766 24.532487 25.417088 25.432655 26.180890 27.616793
1.780000 24.228337 25.018045 25.857650 25.893684 26.637384 28.170621
1.800000 24.677577 25.470527 26.246444 26.317180 27.136925 28.622054
1.820000 25.097586 25.889110 26.638980 26.723429 27.558547 29.079023
1.840000 25.514514 26.301984 27.022254 27.124440 27.953604 29.382339
1.860000 25.951919 26.679463 27.396467 27.530312 28.362726 29.774940
1.880000 26.364904 27.045929 27.809395 27.936177 28.788107 30.240477
1.900000 26.859104 27.453560 28.252163 28.361454 29.251531 30.818879
1.920000 27.235263 27.822371 28.606334 28.764180 29.661369 31.276608
1.940000 27.563699 28.195329 28.941141 29.150970 30.181376 31.694108
1.960000 27.885628 28.569268 29.305095 29.536250 30.660582 32.085265
1.980000 28.221747 28.923109 29.680032 29.925439 31.056995 32.484195
2.000000 28.613591 29.293980 30.127835 30.333792 31.502180 32.898159
2.020000 29.021525 29.649715 30.541858 30.756307 31.895991 33.413596
2.040000 29.435289 30.033633 31.017622 31.158402 32.218664 33.814351
2.060000 29.791019 30.377610 31.445825 31.566421 32.664743 34.170272
2.080000 30.117245 30.737011 31.879175 31.966623 33.180818 34.649153
2.100000 30.399661 31.103051 32.239266 32.357360 33.639573 35.122928
2.120000 30.719629 31.441085 32.617426 32.742501 34.060964 35.493579
2.140000 31.059125 31.784739 32.959150 33.125117 34.566538 35.808812
2.160000 31.349924 32.153374 33.286493 33.493657 34.974966 36.062948
2.180000 31.634555 32.572125 33.633702 33.867006 35.464503 36.525417
2.200000 31.987558 32.936326 33.957671 34.238940 35.889885 37.023864
2.220000 32.224892 33.291242 34.280986 34.608183 36.348627 37.457508
2.240000 32.512937 33.647956 34.588050 34.983569 36.775434 37.858402
2.260000 32.768519 33.993286 34.928955 35.350706 37.200673 38.400044
2.280000 32.968021 34.328816 35.317731 35.723447 37.583266 38.870308
2.300000 33.297380 34.686359 35.686369 36.095650 37.945008 39.162521
2.320000 33.538475 34.986472 36.090928 36.471702 38.355640 39.519531
2.340000 33.813618 35.297287 36.570710 36.851216 38.721411 39.939332
2.360000 34.238608 35.612094 36.928855 37.230135 39.129847 40.410860
2.380000 34.480125 35.977183 37.421942 37.608293 39.472050 40.788724
2.400000 34.840361 36.313090 37.826505 38.012139 39.886134 41.185676
2.420000 35.253376 36.741449 38.276064 38.413215 40.266599 41.516916
2.440000 35.598168 37.139995 38.766616 38.824997 40.584500 41.898197
2.460000 35.872926 37.536658 39.212005 39.231306 40.959992 42.289329
2.480000 36.172972 38.008743 39.623046 39.632039 41.399878 42.624315
2.500000 36.538301 38.435918 40.046606 40.028432 41.792460 43.004511
2.520000 36.963975 38.945098 40.433966 40.432703 42.184874 43.297120
2.540000 37.298676 39.387812 40.803881 40.824600 42.607317 43.577604
2.560000 37.681041 39.809952 41.153830 41.196710 42.903443 43.931973
2.580000 38.238556 40.244677 41.523742 41.563317 43.302439 44.264651
2.600000 38.749395 40.739341 41.836172 41.931266 43.673108 44.644337
2.620000 39.297168 41.131590 42.133873 42.291317 44.041463 44.895138
2.640000 39.653082 41.535915 42.402757 42.621948 44.388149 45.251418
2.660000 40.071806 41.852982 42.648276 42.917312 44.707494 45.546696
2.680000 40.669000 42.148027 42.867585 43.207681 45.033800 45.819044
2.700000 41.159909 42.473608 43.098451 43.488621 45.332753 46.113597
2.720000 41.371170 42.748633 43.323500 43.754587 45.655489 46.393691
2.740000 41.754751 43.012083 43.547426 44.022543 45.978481 46.715596
2.760000 42.224316 43.243466 43.781551 44.289716 46.264147 46.993876
2.780000 42.526606 43.500217 43.997286 44.558555 46.583038 47.363280
2.800000 42.903380 43.748976 44.221436 44.834572 46.897540 47.742195
2.820000 43.267219 43.999797 44.465491 45.111083 47.233708 48.029049
2.840000 43.567934 44.233592 44.680764 45.378091 47.595373 48.355881
2.860000 43.820173 44.472870 44.936966 45.649753 47.905135 48.702810
2.880000 44.082493 44.736729 45.194345 45.923752 48.206758 48.998657
2.900000 44.315248 44.990073 45.461529 46.205546 48.554502 49.349254
2.920000 44.569208 45.225343 45.720736 46.480647 48.885238 49.652876
2.940000 44.903415 45.470890 46.003208 46.760765 49.218364 49.976668
2.960000 45.227083 45.738901 46.266527 47.045035 49.567393 50.224360
2.980000 45.557329 46.003362 46.574346 47.337232 49.859864 50.540213
3.000000 45.889793 46.302929 46.871653 47.643952 50.129286 50.833280
3.020000 46.143785 46.615287 47.164364 47.949162 50.404292 51.128916
3.040000 46.444292 46.906923 47.450871 48.251458 50.680163 51.591517
3.060000 46.725986 47.218364 47.753638 48.557279 50.956784 51.995859
3.080000 47.011931 47.509418 48.067009 48.869281 51.259827 52.502049
3.100000 47.332078 47.771800 48.382312 49.179849 51.572153 53.013854
3.120000 47.580009 48.034263 48.648238 49.500607 51.983558 53.396412
3.140000 47.870733 48.305778 48.975208 49.819851 52.385946 53.723558
3.160000 48.104416 48.594157 49.272396 50.133610 52.831098 54.093147
3.180000 48.352525 48.870970 49.572239 50.444350 53.209943 54.409357
3.200000 48.614099 49.159212 49.897057 50.771896 53.646127 54.819457
3.220000 48.849181 49.457919 50.194350 51.098567 54.002758 55.131175
3.240000 49.136680 49.803626 50.519862 51.428659 54.360951 55.470366
3.260000 49.439725 50.164728 50.864248 51.770563 54.752095 55.796651
3.280000 49.763426 50.528015 51.221245 52.121931 55.077878 56.205255
3.300000 50.060289 50.865922 51.566911 52.475072 55.412548 56.578570
3.320000 50.406367 51.192009 51.888914 52.821392 55.744753 56.920936
3.340000 50.763930 51.493778 52.232565 53.156914 56.070583 57.265562
3.360000 51.129418 51.837970 52.571224 53.495644 56.392261 57.580816
3.380000 51.510948 52.146147 52.930569 53.832533 56.798731 57.951082
3.400000 51.936836 52.485650 53.294538 54.175052 57.101636 58.197170
3.420000 52.256777 52.810071 53.637055 54.513132 57.420836 58.522685
3.440000 52.546966 53.126211 53.965066 54.843014 57.759258 58.789694
3.460000 52.907783 53.421069 54.369735 55.177478 58.105681 59.019711
3.480000 53.150843 53.721140 54.707784 55.497343 58.366741 59.318534
3.500000 53.432924 54.002842 55.106791 55.820009 58.666283 59.520008
3.550000 54.081870 54.714899 55.978061 56.589007 59.267324 60.184699
3.600000 54.577113 55.443105 56.912608 57.332667 59.830548 60.805018
3.650000 55.257879 56.190079 57.794911 58.117597 60.367317 61.408671
3.700000 55.978633 57.016092 58.789427 58.913111 60.913392 62.138377
3.750000 56.759603 57.986622 59.712059 59.712318 61.504292 62.759485
3.800000 57.527999 58.839995 60.543583 60.509135 62.115297 63.402782
3.850000 58.378004 59.892136 61.423854 61.408006 62.855054 64.120315
3.900000 59.425023 61.151533 62.410927 62.351604 63.627061 64.908893
3.950000 60.681867 62.013528 63.286150 63.230766 64.435208 65.740547
4.000000 61.587434 62.818730 64.035394 64.022661 65.199029 66.390011
4.050000 62.503392 63.607419 64.768571 64.775333 65.934843 67.026764
4.100000 63.208279 64.362345 65.465517 65.487039 66.691431 67.724202
4.150000 63.872602 65.042141 66.252155 66.221842 67.411377 68.434967
4.200000 64.494672 65.857371 67.027896 66.966013 68.086266 69.092099
4.250000 65.396343 66.573543 67.784991 67.720193 68.829767 69.797577
4.300000 66.237559 67.472219 68.667202 68.605414 69.667306 70.765172
4.350000 67.366098 68.500200 69.565232 69.574585 70.638170 71.850111
4.400000 68.485793 69.519636 70.571487 70.616506 71.734082 73.086979
4.500000 70.788346 71.716309 72.932876 73.099366 74.596339 76.136198
4.550000 71.775525 72.811236 74.102927 74.254343 75.760936 77.391339
4.600000 72.874367 74.000947 75.377466 75.438638 76.922269 78.378683
4.650000 73.711414 74.952282 76.393057 76.419113 77.885563 79.327718
4.700000 74.669463 75.949990 77.362451 77.378415 78.842138 80.200243
4.750000 75.816147 76.966711 78.307137 78.337630 79.627083 80.970066
4.800000 76.800959 78.108801 79.421041 79.388497 80.649012 81.928508
4.850000 78.312497 79.419996 80.595326 80.585967 81.774809 82.805638
4.900000 79.409885 80.492355 81.620631 81.574418 82.661494 83.645297
4.950000 80.265639 81.532843 82.636521 82.541206 83.533579 84.400043
5.000000 81.270927 82.444272 83.567613 83.489367 84.453343 85.520835
5.050000 82.383705 83.497810 84.558530 84.518440 85.435605 86.527844
5.100000 83.745895 84.831173 85.729305 85.807233 86.883864 87.904992
5.150000 84.793890 85.727636 86.720796 86.804887 87.868134 89.119194
5.200000 85.562637 86.559352 87.642840 87.690713 88.830212 90.046039
5.250000 86.173723 87.275267 88.470611 88.491521 89.694693 91.027622
5.300000 86.903174 88.004100 89.282394 89.266548 90.437505 91.831731
5.350000 87.611273 88.754249 90.012919 90.041790 91.297323 92.596057
5.400000 88.420989 89.601813 90.728140 90.826581 92.152298 93.436387
5.450000 89.239242 90.404233 91.573428 91.640737 92.994037 94.304399
5.500000 89.963723 91.198057 92.386661 92.437114 93.754934 95.021786
5.550000 90.828872 92.006307 93.218066 93.297471 94.643538 96.132798
5.600000 91.828511 92.701783 93.986276 94.134840 95.605084 97.185559
5.650000 92.565543 93.399359 94.847551 95.003463 96.732526 98.292366
5.700000 93.302016 94.052654 95.602452 95.819371 97.692741 99.457550
5.750000 93.981660 94.709560 96.340942 96.611953 98.572420 100.372003
5.800000 94.439531 95.309044 97.154124 97.396670 99.510354 101.449806
5.850000 95.112510 95.997234 98.071019 98.217713 100.344196 102.310301
5.900000 95.689692 96.698336 98.990879 99.052868 101.137915 103.192580
5.950000 96.207843 97.404759 100.032401 99.886675 102.042209 104.062621
5.990000 96.740082 97.957401 100.818880 100.592357 102.765396 104.814999
6.000000 96.907232 98.125390 100.987242 100.773556 102.954506 105.100470
6.100000 98.097420 99.759152 102.684091 103.031330 105.425261 112.143615
6.200000 99.710560 101.687221 104.929999 105.956808 111.683555 114.389703
6.300000 101.526482 104.005112 110.722364 109.571925 114.139899 115.669474
6.400000 103.896670 109.687896 114.580903 113.313950 116.016822 117.147052
6.500000 110.721095 114.990980 116.571565 116.216124 117.679857 118.804146
6.600000 117.114672 118.019881 119.017543 119.040197 120.035877 121.407035
6.700000 118.820421 119.756519 120.846256 120.855269 121.969954 123.026125
6.800000 120.167520 121.110888 122.265647 122.250672 123.402709 124.417721
6.900000 121.402043 122.459201 123.589749 123.591981 124.746349 125.698091
7.000000 122.758217 123.846103 125.037166 124.963944 126.028272 126.858434
7.100000 124.215057 125.397687 126.506000 126.403069 127.389598 128.149575
7.200000 126.242835 127.259171 128.109281 128.088282 128.955318 129.686233
7.300000 128.185514 128.981264 129.808780 129.814507 130.602156 131.645741
7.400000 129.953075 130.678675 131.615670 131.670335 132.617985 133.719811
7.500000 132.068941 133.240663 134.695356 134.836836 136.346162 138.810518
7.600000 133.962755 135.379321 137.132755 137.259849 139.083162 141.512167
7.700000 135.689972 137.114330 139.071244 139.264572 141.286620 144.104684
7.800000 137.225091 139.003457 140.852552 141.188194 143.428106 146.829781
7.900000 139.303868 141.174780 143.068117 143.423386 145.779250 149.102303
8.000000 142.180007 143.855234 145.970428 146.273637 148.746341 151.550654
8.100000 144.225621 146.080023 148.525742 148.696289 151.094780 153.874117
8.200000 146.063271 148.335340 150.903460 150.917324 153.311985 156.540730
8.300000 147.748960 150.310026 152.779497 152.928124 155.215642 160.756947
8.400000 149.221650 152.080745 154.764604 154.891316 157.277286 163.059780
8.500000 151.129187 153.966186 156.499477 156.919950 159.542611 165.611605
8.600000 153.179764 156.118967 158.541387 159.023598 161.961776 167.819955
8.700000 155.397983 158.327906 160.489498 161.246047 165.206111 169.809121
8.800000 158.154896 160.641317 162.495551 163.810431 168.613679 172.165809
8.900000 160.443149 162.506445 164.020783 166.024133 171.793889 174.087180
9.000000 162.466668 163.973529 165.371466 168.005824 174.056611 175.806623
9.100000 164.653925 165.657893 166.757110 170.311918 176.053348 178.178838
9.105000 164.756150 165.742257 166.839817 170.415469 176.185929 178.288933
9.140000 165.455303 166.395529 167.434135 171.080036 176.779245 179.108606
9.165000 166.013851 166.840879 167.782419 171.545412 177.193116 179.591911
9.185000 166.457485 167.201778 168.061506 171.919426 177.559583 180.046741
9.200000 166.862329 167.509421 168.295340 172.217425 177.858262 180.454100
9.204000 166.961814 167.607085 168.357968 172.302586 177.937792 180.567008
9.227000 167.541728 168.099255 168.779579 172.795416 178.462415 181.038712
9.235000 167.765903 168.266504 168.933206 172.977272 178.654107 181.155708
9.252500 168.199817 168.615569 169.236416 173.362906 179.041085 181.569752
9.267500 168.495228 168.921658 169.579360 173.697063 179.394976 181.959453
9.275000 168.752894 169.095449 169.738533 173.868011 179.561369 182.104613
9.280000 168.849096 169.193802 169.852444 173.982161 179.675213 182.201115
9.285000 168.966565 169.320938 169.980518 174.096101 179.798404 182.301244
9.300000 169.237263 169.639644 170.517938 174.439256 180.077402 182.558120
9.360000 170.073446 170.714609 173.122651 175.800667 181.192689 183.416029
9.400000 170.750030 171.526387 174.770959 176.715350 181.980148 184.059874
9.500000 172.201897 173.916806 178.858028 179.006076 183.625613 185.606595
9.600000 173.940288 176.809923 182.954151 181.536460 185.335101 187.033960
9.700000 176.749358 180.425505 185.418722 184.249652 187.008232 188.336876
9.800000 179.244590 185.127928 187.428919 186.862703 188.694039 190.128566
9.900000 183.776751 187.697470 189.072503 188.885397 190.269439 191.775087
10.000000 187.992064 189.382507 190.538719 190.615200 191.955934 193.739917
10.100000 189.806803 190.920950 192.006902 192.262243 193.620864 195.903415
10.200000 191.297142 192.435930 193.588649 194.143859 195.736063 200.460221
10.300000 192.739518 193.769504 194.938997 195.856118 198.032409 203.422459
10.400000 193.977922 195.048939 196.305093 197.389775 199.925638 205.945715
10.500000 195.606882 196.526500 197.808841 199.056828 203.032213 207.955375
10.600000 197.327439 198.308968 199.680178 200.962448 205.026459 209.712797
10.700000 199.265467 200.425727 202.015588 203.066660 206.832415 211.381342
10.800000 201.364072 203.079907 204.965465 205.697920 208.553663 212.862577
