depth(m) lower_95(kyr) lower_68(kyr) median(kyr) mean(kyr) upper_68(kyr) upper_95(kyr)
0.040000 0.016336 0.104874 0.371527 0.484337 0.894888 1.467900
0.120000 0.178685 0.304257 0.628025 0.733228 1.179404 1.830357
0.200000 0.346091 0.502344 0.867321 0.967634 1.434149 2.129327
0.300000 0.552994 0.750177 1.155677 1.256871 1.802422 2.463801
0.400000 0.749619 0.979817 1.449704 1.539145 2.132247 2.764449
0.500000 0.964970 1.225255 1.720156 1.820468 2.466328 3.139648
0.600000 1.181752 1.457743 1.995985 2.093135 2.791308 3.517997
0.733333 1.454076 1.747851 2.347564 2.437493 3.147640 3.914622
0.866667 1.738731 2.054984 2.702034 2.776848 3.533623 4.341408
1.000000 1.991274 2.354795 3.075457 3.130431 3.906078 4.750539
1.100000 2.247186 2.608570 3.319420 3.401587 4.204357 5.099394
1.200000 2.467030 2.861050 3.582129 3.677715 4.512291 5.359030
1.300000 2.685572 3.129865 3.881314 3.960030 4.813903 5.595201
1.400000 2.918130 3.400076 4.181928 4.236536 5.113919 5.808557
1.500000 3.136961 3.657772 4.475183 4.519955 5.406601 6.115065
1.600000 3.347151 3.957962 4.749909 4.803472 5.705154 6.380261
1.700000 3.615192 4.233488 5.038488 5.081175 6.013123 6.644894
1.800000 3.862158 4.507748 5.338653 5.360863 6.289428 6.872616
1.900000 4.092989 4.780983 5.631592 5.653492 6.536397 7.126565
2.000000 4.426620 5.087163 5.951014 5.963868 6.844563 7.383359
2.100000 4.724870 5.422631 6.272952 6.267436 7.124391 7.667174
2.200000 5.004260 5.739406 6.600479 6.581994 7.439983 7.918055
2.300000 5.351643 6.068996 6.921602 6.892965 7.722054 8.191118
2.400000 5.711737 6.463356 7.246426 7.212074 7.981352 8.434658
2.500000 6.062889 6.853492 7.604160 7.548925 8.280659 8.695686
2.600000 6.447997 7.233885 7.944546 7.898156 8.568208 8.986781
2.700000 6.814188 7.588725 8.286351 8.214702 8.850727 9.216062
2.800000 7.087658 7.915184 8.596219 8.528346 9.120824 9.518652
2.900000 7.509094 8.251565 8.908667 8.831585 9.389774 9.745653
3.000000 7.968893 8.613572 9.218269 9.149280 9.646406 10.008694
3.100000 8.415193 9.014224 9.554810 9.484574 9.932760 10.329517
3.200000 8.836760 9.374239 9.853765 9.811745 10.219383 10.615973
3.300000 9.264916 9.745674 10.161771 10.130376 10.523385 10.884702
3.400000 9.585128 10.076997 10.440278 10.425148 10.777669 11.168167
3.500000 9.926385 10.370540 10.734187 10.720621 11.066609 11.442248
3.600000 10.332031 10.698067 11.037738 11.035085 11.364017 11.745398
3.700000 10.696886 11.036694 11.329368 11.344964 11.654312 12.066534
3.800000 11.026793 11.330960 11.621944 11.641074 11.952589 12.382455
3.900000 11.383955 11.627791 11.912565 11.931386 12.236859 12.693237
4.000000 11.690311 11.918367 12.169933 12.217358 12.492578 12.953407
4.040000 11.834663 12.057487 12.308415 12.346567 12.608028 13.068497
4.080000 12.008713 12.198178 12.451571 12.484352 12.738058 13.255778
4.100000 12.074397 12.267657 12.532913 12.558138 12.808966 13.324301
4.120000 12.150951 12.343427 12.600094 12.631181 12.875985 13.379959
4.160000 12.319716 12.503632 12.751204 12.780400 13.009098 13.512542
4.200000 12.449831 12.662227 12.893561 12.922330 13.156649 13.631044
4.240000 12.607490 12.828521 13.038013 13.067592 13.297846 13.754213
4.280000 12.755415 12.971091 13.182969 13.210485 13.444891 13.903900
4.300000 12.821142 13.052253 13.247835 13.286406 13.527633 13.970903
4.320000 12.901587 13.127854 13.322789 13.363138 13.590354 14.038982
4.360000 13.089255 13.284960 13.468395 13.514772 13.737327 14.157456
4.400000 13.228877 13.426139 13.625815 13.660527 13.925823 14.292542
4.440000 13.381086 13.562928 13.772651 13.809246 14.091403 14.429786
4.480000 13.523840 13.703438 13.913992 13.956951 14.255834 14.525482
4.500000 13.608779 13.780360 13.994743 14.041022 14.343032 14.594693
4.520000 13.681516 13.873527 14.081189 14.120179 14.420734 14.660882
4.560000 13.823016 14.021767 14.244315 14.280119 14.571815 14.814634
4.600000 13.969955 14.168519 14.407752 14.430686 14.716246 14.957544
4.640000 14.128797 14.322444 14.587284 14.594185 14.880472 15.074985
4.680000 14.276969 14.486770 14.770399 14.762719 15.023012 15.205181
4.700000 14.371117 14.568928 14.848164 14.845321 15.099961 15.295727
4.720000 14.447055 14.647425 14.944349 14.927273 15.177042 15.359649
4.760000 14.609007 14.831068 15.118689 15.084863 15.315666 15.498643
4.800000 14.764650 14.981935 15.251481 15.229403 15.443111 15.663804
4.840000 14.922944 15.132357 15.384727 15.364608 15.558337 15.802479
4.880000 15.063770 15.281243 15.504259 15.490154 15.664213 15.905744
4.900000 15.127980 15.360728 15.573461 15.559283 15.732241 15.981400
4.920000 15.194743 15.446654 15.643846 15.628723 15.796299 16.042141
4.960000 15.349503 15.579375 15.759551 15.756598 15.913015 16.215085
5.000000 15.495914 15.712566 15.870567 15.880513 16.030396 16.370721
5.040000 15.604152 15.836027 15.983600 15.998809 16.144537 16.531134
5.080000 15.730897 15.963736 16.096921 16.120727 16.262623 16.669543
5.100000 15.809514 16.026286 16.158235 16.185991 16.336544 16.745960
5.120000 15.873620 16.085263 16.215964 16.248373 16.409999 16.805155
5.160000 16.004187 16.194950 16.324992 16.363865 16.520539 16.977592
5.200000 16.135605 16.297870 16.437775 16.483217 16.651726 17.111308
5.240000 16.251914 16.410542 16.544559 16.600520 16.772043 17.271884
5.280000 16.368456 16.519216 16.659114 16.719451 16.903342 17.399252
5.300000 16.429408 16.575918 16.721993 16.783409 16.992089 17.485807
5.320000 16.487240 16.637185 16.780911 16.847193 17.075825 17.576274
5.360000 16.605528 16.744707 16.893509 16.965639 17.241866 17.734975
5.400000 16.717431 16.851951 17.002509 17.085284 17.404219 17.892759
5.440000 16.817489 16.961527 17.109179 17.206690 17.565816 18.067258
5.480000 16.938509 17.075250 17.221072 17.331564 17.723917 18.234850
5.500000 16.988063 17.138637 17.278512 17.395233 17.814740 18.300842
5.520000 17.043357 17.207142 17.337214 17.457850 17.887116 18.342834
5.560000 17.150666 17.311424 17.455828 17.578638 18.015938 18.454970
5.600000 17.275883 17.421303 17.567858 17.694162 18.160674 18.574043
5.640000 17.395768 17.535597 17.685386 17.812584 18.338747 18.686320
5.680000 17.492205 17.643527 17.797731 17.929823 18.490129 18.798707
5.700000 17.554882 17.703377 17.856376 17.992180 18.578711 18.863417
5.720000 17.619296 17.759670 17.910743 18.051524 18.640639 18.916531
5.760000 17.740203 17.880357 18.030410 18.165466 18.746915 19.024635
5.800000 17.871345 17.985826 18.142372 18.276981 18.849097 19.118697
5.840000 17.975973 18.098309 18.248835 18.388029 18.944014 19.216200
5.880000 18.083358 18.215473 18.362963 18.500630 19.084456 19.306813
5.900000 18.138660 18.282243 18.430810 18.564695 19.146418 19.359225
5.920000 18.199530 18.343369 18.496556 18.626234 19.197275 19.418090
5.960000 18.314422 18.453131 18.612921 18.739899 19.292357 19.508501
6.000000 18.429057 18.558727 18.726984 18.848482 19.401753 19.611447
6.040000 18.539993 18.669925 18.843846 18.960545 19.491796 19.709285
6.080000 18.653529 18.782767 18.958901 19.071239 19.594076 19.811257
6.120000 18.768108 18.893240 19.066818 19.181879 19.698433 19.905849
6.160000 18.874558 19.009382 19.186329 19.292002 19.806587 19.998733
6.200000 18.968240 19.120879 19.305723 19.402043 19.897209 20.100734
6.240000 19.080101 19.229788 19.416528 19.511770 19.988751 20.208876
6.280000 19.169082 19.341734 19.532245 19.618746 20.090296 20.295749
6.320000 19.278910 19.453510 19.645314 19.729965 20.193569 20.392558
6.360000 19.380112 19.560140 19.761126 19.840279 20.286909 20.493278
6.400000 19.486178 19.681027 19.876356 19.949024 20.385283 20.580354
6.440000 19.578407 19.795641 20.001585 20.062543 20.474886 20.686605
6.480000 19.656699 19.917115 20.114557 20.175859 20.575129 20.799506
6.520000 19.746563 20.034311 20.235956 20.290153 20.683343 20.891823
6.560000 19.833634 20.155006 20.360153 20.405370 20.780347 20.984772
6.600000 19.926591 20.274237 20.477534 20.519737 20.873326 21.085913
6.640000 20.006521 20.387912 20.596699 20.631471 20.958716 21.192125
6.680000 20.128961 20.515144 20.712966 20.743299 21.045363 21.294954
6.720000 20.227152 20.634975 20.829981 20.853303 21.144557 21.389867
6.760000 20.307364 20.744621 20.951279 20.965947 21.249589 21.499882
6.810000 20.443056 20.886443 21.089995 21.101499 21.370534 21.618108
6.840000 20.523478 20.976234 21.172940 21.187748 21.453487 21.699552
6.880000 20.612337 21.097436 21.291609 21.300609 21.554095 21.828687
6.920000 20.724742 21.221212 21.404175 21.416734 21.658972 21.928154
6.960000 20.811305 21.338737 21.522400 21.532571 21.776236 22.055575
7.000000 20.927239 21.452167 21.637757 21.647216 21.876559 22.171440
7.040000 21.004463 21.567531 21.755773 21.763130 21.989385 22.303529
7.080000 21.086481 21.680584 21.874877 21.879168 22.099214 22.417120
7.120000 21.211581 21.810903 21.994676 22.002075 22.220675 22.539496
7.160000 21.317129 21.935139 22.113984 22.122125 22.354530 22.668360
7.200000 21.409377 22.057038 22.235951 22.242458 22.480199 22.788675
7.240000 21.527378 22.175975 22.367751 22.371161 22.605042 22.973490
7.280000 21.624677 22.287395 22.499678 22.500220 22.756950 23.100343
7.320000 21.723335 22.407834 22.625439 22.631945 22.907509 23.264000
7.360000 21.789865 22.527874 22.755670 22.762212 23.045033 23.409309
7.400000 21.897635 22.646283 22.884498 22.897815 23.189420 23.559765
7.440000 22.037582 22.764610 23.008431 23.034048 23.359703 23.721638
7.480000 22.183934 22.899328 23.146239 23.170578 23.537231 23.917873
7.520000 22.286212 23.013533 23.288821 23.307974 23.676384 24.043280
7.560000 22.404810 23.132799 23.427638 23.443988 23.831680 24.182069
7.600000 22.512889 23.253393 23.566879 23.582475 24.023565 24.330147
7.640000 22.609843 23.355452 23.702969 23.720695 24.176856 24.458040
7.680000 22.731606 23.481883 23.839623 23.852520 24.315199 24.574202
7.720000 22.825177 23.598547 23.988201 23.983321 24.459850 24.691734
7.760000 22.909561 23.705712 24.127974 24.111542 24.586913 24.805040
7.840000 23.140607 23.918554 24.382901 24.345640 24.821860 25.018103
7.880000 23.251214 24.029339 24.515748 24.472849 24.955441 25.133671
7.900000 23.309892 24.092240 24.580443 24.539934 25.022192 25.193625
7.920000 23.361095 24.147429 24.652411 24.606187 25.088643 25.254313
7.960000 23.469918 24.260344 24.781737 24.729156 25.211736 25.365614
8.040000 23.691268 24.454177 25.079418 24.952560 25.430018 25.578427
8.080000 23.790389 24.552919 25.216146 25.071364 25.543772 25.696703
8.100000 23.850068 24.613930 25.302518 25.135959 25.603558 25.766705
8.120000 23.901662 24.671822 25.366227 25.201867 25.660140 25.825312
8.160000 24.015189 24.794847 25.505561 25.319586 25.765295 25.931367
8.200000 24.117629 24.899352 25.633145 25.436088 25.869839 26.023041
8.240000 24.221860 25.018126 25.746572 25.550612 25.979005 26.141571
8.280000 24.330940 25.119689 25.865831 25.666848 26.087069 26.255658
8.320000 24.444130 25.233611 25.971550 25.777390 26.189621 26.354470
8.360000 24.547534 25.344036 26.084385 25.889241 26.291935 26.475825
8.440000 24.737935 25.567700 26.277665 26.093749 26.485972 26.668036
8.480000 24.873306 25.677125 26.383450 26.205245 26.581722 26.760936
8.520000 24.993661 25.810765 26.489125 26.318918 26.693292 26.869061
8.560000 25.091664 25.933282 26.595305 26.432678 26.796496 27.005271
8.600000 25.182590 26.050119 26.700296 26.544701 26.899902 27.092513
8.640000 25.296108 26.153846 26.804795 26.658265 27.002709 27.257492
8.680000 25.394671 26.274782 26.919192 26.774793 27.108280 27.378574
8.720000 25.479943 26.400971 27.025353 26.887543 27.227573 27.480227
8.760000 25.583815 26.518255 27.129612 26.998446 27.333143 27.619302
8.840000 25.759839 26.731453 27.336255 27.206352 27.535858 27.817996
8.880000 25.889313 26.847929 27.444277 27.320042 27.640474 27.986416
8.920000 26.005372 26.967847 27.555960 27.438575 27.757293 28.121359
8.960000 26.123443 27.071368 27.670415 27.554870 27.877714 28.265976
9.000000 26.205515 27.191370 27.789595 27.672374 27.992952 28.403522
9.040000 26.307094 27.320551 27.899492 27.788577 28.115734 28.542480
9.080000 26.419583 27.436464 28.005072 27.905354 28.244452 28.660618
9.120000 26.590156 27.538597 28.122538 28.024023 28.374502 28.827746
9.160000 26.701949 27.665612 28.234006 28.148450 28.526273 29.006709
9.240000 26.914945 27.879808 28.449550 28.378129 28.823357 29.281408
9.280000 27.017754 27.989630 28.571079 28.501189 28.970072 29.447846
9.320000 27.123843 28.110702 28.688725 28.631281 29.119087 29.606535
9.360000 27.254134 28.213165 28.816486 28.769175 29.280353 29.775909
9.400000 27.388346 28.323851 28.928227 28.905516 29.444800 29.918647
9.440000 27.531862 28.445465 29.058909 29.046379 29.624516 30.082266
9.480000 27.657771 28.560206 29.180179 29.190844 29.802905 30.261849
9.520000 27.775901 28.670217 29.337123 29.335182 29.969595 30.491949
9.560000 27.918635 28.798264 29.489320 29.485720 30.151533 30.690435
9.600000 28.057787 28.933331 29.643859 29.641540 30.321863 30.867844
9.640000 28.202343 29.056858 29.825404 29.806483 30.555057 31.029678
9.680000 28.414792 29.204357 30.019368 29.976039 30.738477 31.215548
9.720000 28.641908 29.363676 30.171728 30.147349 30.934134 31.388087
9.760000 28.801748 29.530312 30.338114 30.315937 31.139604 31.559622
9.800000 29.014454 29.699575 30.513142 30.480481 31.297567 31.752075
9.840000 29.202737 29.841237 30.673962 30.640064 31.437538 31.962365
9.960000 29.635193 30.252117 31.198144 31.112376 31.887051 32.512678
10.000000 29.796246 30.385297 31.381127 31.272691 32.055262 32.677528
10.040000 29.962741 30.542703 31.547106 31.434561 32.202361 32.817605
10.080000 30.097102 30.710963 31.711987 31.594448 32.357123 33.018727
10.120000 30.277731 30.873270 31.896287 31.758031 32.511160 33.207129
10.160000 30.421811 31.030992 32.050373 31.916866 32.671385 33.447033
10.200000 30.558308 31.223675 32.232531 32.079637 32.843827 33.624965
10.240000 30.739846 31.375511 32.370830 32.237187 33.006368 33.759939
10.280000 30.896504 31.535458 32.528651 32.397152 33.174135 33.912545
10.360000 31.244846 31.841982 32.812261 32.713212 33.449740 34.282275
10.400000 31.359021 31.996763 32.979939 32.876786 33.628309 34.449873
10.440000 31.512511 32.156516 33.147725 33.039007 33.792764 34.604508
10.480000 31.772817 32.325896 33.289243 33.201684 33.931418 34.745337
10.520000 31.985189 32.492188 33.444815 33.359431 34.100652 34.903874
10.560000 32.120935 32.654175 33.610753 33.526711 34.287168 35.021363
10.600000 32.266507 32.815848 33.757524 33.694185 34.496861 35.147679
10.640000 32.466933 32.999517 33.925047 33.860683 34.650094 35.320936
10.680000 32.648524 33.180769 34.083818 34.026562 34.809662 35.481670
10.720000 32.798038 33.337796 34.234532 34.197825 34.996817 35.612438
10.760000 32.958619 33.520799 34.392649 34.369509 35.175266 35.774455
10.800000 33.104507 33.686512 34.576499 34.542379 35.316139 35.909655
10.840000 33.262712 33.845954 34.782029 34.714301 35.482686 36.039736
10.880000 33.438623 34.047541 34.973544 34.899143 35.662487 36.172278
10.920000 33.625720 34.246542 35.168185 35.081342 35.846033 36.341884
10.960000 33.768140 34.451601 35.357874 35.263533 36.017705 36.458482
11.000000 33.944648 34.656598 35.571146 35.440301 36.176769 36.586436
11.040000 34.088177 34.869440 35.743856 35.616500 36.334191 36.727231
11.080000 34.274765 35.053128 35.919189 35.803760 36.495410 36.855739
11.120000 34.472327 35.242597 36.117578 35.981963 36.647731 36.999440
11.160000 34.690419 35.429439 36.294260 36.153938 36.793784 37.118626
11.200000 34.898826 35.615625 36.456310 36.325033 36.926288 37.260602
11.240000 35.081722 35.768867 36.625400 36.482949 37.084614 37.400679
11.280000 35.287131 35.944560 36.776373 36.646567 37.214906 37.565032
11.320000 35.443958 36.127319 36.936440 36.803114 37.349446 37.733299
11.360000 35.614033 36.326179 37.088265 36.961356 37.470500 37.891257
11.400000 35.818638 36.495633 37.217019 37.116388 37.637286 38.054662
11.440000 35.988340 36.684041 37.359469 37.268405 37.773216 38.206064
11.480000 36.205603 36.878162 37.503730 37.434691 37.937174 38.393278
11.520000 36.400471 37.063867 37.650179 37.596840 38.086542 38.587975
11.560000 36.609032 37.248866 37.814763 37.755474 38.238923 38.708182
11.600000 36.788250 37.424505 37.963876 37.918565 38.421257 38.860425
11.640000 36.975819 37.599958 38.119928 38.079881 38.563066 39.002313
11.680000 37.182556 37.790532 38.285096 38.253943 38.729776 39.154897
11.720000 37.324226 37.949705 38.453036 38.421378 38.907988 39.290430
11.760000 37.505495 38.124043 38.634696 38.591421 39.064781 39.436668
11.800000 37.682685 38.318615 38.812230 38.763301 39.212102 39.565589
11.840000 37.886889 38.499945 38.994069 38.934998 39.382078 39.722757
11.880000 38.120458 38.686004 39.160553 39.110260 39.542213 39.875034
11.920000 38.255916 38.857428 39.335990 39.288217 39.698437 40.025303
11.960000 38.483083 39.061091 39.509637 39.462500 39.846012 40.174346
12.000000 38.708076 39.239725 39.680211 39.635036 40.008675 40.393416
12.040000 38.914395 39.431414 39.846020 39.805167 40.150381 40.628596
12.080000 39.108488 39.617655 40.013139 39.966737 40.284394 40.776133
12.120000 39.317736 39.800070 40.170277 40.127565 40.417361 40.924457
12.160000 39.456916 39.980268 40.326137 40.286811 40.554123 41.162188
12.200000 39.624066 40.139207 40.479790 40.441127 40.686632 41.336330
12.240000 39.853879 40.332744 40.613466 40.590574 40.813190 41.477734
12.280000 40.035698 40.494651 40.744017 40.735893 40.944379 41.626663
12.320000 40.230422 40.648364 40.869996 40.874831 41.059824 41.768756
12.360000 40.449081 40.801287 40.995411 41.014253 41.182305 41.899056
12.400000 40.652598 40.949603 41.121932 41.155653 41.317620 42.061804
12.440000 40.827201 41.089892 41.246033 41.293247 41.445656 42.189294
12.480000 41.019336 41.215777 41.370927 41.429617 41.579346 42.302444
12.500000 41.104310 41.289341 41.444807 41.501199 41.659297 42.375677
12.520000 41.157869 41.356725 41.514967 41.575033 41.736151 42.445065
12.560000 41.312550 41.495381 41.659381 41.722546 41.914209 42.568132
12.600000 41.481762 41.644478 41.810939 41.882333 42.109992 42.678814
12.640000 41.636222 41.779179 41.976373 42.043366 42.317949 42.813273
12.680000 41.762623 41.916715 42.128491 42.201283 42.509015 42.959764
12.700000 41.838257 41.991808 42.217543 42.284371 42.591232 43.040748
12.720000 41.922584 42.074543 42.303736 42.371834 42.690025 43.105676
12.760000 42.064782 42.239275 42.485262 42.540284 42.860790 43.260107
12.800000 42.217459 42.401745 42.660806 42.707359 43.029493 43.401450
12.840000 42.350011 42.547776 42.844324 42.873749 43.190921 43.581168
12.880000 42.506940 42.698627 43.017072 43.036448 43.339192 43.746340
12.920000 42.653147 42.869361 43.197298 43.201856 43.491956 43.927902
12.960000 42.784470 43.033438 43.362898 43.365091 43.667113 44.080419
13.000000 42.950504 43.203155 43.522182 43.532854 43.861785 44.265868
13.040000 43.063824 43.352328 43.661112 43.690930 44.029125 44.406429
13.080000 43.220745 43.524465 43.817172 43.851729 44.202962 44.561378
13.120000 43.387960 43.684395 43.971795 44.013839 44.390514 44.713234
13.160000 43.613063 43.856353 44.128074 44.174918 44.551117 44.875822
13.200000 43.763343 44.006176 44.285370 44.330846 44.701277 45.052904
13.240000 43.903345 44.153366 44.440404 44.483731 44.866114 45.195746
13.280000 44.043042 44.299572 44.600591 44.636290 45.006794 45.348177
13.320000 44.184023 44.444767 44.749131 44.786879 45.165605 45.488216
13.360000 44.357635 44.591189 44.921802 44.943430 45.305600 45.678328
13.400000 44.488201 44.724271 45.085336 45.096248 45.452367 45.802113
13.440000 44.625769 44.858808 45.234071 45.248397 45.598579 45.935747
13.480000 44.764293 45.003796 45.402540 45.400039 45.760322 46.107450
13.520000 44.897400 45.156126 45.559688 45.551931 45.912161 46.293204
13.560000 45.054204 45.312162 45.736233 45.717802 46.079794 46.439061
13.600000 45.197072 45.505652 45.900414 45.885155 46.236199 46.588530
13.640000 45.314956 45.657364 46.065467 46.052618 46.410415 46.773604
13.680000 45.483790 45.835193 46.223495 46.214869 46.574727 46.919355
13.720000 45.654872 46.018499 46.387401 46.379689 46.725595 47.143728
