depth(m) lower_95(kyr) lower_68(kyr) median(kyr) mean(kyr) upper_68(kyr) upper_95(kyr)
0.050000 3.672119 4.297767 4.956241 4.954967 5.603908 6.209747
0.150000 4.140524 4.753717 5.370356 5.376951 6.012447 6.613617
0.250000 4.531949 5.184638 5.774322 5.791587 6.440464 6.998038
0.350000 4.956520 5.634286 6.201004 6.205613 6.838578 7.395473
0.400000 5.157445 5.854953 6.425452 6.434423 7.071952 7.601297
0.500000 5.650954 6.289322 6.886699 6.870733 7.486260 8.051527
0.600000 6.082347 6.703517 7.337971 7.321281 7.923640 8.495044
0.700000 6.592884 7.186659 7.782172 7.795882 8.424040 8.957863
0.800000 7.103898 7.703355 8.278024 8.292922 8.888616 9.427634
0.900000 7.619303 8.222004 8.848992 8.815642 9.391778 9.832098
1.000000 8.234232 8.799435 9.382002 9.372367 9.928746 10.434769
1.100000 8.923238 9.412860 9.916924 9.957471 10.511766 11.111769
1.200000 9.473837 9.946961 10.461565 10.505323 11.058431 11.761220
1.300000 9.979321 10.497468 11.071110 11.102106 11.723473 12.434877
1.400000 10.471537 11.088628 11.691617 11.730970 12.409108 13.061735
1.500000 11.049452 11.717331 12.412522 12.413715 13.142266 13.704365
1.600000 11.885727 12.536653 13.299223 13.256336 13.950585 14.466261
1.700000 12.700579 13.420859 14.114654 14.056897 14.660599 15.145358
1.800000 13.549556 14.217460 14.797770 14.775095 15.328894 15.890485
1.900000 14.472804 15.076126 15.555047 15.564692 16.081754 16.704140
2.000000 15.128498 15.727112 16.227874 16.266019 16.840287 17.506595
2.100000 15.764333 16.286314 16.890101 16.920443 17.543663 18.323083
2.200000 16.293225 16.777798 17.459799 17.496473 18.187810 19.005189
2.300000 16.682518 17.212748 17.971066 18.002915 18.777465 19.564590
2.400000 17.063908 17.657048 18.435757 18.485305 19.299696 20.108410
2.500000 17.491068 18.099191 18.882661 18.941596 19.806121 20.591938
2.600000 17.904660 18.501963 19.349152 19.390780 20.257390 21.084691
2.700000 18.308747 18.958913 19.802128 19.838012 20.699026 21.629743
2.800000 18.693160 19.427909 20.247754 20.291335 21.185335 22.081202
2.900000 19.125342 19.848191 20.711024 20.746965 21.638894 22.550171
3.000000 19.581973 20.290589 21.201158 21.212800 22.147376 22.969720
3.100000 19.972702 20.727369 21.717267 21.695453 22.636690 23.490321
3.200000 20.418173 21.166657 22.251865 22.193017 23.131272 24.060858
3.300000 20.811170 21.605828 22.726802 22.672947 23.597666 24.607696
3.400000 21.295711 22.043978 23.198303 23.142863 24.115264 25.027768
3.500000 21.777641 22.478824 23.671487 23.597320 24.577511 25.487382
3.600000 22.203373 22.917247 24.155720 24.069617 25.051827 25.972866
3.700000 22.619117 23.354881 24.596210 24.537672 25.561656 26.511405
3.800000 23.053231 23.872113 25.061837 25.012826 26.046898 27.077040
3.900000 23.430809 24.319511 25.546350 25.480951 26.532613 27.595650
4.000000 23.849592 24.817755 26.004250 25.955267 27.003909 28.046375
4.100000 24.295639 25.266001 26.434946 26.418983 27.506917 28.632688
4.200000 24.747000 25.735058 26.908890 26.904915 28.011579 29.194460
4.300000 25.113380 26.288236 27.407712 27.426946 28.610503 29.800663
4.400000 25.809974 26.854039 27.946993 27.999123 29.151034 30.649928
4.500000 26.294297 27.430981 28.461140 28.578293 29.732023 31.356056
4.600000 26.809424 27.985475 29.141225 29.220257 30.508130 32.101121
4.700000 27.455389 28.514478 29.788853 29.852866 31.188482 32.946921
4.800000 28.084702 29.091848 30.416208 30.552165 32.014374 34.157409
4.900000 28.659325 29.691631 31.096246 31.293506 32.830149 35.222979
5.000000 29.246968 30.339062 31.834138 32.044238 33.556029 36.867156
5.100000 29.755416 30.949855 32.582895 32.808629 34.485712 37.776603
5.200000 30.248115 31.692050 33.371192 33.618582 35.370352 38.929862
5.300000 30.858241 32.324437 34.034023 34.374840 36.361840 40.148547
5.400000 31.320487 33.126250 34.726748 35.179805 37.387759 41.197768
5.500000 31.863760 33.661201 35.443885 35.962463 38.567189 42.168465
5.600000 32.446481 34.287128 36.138724 36.713119 39.486596 43.152602
5.700000 32.889016 34.902757 36.860751 37.440861 40.383858 43.950659
5.800000 33.500383 35.495430 37.614790 38.144163 41.338110 44.729333
5.900000 34.037564 36.021136 38.286730 38.832893 42.116285 45.467484
6.000000 34.511451 36.563255 39.097390 39.531029 42.838566 45.911081
6.100000 35.022511 37.080005 39.816879 40.211645 43.621111 46.435400
6.200000 35.448408 37.608983 40.473865 40.906683 44.557276 47.044926
6.300000 36.018167 38.172707 41.178755 41.607183 45.539358 47.596962
6.380000 36.469880 38.618528 41.903364 42.150050 46.096574 48.049691
6.460000 36.890054 39.027888 42.505510 42.680988 46.707476 48.355762
6.500000 37.098708 39.275391 42.872695 42.948830 46.975254 48.578004
6.600000 37.722914 39.928636 43.526467 43.593560 47.531429 49.030502
6.700000 38.444249 40.478111 44.170957 44.220545 48.050536 49.431183
6.800000 39.030159 41.140132 45.101111 44.828589 48.561033 49.778290
6.900000 39.689849 41.725845 45.821820 45.416479 49.035549 50.144836
7.033333 40.645890 42.539347 46.677808 46.147006 49.606334 50.739105
7.166667 41.463604 43.362772 47.469857 46.854492 50.211094 51.135510
7.300000 42.251790 44.058829 48.360612 47.524737 50.744215 51.697054
7.400000 42.873081 44.595656 48.970978 48.000549 51.167465 52.054992
7.500000 43.291901 45.110961 49.426137 48.457938 51.565810 52.457387
7.645455 43.996179 45.802568 50.038315 49.093781 52.085917 53.062396
7.790909 44.575014 46.482659 50.549097 49.698072 52.594419 53.581279
7.936364 45.228371 47.132997 51.212903 50.289230 53.073029 54.104518
8.081818 45.879510 47.758723 51.774160 50.879332 53.557015 54.544300
8.227273 46.464734 48.465142 52.317879 51.477501 54.046201 55.062314
8.372727 47.109841 49.162290 52.804863 52.073696 54.537918 55.590046
8.518182 47.584984 49.870268 53.425270 52.681224 55.093769 56.094314
8.663636 48.287185 50.564175 54.026589 53.288657 55.540901 56.524205
8.809091 48.940196 51.312603 54.574197 53.897584 56.010831 57.103356
8.954545 49.565485 51.965776 55.087321 54.503837 56.558751 57.534254
9.100000 50.358595 52.763632 55.685158 55.112583 57.101452 58.049535
9.200000 50.987577 53.415381 56.128832 55.581263 57.502064 58.480769
9.330000 51.541926 54.208832 56.656399 56.157436 57.952555 58.980477
9.460000 52.124734 54.853933 57.218738 56.741020 58.503053 59.499066
9.590000 52.713803 55.619170 57.750440 57.359118 59.008473 60.016219
9.720000 53.446341 56.333666 58.295425 57.962266 59.542872 60.554963
9.820000 54.173890 56.938006 58.752913 58.461037 59.987808 60.997169
9.920000 55.019104 57.500113 59.210294 58.981468 60.393935 61.402162
10.020000 55.778866 58.124486 59.716038 59.513861 60.881092 61.846195
10.120000 56.687888 58.795863 60.248770 60.081811 61.368582 62.296039
10.220000 57.491642 59.480300 60.802179 60.666515 61.878164 62.841460
10.320000 58.380365 60.200554 61.388561 61.270298 62.443233 63.365294
10.420000 59.387314 60.924229 62.002077 61.935129 63.054919 64.123234
10.520000 60.238064 61.598279 62.652977 62.609638 63.643453 64.762994
10.620000 61.116538 62.215628 63.304363 63.276259 64.307860 65.471649
10.720000 61.810242 62.830413 63.934018 63.930054 64.941186 66.097929
10.820000 62.508464 63.528006 64.583831 64.570629 65.620781 66.720135
10.920000 63.091893 64.122894 65.210426 65.203063 66.304983 67.393934
11.020000 63.618481 64.675041 65.818405 65.816221 66.933253 68.248382
11.120000 64.164834 65.322273 66.450634 66.454273 67.605845 68.937904
11.220000 64.655661 65.971084 67.067328 67.098235 68.246538 69.573844
11.320000 65.321357 66.548787 67.687205 67.695552 68.794469 70.229873
11.420000 65.918525 67.158615 68.331377 68.317528 69.460395 70.817491
11.520000 66.677376 67.973443 68.980066 69.050178 70.227669 71.485987
11.620000 67.644988 68.779538 69.890492 69.959040 71.143874 72.596762
11.720000 68.744149 69.934944 71.213011 71.282900 72.709693 74.250923
11.820000 70.213138 71.320246 72.594555 72.750773 74.297240 75.779743
11.920000 71.761671 72.883180 74.330784 74.427903 76.016902 77.455738
12.020000 72.954206 74.199894 75.658920 75.689741 77.192879 78.568948
12.120000 74.243439 75.417109 76.933586 76.958321 78.500004 79.938077
12.220000 75.253382 76.645791 78.061178 78.119148 79.582342 81.281349
12.320000 76.472825 78.138194 79.443397 79.472190 80.843496 82.563897
12.420000 77.886006 79.311455 80.740803 80.803518 82.324322 83.999996
12.520000 78.973646 80.486319 81.959797 82.030140 83.614988 85.371037
12.620000 80.114236 81.772798 83.264941 83.341948 84.803319 87.373698
12.720000 81.553216 83.120611 84.557233 84.736920 86.345702 89.065334
12.820000 83.566340 84.909817 86.583094 86.781206 88.672527 91.021666
12.920000 85.079230 86.536577 88.523596 88.601145 90.629510 92.581603
13.020000 86.456417 88.257954 90.624179 90.474747 92.601468 94.176245
13.120000 87.828018 90.138838 92.325440 92.207787 94.209496 95.987974
13.220000 89.617863 91.781459 93.721570 93.761358 95.670791 98.379483
13.320000 91.356343 93.317008 95.198576 95.313593 97.277192 99.821189
13.420000 93.655060 95.418813 97.207438 97.365773 99.485633 101.538244
13.520000 95.787527 97.435604 99.244620 99.348152 101.422359 103.213335
13.620000 97.706611 99.481829 101.518303 101.430476 103.322350 105.065309
13.720000 99.926932 102.016675 104.089030 103.999597 105.953591 107.806501
13.820000 102.588831 104.349551 106.172042 106.162691 108.056110 109.770518
13.920000 104.635391 106.164784 107.978723 107.975039 109.811700 111.419662
14.020000 106.188419 108.008524 109.837784 109.749768 111.490716 112.702508
14.120000 108.258330 110.128461 111.842062 111.636460 113.067515 114.149531
14.220000 110.539554 112.463536 113.795549 113.698989 114.958158 116.244275
14.320000 114.351280 115.600510 116.838846 116.842296 118.096413 119.426673
14.420000 116.990357 118.061832 119.317489 119.485248 120.904639 123.073926
14.520000 118.554144 119.594716 121.128000 121.395957 123.359274 125.391979
14.620000 119.638510 121.373923 123.468346 123.428855 125.524019 127.137155
14.720000 121.490355 123.988331 125.900548 125.629481 127.288314 128.357964
14.820000 124.094980 126.293070 127.680494 127.469032 128.674325 129.554571
14.920000 127.892167 128.831886 129.587264 129.566328 130.331580 131.018399
15.020000 129.538164 130.156547 130.816719 130.809229 131.465647 132.103635
15.120000 130.629852 131.201811 131.879495 131.904470 132.568724 133.507242
15.220000 131.502118 132.080364 132.773677 132.884370 133.627366 134.742393
15.320000 132.223025 132.894467 133.649151 133.844674 134.630774 136.725810
15.420000 133.016542 133.685056 134.615682 134.975162 135.939101 139.484503
15.520000 133.974509 134.864890 136.451803 136.994042 138.994576 143.224847
15.620000 134.972299 136.220694 139.251143 139.350506 142.211123 145.656373
15.720000 135.788206 137.544106 142.291205 141.888313 145.413572 147.860767
15.820000 137.359752 139.907124 144.298982 143.858088 147.148775 149.662194
15.920000 139.391273 143.024498 146.117995 145.900377 148.943264 150.936285
16.020000 141.711367 145.167605 147.801968 147.628401 150.378560 152.120602
16.120000 143.389918 146.354098 149.191496 148.947142 151.605316 153.380235
16.220000 144.602960 147.620705 150.362482 150.097838 152.620197 154.367404
16.320000 145.923059 148.624266 151.484805 151.239829 153.672765 155.412646
16.420000 146.984105 149.844115 152.644752 152.355582 154.707452 156.294290
16.520000 148.350700 151.017055 153.799363 153.466877 155.672556 157.218423
16.620000 149.269751 152.173736 154.914795 154.524994 156.729078 158.125675
16.720000 150.384866 153.373457 155.889264 155.540968 157.681956 159.048056
16.820000 151.682083 154.457951 156.772885 156.524015 158.579496 159.922902
16.920000 152.728485 155.495428 157.703206 157.518103 159.530657 161.004706
17.020000 154.016155 156.601961 158.561408 158.474163 160.512022 161.973477
17.120000 154.987977 157.559919 159.549558 159.433209 161.430253 163.140876
17.220000 155.998909 158.450154 160.477928 160.394425 162.383569 164.280809
17.320000 156.907267 159.356039 161.529545 161.394934 163.413088 165.485459
17.420000 158.018115 160.188513 162.470200 162.379391 164.488342 166.711523
17.520000 159.117496 161.309178 163.644851 163.500782 165.692732 167.631576
17.620000 160.143102 162.379418 164.836443 164.665753 166.916011 168.691099
17.720000 161.166786 163.349733 166.041408 165.858363 168.193031 169.919738
17.820000 162.231282 164.466834 167.463459 167.152162 169.441675 171.131006
17.920000 163.195434 165.819895 168.849459 168.523130 170.810306 173.155596
18.020000 164.239808 167.241196 170.534903 170.187840 172.465495 175.759756
18.120000 165.210099 168.679147 172.188200 171.865750 174.619318 178.055410
18.220000 166.348510 170.281549 173.820499 173.491416 176.399818 179.630028
18.320000 167.150960 171.642219 175.613493 175.094683 178.254758 181.686125
18.420000 168.026943 172.681395 177.098478 176.561337 180.028631 183.281468
18.520000 168.968295 173.685944 178.484646 177.934099 181.854420 184.604437
18.620000 170.245180 174.880933 179.580414 179.223911 183.241998 185.916677
18.720000 171.690576 175.796854 180.757657 180.457990 184.656859 187.317837
18.820000 173.137151 177.232320 181.914183 181.659221 185.921406 188.331744
18.920000 174.612566 178.894023 183.090494 182.863462 186.899516 189.181469
19.057500 176.497667 180.817508 184.786600 184.528417 188.270939 190.343776
19.195000 177.963192 182.752205 186.398556 186.097472 189.663452 191.358515
19.332500 179.984609 184.597497 188.188059 187.681224 190.955377 192.431137
19.470000 182.136380 186.363073 189.773415 189.292664 192.190617 193.442698
19.607500 185.133838 188.276211 191.243270 190.877597 193.396433 194.571876
19.745000 187.101009 190.159628 192.781851 192.422624 194.621013 195.721248
19.882500 188.837648 192.046250 194.297651 193.945692 195.821397 196.848679
20.020000 191.760914 193.955831 195.826413 195.551264 197.012085 198.183208
20.120000 193.221378 195.312773 196.934200 196.721465 198.084188 199.034066
20.220000 194.677683 196.538019 197.950208 197.844690 199.079599 200.381285
20.320000 196.136326 197.592864 198.866869 198.840484 200.032521 201.413344
20.420000 197.092084 198.549012 199.797561 199.809084 201.018839 202.873100
20.520000 198.129148 199.629286 200.854207 200.865102 202.045417 203.870895
