depth(m) lower_95(kyr) lower_68(kyr) median(kyr) mean(kyr) upper_68(kyr) upper_95(kyr)
0.075000 1.646123 2.510810 3.394184 3.385690 4.277818 5.106683
0.085000 1.811342 2.680051 3.582930 3.565110 4.457975 5.270335
0.125000 2.583180 3.486726 4.455489 4.487280 5.477961 6.467005
0.225000 4.989772 6.009014 7.348455 7.291694 8.531991 9.625944
0.275000 6.202020 7.426816 8.726081 8.620645 9.735867 10.538729
0.325000 8.461330 9.455642 10.334497 10.302444 11.179839 11.930155
0.375000 9.582099 10.358866 11.138145 11.143820 11.926004 12.663059
0.425000 10.396819 11.163727 11.898585 11.872469 12.587114 13.317738
0.525000 11.573365 12.217933 12.928689 12.955641 13.687307 14.414472
0.618000 12.436295 13.189102 13.915596 13.926529 14.681442 15.415002
0.633000 12.585994 13.387661 14.124723 14.123288 14.855685 15.656538
0.754000 14.000330 14.937490 15.782013 15.833738 16.721612 17.791502
0.875000 15.994168 16.609105 17.471669 17.520762 18.399486 19.412740
0.925000 16.528735 17.279656 18.144672 18.184677 19.062701 19.999598
0.975000 17.081785 17.898397 18.779778 18.802599 19.680334 20.667907
1.025000 17.625519 18.477284 19.393144 19.377178 20.256209 21.232684
1.075000 18.150517 19.073354 19.954809 19.933525 20.830711 21.712423
1.125000 18.696492 19.605363 20.494946 20.484413 21.377660 22.392571
1.175000 19.121930 20.141487 21.038842 21.027961 21.904235 22.936302
1.225000 19.659649 20.678425 21.545740 21.561054 22.461024 23.518767
1.275000 20.145815 21.232452 22.067219 22.097244 23.002656 24.096311
1.325000 20.633777 21.775620 22.603330 22.649407 23.599262 24.805706
1.375000 21.188090 22.253643 23.125894 23.182223 24.156212 25.414790
1.475000 21.982919 23.171317 24.105306 24.145022 25.117696 26.397800
1.575000 22.936362 24.041019 25.007931 25.073843 26.131633 27.374704
1.675000 23.860930 24.901618 25.904351 25.994819 27.062851 28.509557
1.775000 24.801428 25.834295 26.854101 26.935129 28.017035 29.437037
1.825000 25.278004 26.380412 27.371435 27.453945 28.543860 30.045058
1.875000 25.848193 26.850639 27.855997 27.988828 29.080440 30.593076
1.975000 26.812916 27.839603 28.914959 29.038926 30.253221 31.719689
2.075000 27.847492 28.792425 29.976076 30.085798 31.328826 33.055884
2.175000 28.660192 29.796353 31.049888 31.159092 32.434596 34.631895
2.225000 29.194240 30.351067 31.617610 31.734450 33.064505 35.287124
2.275000 29.778547 30.853177 32.201682 32.335811 33.764054 36.004435
2.325000 30.304883 31.415629 32.787371 32.952400 34.525441 36.612864
2.375000 30.750230 31.952926 33.380052 33.555938 35.183837 37.306927
2.425000 31.228229 32.537340 34.059229 34.200055 35.861346 38.104115
2.475000 31.792472 33.170769 34.707128 34.882304 36.547279 38.751694
2.525000 32.394265 33.745700 35.351339 35.542974 37.271868 39.539025
2.575000 32.978880 34.401544 36.071326 36.208192 37.990940 40.629377
2.625000 33.679554 35.009128 36.828510 36.884084 38.677181 41.095116
2.725000 34.705866 36.119634 37.981417 38.078964 39.922171 42.766150
2.825000 35.751748 37.377557 39.174693 39.278323 41.099606 44.141470
2.925000 36.886310 38.544924 40.368653 40.492091 42.172752 45.444117
3.025000 38.142926 39.787743 41.615433 41.719073 43.419303 46.747692
3.075000 38.789040 40.499957 42.300709 42.431347 44.092360 47.253714
3.125000 39.449285 41.381109 43.012098 43.153389 44.848955 47.794677
3.175000 40.050820 42.191997 43.839902 43.936233 45.664964 48.258854
3.225000 40.725327 43.089560 44.701157 44.775716 46.479271 48.930151
3.275000 41.473679 44.023765 45.540098 45.590250 47.231806 49.631961
3.375000 42.935285 45.718360 47.115866 47.161230 48.824649 50.663024
3.425000 43.695712 46.591687 47.977111 47.983115 49.598208 51.353534
3.475000 44.645773 47.401831 48.801541 48.820486 50.509235 52.168297
3.525000 45.754130 48.128165 49.678656 49.646179 51.255133 52.954568
3.575000 46.509271 48.932006 50.510779 50.453014 52.071348 53.747703
3.625000 47.215442 49.626542 51.425524 51.251645 52.875691 54.646982
3.675000 47.909018 50.349663 52.247944 52.055365 53.741770 55.612681
3.725000 48.759926 50.958229 53.019334 52.808766 54.508821 56.365568
3.775000 49.512744 51.619759 53.803222 53.586870 55.399740 56.992632
3.825000 50.129384 52.317703 54.584951 54.363743 56.207870 57.907295
3.855000 50.529093 52.744835 55.039305 54.830895 56.749905 58.384750
3.875000 50.798999 52.991729 55.369329 55.155068 57.087162 58.636647
3.925000 51.547637 53.830783 56.122262 55.930529 57.821036 59.327465
3.975000 52.326318 54.650354 56.928842 56.713256 58.607769 59.941736
4.025000 53.227487 55.482675 57.699320 57.470166 59.260909 60.613935
4.075000 54.106638 56.403597 58.459387 58.219225 59.951566 61.233495
4.175000 55.718752 58.127749 59.847393 59.656862 61.166369 62.386661
4.300000 58.419187 60.066867 61.540252 61.416671 62.759510 63.868725
4.425000 60.685182 62.050876 63.277851 63.176133 64.304217 65.296863
4.475000 61.597764 62.766726 63.954969 63.873985 64.943858 65.841028
4.525000 62.358599 63.466211 64.623134 64.557213 65.619034 66.589968
4.575000 63.018917 64.195138 65.268439 65.225180 66.293545 67.134809
4.625000 63.688857 64.848792 65.926774 65.902023 66.957859 67.853281
4.675000 64.502207 65.544720 66.618090 66.591254 67.622597 68.486272
4.725000 65.278322 66.304319 67.355540 67.329243 68.305670 69.192891
4.775000 66.089381 67.115296 68.158818 68.145840 69.168855 70.080221
4.825000 66.995607 68.109912 69.101089 69.101697 70.112917 71.180300
4.875000 68.073892 69.087586 70.146546 70.191376 71.283994 72.599518
4.925000 68.991597 70.040900 71.258023 71.304953 72.557087 74.079953
4.975000 70.002954 71.169358 72.553650 72.672672 74.190564 76.142434
5.045000 72.475123 73.919174 75.887734 75.775000 77.535947 78.797413
5.075000 73.566087 75.061183 77.007478 76.826424 78.459444 79.580042
5.125000 76.074271 77.577327 78.781241 78.716640 79.857252 80.646853
5.155000 76.921578 78.478039 79.555564 79.495254 80.503544 81.442278
5.175000 77.590175 78.952604 79.957869 79.929530 80.926018 81.780132
5.225000 78.858812 80.015304 80.906993 80.872994 81.782064 82.756537
5.275000 79.863024 80.863672 81.709744 81.719495 82.619753 83.595563
5.325000 80.622505 81.610000 82.470565 82.495420 83.387650 84.378862
5.375000 81.546001 82.419664 83.291915 83.382168 84.280475 85.758437
5.425000 82.562386 83.322301 84.317566 84.577110 85.598018 88.673760
5.500000 84.225523 85.628819 88.274906 88.527723 91.610241 93.666426
5.575000 88.132092 90.880310 92.973356 92.780093 94.757123 96.148514
5.625000 91.101694 93.136826 94.823554 94.682688 96.249224 97.565633
5.675000 93.148768 95.011591 96.372689 96.309049 97.671686 98.944026
5.725000 95.034920 96.343522 97.560029 97.604221 98.814545 100.247107
5.775000 96.058924 97.385120 98.600558 98.728031 100.090438 101.861219
5.825000 97.177647 98.318863 99.678926 99.843670 101.264327 103.665421
5.875000 98.193611 99.272273 100.733871 100.997985 102.536186 105.837823
5.925000 99.143624 100.432212 101.949090 102.449017 104.096277 110.917575
5.975000 100.167648 101.662238 103.357656 104.135659 106.322712 113.351945
6.005000 101.036256 102.523784 104.373666 105.168042 107.418652 114.083678
6.075000 103.114755 105.238508 113.039761 111.244134 114.779122 115.904794
6.105000 104.331942 106.609741 114.208270 112.427084 115.805466 116.890780
6.185000 115.480853 116.777443 117.843909 117.865928 118.930490 120.382076
6.225000 117.129226 118.289029 119.316416 119.409164 120.514678 122.227338
6.325000 119.941562 121.385115 122.876678 122.906068 124.454029 126.126092
6.400000 122.093613 124.023925 125.686952 125.576940 127.167829 128.636314
6.475000 125.118059 127.123220 128.297862 128.233721 129.444887 130.478507
6.575000 129.828709 130.998432 132.158839 132.216916 133.399244 134.968255
6.625000 132.629063 133.757463 135.121373 135.170501 136.632962 138.006925
6.675000 134.242359 135.352297 136.919324 136.893260 138.274223 139.722660
6.725000 135.366783 136.780735 138.292251 138.238968 139.605409 141.057546
6.775000 136.448061 138.010679 139.464714 139.434442 140.774199 142.191487
6.825000 137.734358 139.228248 140.597536 140.567980 141.854569 143.206441
6.875000 139.004417 140.496271 141.706410 141.731760 142.956416 144.431728
6.925000 140.190362 141.684757 142.811168 142.893103 144.138899 145.779582
6.975000 141.682715 142.784038 143.944816 144.040661 145.383891 147.010713
7.025000 142.728072 143.786745 145.017101 145.145349 146.554653 148.334153
7.075000 143.580536 144.790719 146.057655 146.230985 147.731973 149.475365
7.125000 144.687509 145.864957 147.140315 147.324229 148.822850 150.797490
7.175000 145.652021 146.845046 148.180299 148.400553 149.967913 151.981180
7.225000 146.656664 147.825866 149.245462 149.443382 151.085241 152.929719
7.300000 147.968997 149.209109 150.713122 150.885825 152.599450 154.717227
7.375000 149.357157 150.561828 152.132917 152.352548 154.166756 156.519915
7.475000 151.242933 152.566144 154.189632 154.473735 156.293510 159.566027
