depth(m) lower_95(kyr) lower_68(kyr) median(kyr) mean(kyr) upper_68(kyr) upper_95(kyr)
201.840000 1514.244046 1521.034629 1523.496176 1522.922338 1525.245053 1526.730470
201.940000 1514.829974 1521.526823 1523.974475 1523.395922 1525.592291 1527.179679
202.040000 1515.555304 1522.126229 1524.375149 1523.853979 1526.111052 1527.465794
202.140000 1516.184366 1522.765305 1524.793167 1524.308195 1526.462185 1527.900271
202.240000 1516.849215 1523.209158 1525.188741 1524.742939 1526.828955 1528.173196
202.340000 1517.816114 1523.653455 1525.606647 1525.164028 1527.226862 1528.486587
202.440000 1518.556042 1524.123998 1526.001358 1525.587596 1527.535031 1528.843961
202.540000 1519.300574 1524.598543 1526.359963 1526.009189 1527.875280 1529.162762
202.640000 1520.463087 1524.988587 1526.727247 1526.410750 1528.289747 1529.507580
202.740000 1521.326909 1525.509091 1527.052696 1526.828637 1528.652243 1529.851755
202.840000 1522.446912 1525.960850 1527.425823 1527.251920 1528.987900 1530.111225
202.940000 1523.466429 1526.436387 1527.795241 1527.665500 1529.353119 1530.421648
203.040000 1524.517693 1526.831684 1528.139846 1528.089020 1529.745973 1530.789525
203.140000 1525.158791 1527.295653 1528.516639 1528.516076 1530.098894 1531.135654
203.240000 1525.857223 1527.717068 1528.901624 1528.930535 1530.451859 1531.439919
203.340000 1526.650133 1528.196282 1529.324798 1529.376846 1530.826235 1531.792722
203.440000 1527.319677 1528.637295 1529.738743 1529.806952 1531.158973 1532.142865
203.540000 1527.838225 1529.097655 1530.166535 1530.231248 1531.541585 1532.479813
203.640000 1528.381504 1529.580938 1530.623067 1530.675858 1531.910886 1532.881516
203.740000 1529.011971 1530.073175 1531.066633 1531.124956 1532.289377 1533.228388
203.840000 1529.577779 1530.573326 1531.548195 1531.584631 1532.704362 1533.648337
203.940000 1530.129521 1531.017337 1532.035277 1532.056181 1533.104305 1533.993668
204.040000 1530.610807 1531.545167 1532.600782 1532.575203 1533.595667 1534.505047
204.140000 1531.120079 1532.087350 1533.116073 1533.111889 1534.111863 1535.219475
204.240000 1531.637960 1532.628684 1533.662282 1533.644960 1534.598554 1535.652535
204.340000 1532.125849 1533.219244 1534.159233 1534.151600 1535.080086 1536.127819
204.440000 1532.715801 1533.736075 1534.652711 1534.663707 1535.621334 1536.670487
204.540000 1533.232624 1534.236566 1535.156572 1535.163851 1536.097379 1537.123550
204.650000 1533.644265 1534.685134 1535.680637 1535.658477 1536.634417 1537.700925
204.760000 1534.183088 1535.131669 1536.142427 1536.148257 1537.164155 1538.172559
204.840000 1534.456884 1535.450887 1536.465146 1536.478885 1537.487209 1538.558893
204.950000 1535.002014 1535.950359 1536.960224 1536.943682 1537.958512 1538.974867
205.060000 1535.459239 1536.380840 1537.445157 1537.423460 1538.441125 1539.387084
205.160000 1535.873147 1536.801841 1537.929634 1537.878037 1538.882044 1539.789785
205.260000 1536.327632 1537.315238 1538.365223 1538.318575 1539.297824 1540.182994
205.360000 1536.714271 1537.735330 1538.822648 1538.772738 1539.750008 1540.585541
205.460000 1537.107127 1538.206820 1539.305223 1539.250653 1540.249230 1541.166994
205.560000 1537.657962 1538.708197 1539.781949 1539.733158 1540.777671 1541.684297
205.660000 1538.086097 1539.259069 1540.257603 1540.231465 1541.198377 1542.221607
205.760000 1538.491727 1539.784772 1540.768981 1540.777739 1541.780893 1542.841291
205.860000 1539.021852 1540.263834 1541.288156 1541.300101 1542.331476 1543.464663
205.960000 1539.580208 1540.724760 1541.789720 1541.812415 1542.862562 1544.053745
206.080000 1540.079343 1541.248494 1542.370751 1542.379710 1543.481495 1544.900751
206.200000 1540.605547 1541.773560 1542.877166 1542.934247 1544.087216 1545.605258
206.320000 1541.176308 1542.290367 1543.398648 1543.489984 1544.750423 1546.511037
206.440000 1541.625430 1542.723435 1543.918796 1544.055601 1545.379831 1547.279283
206.560000 1542.128622 1543.238633 1544.483704 1544.674609 1546.049724 1548.397262
206.680000 1542.594428 1543.793947 1545.137771 1545.367449 1546.955742 1549.245922
206.800000 1543.293471 1544.397512 1545.823151 1546.093988 1547.902456 1550.039189
206.920000 1543.834769 1544.972985 1546.640240 1546.799840 1548.614750 1550.772884
207.040000 1544.257453 1545.530804 1547.397965 1547.495064 1549.460533 1551.448627
207.160000 1544.767875 1546.080626 1548.108376 1548.214782 1550.336234 1552.354244
207.260000 1545.224336 1546.574505 1548.642795 1548.768489 1550.948291 1552.987817
207.360000 1545.548685 1546.972481 1549.202615 1549.320199 1551.637120 1553.617676
207.460000 1545.949714 1547.421467 1549.785966 1549.870215 1552.294423 1554.183270
207.560000 1546.337396 1547.858422 1550.468552 1550.450921 1552.864340 1554.942411
207.660000 1546.942373 1548.435941 1551.016412 1551.031604 1553.481801 1555.392444
207.760000 1547.355971 1549.068950 1551.687448 1551.640046 1554.107139 1555.942941
207.860000 1547.765243 1549.685518 1552.354773 1552.250702 1554.644396 1556.422889
207.960000 1548.174770 1550.342944 1553.034064 1552.884851 1555.303645 1557.172525
208.060000 1548.738067 1551.071222 1553.694050 1553.534487 1555.911927 1557.867421
208.180000 1549.216954 1551.890174 1554.696737 1554.431382 1556.744833 1558.884274
208.300000 1549.810406 1552.758331 1555.686983 1555.418118 1557.774315 1559.933869
208.420000 1550.661054 1553.738546 1556.688680 1556.414648 1558.728154 1561.154418
208.540000 1551.329932 1554.779041 1557.725748 1557.367434 1559.830767 1561.923681
208.660000 1551.812597 1556.068362 1558.780518 1558.402852 1560.839586 1562.730666
208.780000 1552.387830 1557.050760 1559.680627 1559.355129 1561.766717 1563.703023
208.900000 1552.881174 1558.156659 1560.625470 1560.274336 1562.678626 1564.376733
209.020000 1553.504933 1559.152439 1561.638520 1561.184227 1563.529921 1565.093323
209.140000 1553.982181 1560.244474 1562.597646 1562.059152 1564.332419 1565.708278
209.260000 1554.514565 1561.133593 1563.515183 1562.912682 1565.084479 1566.268614
209.360000 1554.841684 1561.879939 1564.227777 1563.609883 1565.709316 1567.019836
209.460000 1555.277254 1562.809367 1564.902314 1564.290103 1566.319024 1567.630186
209.560000 1555.726146 1563.510807 1565.570082 1564.916930 1566.873780 1568.232281
209.660000 1556.047089 1564.071260 1566.200402 1565.517317 1567.432091 1568.778203
209.760000 1556.606568 1564.860350 1566.728189 1566.073573 1567.963858 1569.305972
209.860000 1557.289826 1565.346597 1567.197496 1566.574484 1568.376366 1569.829793
209.996364 1558.931103 1565.866128 1567.731877 1567.164581 1568.948828 1570.597056
210.132727 1559.592531 1566.494494 1568.224878 1567.722190 1569.489395 1571.168047
210.269091 1560.589455 1567.025672 1568.685264 1568.253902 1570.002429 1571.919549
210.405455 1561.631884 1567.534812 1569.116714 1568.779433 1570.410931 1572.343511
210.541818 1562.684330 1567.988350 1569.543060 1569.291924 1570.893026 1572.935425
210.678182 1564.053700 1568.460755 1569.956987 1569.787011 1571.281800 1573.416108
210.814545 1565.099329 1568.928227 1570.399137 1570.279336 1571.689494 1574.147010
210.950909 1566.088748 1569.390662 1570.859137 1570.767095 1572.162937 1574.947765
211.087273 1567.244129 1569.839674 1571.282884 1571.262175 1572.609749 1575.388641
211.223636 1568.351850 1570.337960 1571.694857 1571.753216 1573.047155 1576.059748
211.360000 1569.360070 1570.832644 1572.167331 1572.248029 1573.426926 1576.766793
211.460000 1569.935634 1571.234907 1572.486089 1572.616895 1573.805913 1577.142711
211.560000 1570.310856 1571.595706 1572.840183 1572.983882 1574.166664 1577.577079
211.660000 1570.690371 1571.998048 1573.159775 1573.348428 1574.509084 1577.832844
211.794286 1571.132705 1572.444881 1573.624223 1573.809807 1575.008275 1578.511360
211.928571 1571.642204 1572.853828 1574.039107 1574.261980 1575.493649 1579.255301
212.062857 1572.019333 1573.286677 1574.461054 1574.719244 1575.966070 1579.814621
212.197143 1572.465005 1573.670943 1574.859930 1575.163822 1576.426126 1580.269067
212.331429 1572.783579 1574.117650 1575.284536 1575.602294 1576.905371 1580.756615
212.465714 1573.212160 1574.512478 1575.705894 1576.056337 1577.381012 1581.255517
212.600000 1573.579715 1574.947497 1576.156938 1576.522403 1578.042334 1581.941156
212.740000 1574.000462 1575.372537 1576.635057 1577.056733 1578.755577 1582.750281
212.880000 1574.477733 1575.800892 1577.087346 1577.613296 1579.467218 1583.619542
213.020000 1574.789773 1576.224823 1577.586545 1578.163393 1580.207317 1584.317505
213.160000 1575.057570 1576.656462 1578.063716 1578.724174 1581.155690 1585.202028
213.300000 1575.524591 1577.091258 1578.518334 1579.292360 1582.106444 1585.891738
213.440000 1575.910280 1577.511481 1578.980083 1579.852487 1583.088622 1586.643398
213.580000 1576.251452 1577.950690 1579.408214 1580.408016 1583.811421 1587.301622
213.720000 1576.677935 1578.306009 1579.857013 1580.948028 1584.657358 1587.897549
213.860000 1577.080422 1578.734500 1580.359477 1581.531410 1585.710143 1588.832141
214.000000 1577.443376 1579.134119 1580.837454 1582.095272 1586.523771 1589.591471
214.140000 1577.913680 1579.570576 1581.336820 1582.683700 1587.245494 1590.289842
214.280000 1578.377544 1580.022415 1581.874385 1583.292163 1588.145256 1591.099097
214.420000 1578.785276 1580.485636 1582.451488 1583.914308 1589.096769 1591.767356
214.560000 1579.263224 1581.021390 1583.072908 1584.561973 1590.004295 1592.405869
214.700000 1579.740235 1581.518889 1583.700083 1585.243817 1590.967116 1593.105170
214.835000 1580.275445 1582.050993 1584.506849 1585.924015 1591.683039 1593.833886
214.970000 1580.743697 1582.715308 1585.355444 1586.641883 1592.262533 1594.391758
215.098571 1581.180334 1583.312774 1586.287659 1587.395320 1592.848215 1594.952511
215.227143 1581.741553 1583.921351 1587.463607 1588.184255 1593.434951 1595.485521
215.355714 1582.286365 1584.744810 1588.627807 1589.066565 1593.990695 1596.079095
215.484286 1582.878360 1585.455614 1589.779223 1589.929719 1594.584929 1596.751510
215.612857 1583.429622 1586.148775 1591.181163 1590.839988 1595.160505 1597.289771
215.741429 1584.084707 1586.979121 1592.366390 1591.776555 1595.839401 1597.905775
215.870000 1584.600733 1587.826431 1593.435832 1592.643733 1596.485786 1598.412271
215.970000 1585.364838 1588.512792 1594.249757 1593.363042 1597.054495 1598.904121
216.070000 1586.180945 1589.277973 1595.009959 1594.081015 1597.682413 1599.339383
216.170000 1586.926306 1590.022516 1595.936704 1594.802818 1598.298855 1600.012537
216.298571 1588.102561 1591.271776 1596.648995 1595.691857 1598.990993 1600.664271
216.427143 1589.474850 1592.680416 1597.426501 1596.589135 1599.739398 1601.162969
216.555714 1590.503644 1593.925087 1598.227848 1597.468444 1600.444198 1601.640859
216.684286 1592.023982 1595.374035 1598.980530 1598.411559 1601.115849 1602.367491
216.812857 1593.599858 1596.769684 1599.772375 1599.338661 1601.760303 1602.971432
216.941429 1595.067615 1598.006136 1600.632044 1600.210496 1602.311768 1603.533373
217.070000 1596.397008 1599.174617 1601.347833 1601.061497 1602.928250 1604.010172
217.170000 1597.218367 1599.873619 1601.920674 1601.622316 1603.405728 1604.524381
217.270000 1598.053463 1600.485304 1602.412022 1602.165950 1603.837485 1604.920860
217.370000 1598.956070 1601.172047 1602.934909 1602.702841 1604.269687 1605.302050
217.470000 1599.706609 1601.812787 1603.399741 1603.248711 1604.741952 1605.736709
217.570000 1600.542720 1602.345387 1603.959490 1603.785556 1605.210382 1606.100777
217.670000 1601.115046 1602.919162 1604.463592 1604.295846 1605.668765 1606.560347
217.770000 1601.723900 1603.544368 1604.973390 1604.845944 1606.159074 1607.097903
217.870000 1602.247601 1604.169834 1605.508003 1605.409708 1606.653807 1607.590795
217.970000 1603.128782 1604.790870 1606.028048 1605.974954 1607.186614 1608.143637
218.070000 1603.872090 1605.373437 1606.659257 1606.578941 1607.755829 1608.883378
218.170000 1604.467737 1605.922722 1607.211283 1607.176072 1608.402439 1609.484973
218.270000 1605.297967 1606.490967 1607.781497 1607.764546 1608.963780 1610.364709
218.390000 1605.918727 1607.063610 1608.440717 1608.415014 1609.689739 1611.383205
218.510000 1606.436036 1607.639303 1608.979153 1609.060731 1610.431924 1612.114689
218.630000 1606.953810 1608.205008 1609.516587 1609.707453 1611.154123 1613.287566
218.750000 1607.629534 1608.807331 1610.087823 1610.364374 1611.911620 1614.321994
218.870000 1608.192255 1609.349122 1610.720997 1610.994195 1612.656045 1615.175265
218.970000 1608.636471 1609.783975 1611.231176 1611.516548 1613.398330 1615.910695
219.070000 1608.968912 1610.259040 1611.730551 1612.054620 1613.994346 1616.691347
219.170000 1609.412401 1610.718823 1612.216601 1612.569958 1614.539898 1617.275561
219.270000 1609.834215 1611.133845 1612.677230 1613.070529 1615.189483 1618.082479
219.370000 1610.168071 1611.580110 1613.189614 1613.575521 1615.753091 1618.819238
219.470000 1610.591561 1612.019698 1613.707027 1614.091311 1616.359263 1619.448339
219.570000 1610.938323 1612.464101 1614.203904 1614.623298 1617.041944 1620.114029
219.670000 1611.317546 1612.832981 1614.774611 1615.165867 1617.640488 1620.761480
219.770000 1611.671415 1613.194467 1615.288317 1615.690956 1618.364820 1621.452627
219.890000 1612.021168 1613.627717 1615.826045 1616.298751 1619.177063 1622.452339
220.010000 1612.526558 1614.156507 1616.430750 1616.887047 1619.864494 1623.155529
220.130000 1612.943789 1614.594978 1617.005616 1617.510235 1620.613547 1624.406138
220.250000 1613.399708 1615.051150 1617.503861 1618.094895 1621.333166 1625.420664
220.370000 1613.901813 1615.516750 1618.012203 1618.664988 1622.195200 1626.444519
220.470000 1614.300283 1615.960225 1618.371787 1619.142444 1622.679797 1626.849957
220.570000 1614.707752 1616.377928 1618.814824 1619.594509 1623.292410 1627.528189
220.670000 1615.171968 1616.802261 1619.256630 1620.044064 1623.776460 1628.348828
220.798571 1615.696495 1617.413945 1619.834069 1620.632121 1624.468969 1629.023945
220.927143 1616.215168 1617.925147 1620.345791 1621.222766 1624.887194 1629.949183
221.055714 1616.689767 1618.434409 1620.857287 1621.797857 1625.415663 1630.801798
221.184286 1617.318938 1619.111212 1621.441002 1622.386949 1625.992334 1631.667679
221.312857 1617.971729 1619.675641 1621.994016 1622.953407 1626.482466 1632.411046
221.441429 1618.691775 1620.186690 1622.519939 1623.510256 1627.093248 1633.081679
221.570000 1619.210025 1620.829982 1623.087739 1624.088804 1627.612460 1633.727729
221.695714 1619.804552 1621.378925 1623.744199 1624.668696 1628.113042 1634.351265
221.821429 1620.253397 1622.007668 1624.301233 1625.243316 1628.793569 1634.941307
221.947143 1620.780555 1622.558025 1624.845274 1625.798678 1629.207411 1635.596466
222.072857 1621.280032 1623.139208 1625.386766 1626.398349 1629.714960 1636.313580
222.198571 1621.783956 1623.687134 1626.037271 1626.984181 1630.289678 1636.928792
222.324286 1622.413528 1624.273310 1626.694224 1627.579052 1630.796273 1637.531334
222.450000 1623.122741 1624.935565 1627.310802 1628.203086 1631.316444 1638.413830
222.550000 1623.640745 1625.516274 1627.837323 1628.733623 1631.859970 1638.883632
222.650000 1624.161343 1626.042914 1628.326975 1629.268264 1632.353438 1639.476817
222.750000 1624.812634 1626.626683 1628.925513 1629.832055 1632.881709 1639.921330
222.850000 1625.438653 1627.282370 1629.481446 1630.394144 1633.307575 1640.509276
222.950000 1626.126993 1627.914620 1630.100506 1630.979600 1633.765808 1640.940394
223.050000 1626.736660 1628.502022 1630.720373 1631.595358 1634.289936 1641.413992
223.170000 1627.323181 1629.307844 1631.671022 1632.412091 1635.071593 1641.896235
223.290000 1627.944467 1630.191146 1632.613235 1633.223728 1635.852444 1642.523268
223.410000 1628.715608 1631.086096 1633.508186 1634.023931 1636.723382 1642.944962
223.530000 1629.429265 1631.885370 1634.503567 1634.892989 1637.605868 1643.424208
223.650000 1630.362552 1632.917111 1635.284013 1635.745408 1638.478106 1643.854642
223.794545 1631.418623 1633.752679 1636.297194 1636.794590 1639.743545 1644.772351
223.939091 1632.194360 1634.939878 1637.520994 1637.872704 1641.025625 1645.582185
224.083636 1633.136571 1635.996288 1638.650100 1638.957801 1642.214754 1646.447114
224.228182 1634.322843 1636.947471 1639.700864 1640.021810 1643.336454 1647.533536
224.372727 1635.154786 1637.951347 1640.715256 1641.062409 1644.322279 1648.411136
224.517273 1636.148961 1638.864195 1641.764273 1642.092406 1645.204116 1649.746277
224.661818 1637.186029 1639.805040 1642.816462 1643.151942 1646.579417 1651.031879
224.806364 1638.437913 1640.802105 1643.762989 1644.227005 1647.728963 1651.940968
224.950909 1639.450259 1641.868296 1644.873712 1645.291394 1648.788746 1653.240474
225.095455 1640.630365 1642.944082 1645.931619 1646.352607 1649.847961 1654.406008
225.240000 1641.673645 1643.856871 1646.955773 1647.404856 1650.930253 1655.589165
225.340000 1642.128192 1644.411941 1647.734451 1648.082527 1651.574638 1656.505614
225.440000 1642.816018 1645.061861 1648.431904 1648.758716 1652.297740 1657.244358
225.540000 1643.296880 1645.678437 1649.095421 1649.419076 1653.007314 1657.862816
225.660000 1644.000541 1646.402667 1650.026254 1650.256686 1654.076648 1658.429082
225.780000 1644.483795 1647.140258 1650.891958 1651.089692 1655.070016 1659.162020
225.900000 1644.998267 1647.897970 1651.743544 1651.907730 1655.989144 1659.622862
226.020000 1645.722884 1648.563009 1652.629673 1652.717828 1656.784118 1660.215653
226.140000 1646.152382 1649.280840 1653.537576 1653.515099 1657.594043 1660.846286
226.260000 1646.597385 1649.934021 1654.471353 1654.266276 1658.352421 1661.396925
226.380000 1647.346633 1650.569545 1655.208866 1655.014280 1659.236141 1661.969495
226.500000 1647.717548 1651.266056 1655.982231 1655.776542 1660.133524 1662.636129
226.620000 1648.461341 1652.029114 1656.744710 1656.504652 1660.825080 1663.364939
226.740000 1649.294268 1652.731476 1657.464867 1657.199104 1661.470463 1663.870436
226.878462 1650.057143 1653.473838 1658.324943 1657.939386 1662.137247 1664.497908
227.016923 1650.894717 1654.396344 1659.012658 1658.673505 1662.817182 1665.160446
227.155385 1651.787822 1655.185825 1659.676836 1659.382999 1663.378205 1665.734567
227.293846 1652.801438 1655.928442 1660.301411 1660.084174 1663.940144 1666.328258
227.432308 1653.685430 1656.889845 1660.993300 1660.766589 1664.433861 1667.156694
227.570769 1654.562971 1657.758176 1661.670905 1661.482767 1665.067336 1667.888633
227.709231 1655.737245 1658.578129 1662.339612 1662.221563 1665.739793 1668.490667
227.847692 1656.575859 1659.492820 1663.012230 1662.941160 1666.342935 1669.057382
227.986154 1657.453483 1660.387642 1663.651862 1663.632805 1666.868479 1669.851758
228.124615 1658.215626 1661.286417 1664.318868 1664.342335 1667.495088 1670.728430
228.263077 1659.018054 1662.090137 1664.964278 1665.044628 1668.130872 1671.191950
228.401538 1659.880903 1662.771545 1665.696717 1665.745647 1668.656999 1671.774710
228.540000 1660.978354 1663.539764 1666.325696 1666.436207 1669.291202 1672.344039
228.640000 1661.545682 1664.121972 1666.837890 1666.952905 1669.728374 1672.840119
228.740000 1662.215166 1664.683669 1667.304810 1667.502065 1670.195772 1673.429011
228.840000 1662.786050 1665.287993 1667.923988 1668.053478 1670.799235 1674.001165
228.940000 1663.807306 1665.896415 1668.452824 1668.621942 1671.410752 1674.436510
229.040000 1664.296684 1666.408208 1669.071327 1669.187816 1671.888249 1675.007351
229.140000 1664.812143 1667.047939 1669.645981 1669.748639 1672.590554 1675.578204
229.240000 1665.488297 1667.627420 1670.158958 1670.309906 1673.164602 1676.011485
229.340000 1665.964057 1668.284615 1670.741600 1670.905471 1673.808579 1676.453875
229.440000 1666.718821 1668.839764 1671.265640 1671.477176 1674.298517 1677.001206
229.560000 1667.302178 1669.539243 1671.879951 1672.151671 1674.910634 1677.549272
229.680000 1667.956237 1670.101784 1672.571477 1672.822879 1675.695555 1678.115378
