depth(m) lower_95(kyr) lower_68(kyr) median(kyr) mean(kyr) upper_68(kyr) upper_95(kyr)
49.520000 1492.181394 1497.870871 1501.829304 1501.226195 1504.458323 1506.908840
49.620000 1496.917359 1501.694752 1504.763961 1504.468759 1507.165894 1509.762461
49.720000 1502.552001 1505.646584 1507.859750 1507.851755 1509.994513 1513.245852
49.820000 1507.394524 1509.394726 1511.673783 1511.943190 1514.534894 1518.506716
49.920000 1510.320523 1512.310587 1515.223113 1515.622339 1518.735909 1523.240496
50.020000 1512.879109 1515.223297 1518.781857 1519.046857 1523.139623 1526.878379
50.120000 1515.815803 1519.247969 1522.917545 1522.851832 1526.471211 1529.684053
50.220000 1519.712286 1524.268934 1527.769180 1527.495310 1530.826789 1532.912086
50.320000 1530.917644 1533.136177 1534.800404 1534.618047 1536.057128 1537.447419
50.420000 1534.414483 1536.152510 1537.511992 1537.409287 1538.665902 1539.857845
50.520000 1537.009286 1538.573238 1539.743591 1539.673010 1540.791910 1541.916354
50.620000 1539.238785 1540.838173 1542.020008 1541.967066 1543.055037 1544.742630
50.720000 1541.717083 1542.864365 1544.022317 1544.132359 1545.289594 1547.630083
50.820000 1543.810632 1545.021479 1546.434936 1546.668801 1548.352370 1551.312357
50.920000 1545.989138 1547.312575 1549.148095 1549.384339 1551.675991 1554.408217
51.020000 1548.181785 1550.125804 1552.621348 1552.612613 1555.030613 1557.311660
51.120000 1551.074404 1553.716498 1556.756352 1556.667775 1559.510285 1562.084462
51.220000 1554.826731 1558.050095 1561.172439 1560.819245 1563.344300 1565.053069
51.320000 1559.067904 1562.196932 1564.819442 1564.382283 1566.442734 1567.752113
51.420000 1563.312629 1566.342702 1568.074448 1567.790512 1569.322152 1570.464796
51.520000 1567.073376 1569.129353 1570.485948 1570.383859 1571.749076 1572.993131
51.620000 1570.626638 1572.073419 1573.241952 1573.254418 1574.509428 1575.687183
51.720000 1573.047341 1574.561942 1575.646878 1575.718668 1577.016944 1578.243023
51.820000 1575.578817 1576.894899 1578.114317 1578.173701 1579.534193 1580.938084
51.920000 1577.844748 1579.253893 1580.583177 1580.685627 1582.140453 1584.006368
52.020000 1580.218605 1581.715518 1583.174572 1583.401909 1584.938461 1588.017789
52.120000 1582.999656 1584.705392 1586.632176 1586.928528 1589.521279 1592.176511
52.210000 1584.943676 1587.541340 1590.619023 1590.332323 1593.004514 1594.639743
52.220000 1585.223041 1587.968824 1591.047615 1590.700060 1593.356368 1594.870665
52.320000 1588.971627 1591.775442 1594.320861 1594.028238 1596.137061 1597.652502
52.410000 1591.777067 1595.480320 1597.441352 1597.140691 1598.912595 1600.399262
52.510000 1596.585260 1598.876042 1600.586548 1600.418504 1601.962852 1603.428739
52.610000 1599.807167 1601.612576 1603.169076 1603.056925 1604.422826 1605.826927
52.710000 1602.304792 1604.351683 1605.683379 1605.668780 1606.900689 1608.405851
52.810000 1605.751475 1607.076771 1608.263033 1608.540924 1609.685516 1614.263496
52.910000 1608.692089 1609.820790 1611.277202 1611.791648 1613.391701 1619.037093
53.010000 1610.788715 1612.241076 1614.400180 1615.359765 1618.528822 1625.447587
53.110000 1613.043011 1614.961439 1618.375994 1619.497656 1625.011446 1629.686372
53.210000 1615.459420 1618.392051 1624.524403 1624.316360 1629.815532 1632.699770
53.310000 1619.442039 1624.095528 1630.452228 1629.351520 1633.888231 1635.802703
53.410000 1623.646897 1629.628477 1634.018781 1633.166201 1636.603486 1638.504997
53.510000 1628.474352 1634.028898 1636.826304 1636.415871 1639.031196 1640.880078
53.610000 1634.033470 1637.496779 1639.795368 1639.522118 1641.684071 1643.642998
53.710000 1638.648239 1640.872960 1642.791367 1642.823394 1644.858567 1647.227181
53.810000 1641.642176 1643.570574 1645.597159 1645.715067 1647.842505 1650.936038
53.910000 1643.910835 1645.857010 1648.029351 1648.224547 1650.704745 1653.833255
54.010000 1645.985171 1647.996706 1650.288509 1650.627382 1653.368935 1657.126737
54.110000 1648.151696 1650.290058 1652.828991 1653.048579 1655.913333 1659.097927
54.210000 1650.756005 1652.790291 1655.629219 1655.640257 1658.367530 1661.287014
54.310000 1653.143176 1655.648438 1658.541892 1658.453812 1661.089059 1664.137611
54.410000 1656.129348 1658.994125 1661.779751 1661.703573 1664.430040 1667.208100
54.510000 1659.357527 1662.214247 1665.095834 1665.132955 1668.050883 1671.059098
54.610000 1663.524599 1666.028602 1669.211411 1669.468242 1672.952593 1676.396320
54.710000 1665.985811 1669.467861 1673.187272 1673.172714 1677.098935 1680.341009
54.810000 1668.448478 1672.267174 1676.392389 1676.238165 1680.205180 1684.123198
54.910000 1671.516662 1675.028384 1679.100178 1679.196604 1683.472550 1686.856392
55.010000 1674.697082 1678.024318 1682.137865 1682.157730 1686.365334 1689.786540
55.110000 1677.359332 1681.026578 1685.079074 1685.113906 1689.237012 1692.598290
55.210000 1680.818635 1684.376198 1688.378669 1688.289279 1692.149909 1695.238244
55.310000 1684.328411 1688.193741 1692.254842 1691.977991 1695.618446 1698.397123
55.410000 1689.642721 1693.335514 1696.653081 1696.460352 1699.507568 1702.531085
55.510000 1695.218987 1697.963919 1700.600402 1700.656845 1703.398569 1706.432760
55.610000 1699.070601 1701.384121 1703.955179 1703.970273 1706.640442 1709.344973
55.710000 1701.818063 1704.080216 1706.853409 1706.941390 1709.716175 1712.378623
55.810000 1704.840852 1707.216763 1710.038387 1710.156268 1713.102839 1716.109080
55.910000 1708.209730 1710.719911 1713.610191 1713.714002 1716.624629 1719.809790
56.010000 1711.325309 1714.595259 1717.364444 1717.409067 1720.182475 1722.963232
56.090000 1713.902045 1717.599623 1720.380303 1720.227195 1722.959339 1726.061886
56.110000 1714.676743 1718.298862 1721.045656 1720.963281 1723.712344 1726.853362
56.190000 1717.255980 1721.058469 1723.981030 1723.905422 1726.831860 1729.863995
56.290000 1720.667616 1724.374476 1727.002674 1727.118315 1730.026656 1733.540516
56.390000 1723.947194 1726.968236 1730.006145 1730.162268 1733.622761 1736.912692
56.410000 1724.496416 1727.483667 1730.648670 1730.837176 1734.421253 1737.705976
56.490000 1727.103940 1729.876169 1733.097728 1733.323259 1737.143722 1741.074886
56.510000 1727.484918 1730.482932 1733.790087 1734.003993 1737.742494 1741.752396
56.590000 1729.614907 1732.859292 1736.415962 1736.638339 1740.513407 1744.477636
56.610000 1730.625557 1733.507260 1737.146823 1737.348037 1741.234761 1745.172646
56.710000 1734.632900 1737.473696 1740.796951 1740.966259 1744.632364 1748.116022
56.790000 1737.880718 1741.015870 1744.172765 1744.214812 1747.270230 1750.668698
56.810000 1738.733041 1741.958822 1744.932930 1745.002070 1748.036588 1751.289059
56.890000 1742.285782 1745.057252 1747.987418 1747.953623 1750.801406 1753.616897
56.910000 1742.947301 1745.843834 1748.722231 1748.725693 1751.504948 1754.358562
56.990000 1745.460100 1748.884228 1751.963772 1751.885358 1754.898667 1757.689309
57.010000 1746.235908 1749.725270 1752.663967 1752.619037 1755.655897 1758.421322
57.090000 1748.954893 1752.503498 1755.443335 1755.335109 1758.156171 1760.524939
57.190000 1752.909045 1756.093683 1758.983538 1758.891365 1761.659256 1764.431833
57.290000 1755.561719 1758.970139 1761.708593 1761.728290 1764.503849 1767.384988
57.390000 1758.623906 1761.410930 1764.144550 1764.211592 1766.996780 1770.154652
57.490000 1760.895297 1763.897437 1766.582932 1766.613483 1769.383805 1772.633577
57.590000 1763.408202 1766.483782 1769.234030 1769.168301 1771.792101 1774.716923
57.690000 1765.997463 1769.094582 1771.799952 1771.788445 1774.538069 1777.262593
57.790000 1769.025440 1771.748332 1774.621849 1774.453460 1777.211633 1779.639110
57.890000 1771.788867 1774.441989 1777.278322 1777.130596 1779.798786 1781.797574
57.990000 1774.452326 1777.329447 1780.117639 1779.899485 1782.320844 1784.001044
58.090000 1777.146122 1780.382745 1782.947885 1782.663213 1784.860803 1786.309561
58.190000 1780.149683 1783.161843 1785.502330 1785.251701 1787.321356 1788.632935
58.290000 1783.384121 1786.075173 1788.109565 1787.821444 1789.514289 1790.725728
58.390000 1786.671653 1789.123089 1790.570043 1790.383339 1791.694228 1792.811269
58.490000 1791.327035 1792.247278 1793.020040 1793.039750 1793.879081 1794.710487
58.590000 1793.242604 1794.387346 1795.316103 1795.423631 1796.386531 1798.048562
58.690000 1795.340038 1796.525607 1797.700141 1797.944539 1799.200796 1801.867281
58.790000 1797.669678 1798.856706 1800.317525 1800.828799 1802.607002 1807.671599
58.890000 1799.938083 1801.329968 1803.463953 1804.326170 1807.711752 1813.005025
58.990000 1802.339634 1804.093861 1807.236353 1807.974134 1812.142922 1817.186123
59.090000 1804.781318 1806.997824 1811.166364 1811.529906 1816.120061 1820.781809
59.190000 1807.109772 1809.992739 1814.992129 1815.059641 1819.754150 1823.670552
59.290000 1809.867401 1813.871345 1818.837772 1818.559268 1823.075276 1826.032306
59.390000 1812.863157 1817.631005 1822.472222 1822.036041 1826.342629 1828.648116
59.490000 1816.117682 1821.662694 1825.784451 1825.383792 1829.141123 1831.250820
59.590000 1821.392410 1825.855345 1829.178826 1828.848824 1832.012053 1833.633352
59.690000 1825.775706 1830.400037 1833.154057 1832.598875 1834.917367 1836.197402
59.790000 1835.144864 1836.004393 1836.877223 1836.884480 1837.747677 1838.653040
59.890000 1837.316860 1838.630202 1840.175583 1840.430198 1842.106331 1845.907193
59.990000 1839.657478 1841.377197 1844.088392 1844.564911 1847.659089 1852.335332
60.090000 1842.211269 1844.946877 1849.100505 1849.433301 1853.680722 1859.002019
60.190000 1845.284879 1849.425033 1853.944541 1854.061598 1858.883336 1864.191158
60.290000 1849.070855 1853.536553 1858.421556 1858.434378 1863.422827 1868.097038
60.390000 1853.092644 1857.729414 1862.828607 1862.629362 1867.498320 1871.285695
60.490000 1857.435718 1862.518465 1867.665516 1867.201894 1871.667871 1874.718959
60.590000 1863.248231 1869.189756 1873.310979 1872.476212 1875.613451 1877.381216
60.690000 1876.123230 1877.141742 1878.186263 1878.168472 1879.192209 1880.100737
60.790000 1879.316369 1880.708880 1882.524020 1882.873491 1885.117869 1888.213347
60.890000 1881.798543 1883.626778 1885.883367 1886.043194 1888.532193 1891.085417
60.990000 1884.110416 1886.061740 1888.707981 1888.731259 1891.398596 1893.871259
61.090000 1886.505986 1888.582036 1891.178588 1891.270112 1893.895298 1896.263841
61.150000 1888.300251 1890.267435 1892.876312 1892.922320 1895.554059 1897.767992
61.190000 1889.321031 1891.440201 1893.896892 1893.982521 1896.565209 1898.747443
61.250000 1890.906821 1893.067370 1895.589615 1895.549471 1898.107649 1900.188779
61.290000 1891.949893 1894.124419 1896.609128 1896.625765 1899.242552 1901.289111
61.370000 1894.150454 1896.091478 1898.666275 1898.614604 1901.137130 1902.985084
61.470000 1896.512688 1898.608042 1901.350685 1901.187520 1903.729021 1905.446355
61.530000 1898.182829 1900.401864 1903.129694 1902.945014 1905.378477 1907.123758
61.650000 1902.579030 1904.955815 1907.180512 1906.936735 1908.831399 1910.248296
61.750000 1906.840830 1908.915153 1910.355759 1910.263955 1911.761794 1912.946486
61.850000 1910.283627 1911.515620 1912.732864 1912.675232 1913.822328 1914.943688
61.950000 1912.807878 1913.917243 1914.867470 1914.840990 1915.778313 1916.759818
62.050000 1915.440284 1916.121253 1916.959704 1916.947529 1917.716622 1918.477841
62.150000 1917.266208 1918.134474 1919.065266 1919.100772 1919.992179 1921.141845
62.240000 1918.927125 1919.930736 1921.014269 1921.067946 1922.138141 1923.451277
62.340000 1920.770417 1921.954861 1923.202883 1923.261765 1924.475745 1926.495368
62.440000 1922.723985 1923.935256 1925.265726 1925.355301 1926.691757 1928.878035
62.540000 1924.715863 1925.989432 1927.457936 1927.521715 1928.951346 1931.306354
62.640000 1926.601068 1928.141715 1929.565612 1929.757673 1931.317076 1933.928765
62.740000 1928.920823 1930.380121 1931.879654 1932.155454 1933.931281 1936.871295
62.860000 1931.327486 1933.105024 1934.927153 1935.220135 1937.466120 1940.294802
62.960000 1933.643105 1935.616374 1937.807936 1938.054448 1940.556477 1943.186738
63.040000 1936.168349 1938.108572 1940.493113 1940.773967 1943.535888 1946.974325
63.140000 1939.785258 1942.269424 1944.897950 1945.192854 1948.114725 1952.020842
63.240000 1944.410125 1946.718265 1949.769353 1950.010343 1953.207260 1957.053482
63.340000 1947.584577 1950.224502 1953.849076 1953.963856 1957.802186 1961.090841
63.440000 1949.900064 1953.733473 1957.703584 1957.693490 1961.845280 1964.959076
63.540000 1953.085812 1956.896668 1961.212428 1961.012728 1964.773319 1967.849284
63.640000 1956.540396 1960.606258 1964.576174 1964.262128 1967.740533 1970.501410
63.730000 1960.354075 1964.519088 1967.813566 1967.620144 1970.891479 1973.278438
63.830000 1965.091175 1968.985875 1971.710220 1971.611956 1974.258610 1977.281551
63.930000 1971.427571 1973.731476 1976.240343 1976.416843 1979.048893 1982.994738
64.030000 1974.921584 1977.662764 1980.016602 1980.319098 1983.267200 1986.519291
64.130000 1978.177240 1981.206223 1984.221591 1984.301740 1987.436769 1990.302952
64.230000 1982.790333 1985.874096 1989.046979 1989.092573 1992.100007 1995.681904
64.350000 1990.747043 1993.633821 1996.237425 1996.324832 1999.163854 2002.311356
64.450000 1994.883630 1997.685421 2000.325669 2000.324789 2003.038343 2005.801441
64.530000 1997.677165 2000.493135 2003.313342 2003.323704 2006.059840 2008.988253
64.630000 2001.084374 2004.400375 2007.597169 2007.365595 2010.168443 2012.893512
64.730000 2005.806626 2009.055239 2012.076067 2012.043754 2014.865255 2018.208600
64.830000 2011.071278 2013.828035 2016.715621 2016.727519 2019.796665 2022.486834
64.930000 2015.300105 2017.997319 2020.938198 2020.869182 2023.633791 2026.355030
65.030000 2019.601603 2022.235780 2024.960657 2024.808559 2027.304238 2029.451465
65.130000 2022.714474 2025.453529 2028.257243 2028.034012 2030.446166 2032.761591
65.220000 2025.526450 2028.349002 2031.034263 2030.821178 2033.067559 2035.076141
65.320000 2029.430620 2031.965992 2034.058948 2034.051437 2035.919326 2038.571620
65.420000 2032.883853 2035.063075 2036.907616 2037.075050 2039.048847 2042.310062
65.520000 2035.375586 2037.654689 2039.465770 2039.759599 2041.607926 2045.296709
65.620000 2038.313879 2040.239738 2042.118724 2042.464251 2044.411749 2047.957305
65.720000 2040.837742 2042.726962 2044.773499 2045.187280 2047.190559 2051.790468
65.840000 2043.564265 2045.863641 2048.125828 2048.820894 2051.592471 2056.309337
65.940000 2046.289125 2048.574412 2051.289035 2052.115173 2055.524509 2060.316041
66.020000 2048.632842 2050.839129 2054.287204 2055.089439 2059.093835 2064.362937
