depth(m) lower_95(kyr) lower_68(kyr) median(kyr) mean(kyr) upper_68(kyr) upper_95(kyr)
77.380000 630.046994 630.242347 630.767355 630.891426 631.564959 632.440152
77.480000 630.695673 631.049269 631.677939 631.736504 632.371785 633.161266
77.530000 631.067716 631.457924 632.134452 632.174914 632.841946 633.644411
77.580000 631.453481 631.888823 632.570216 632.616010 633.331175 634.097963
77.630000 631.821343 632.310250 633.034434 633.057145 633.776682 634.550575
77.680000 632.195735 632.694772 633.464332 633.475731 634.194943 635.010076
77.780000 632.890428 633.483087 634.280250 634.267914 635.014291 635.808100
77.880000 633.628020 634.274927 635.036901 635.054252 635.813605 636.547406
77.930000 634.048025 634.678610 635.464263 635.470013 636.207478 636.916341
77.980000 634.450637 635.111473 635.892975 635.893271 636.664123 637.429386
78.080000 635.144913 635.892429 636.653336 636.662489 637.427075 638.110361
78.180000 635.872464 636.661299 637.443716 637.428640 638.171922 638.923841
78.280000 636.681898 637.441472 638.209817 638.191885 638.926297 639.694044
78.380000 637.505655 638.194765 638.969119 638.951307 639.681424 640.428839
78.480000 638.164147 638.959712 639.715910 639.710071 640.449167 641.107383
78.580000 638.869509 639.791978 640.498350 640.491617 641.198402 641.939232
78.630000 639.314377 640.197712 640.888444 640.903663 641.593124 642.445958
78.730000 640.138401 641.011181 641.676958 641.692963 642.363361 643.132715
78.780000 640.553008 641.444265 642.096998 642.114016 642.816398 643.607172
78.830000 641.081062 641.898148 642.509377 642.542323 643.236463 644.037177
78.880000 641.539516 642.332544 642.942720 642.975691 643.695594 644.454151
78.930000 641.993438 642.764847 643.377936 643.419537 644.116735 644.852373
78.980000 642.412507 643.233522 643.804083 643.862836 644.538102 645.355317
79.030000 642.818764 643.705705 644.267397 644.320649 645.010599 645.850360
79.080000 643.331168 644.144577 644.706299 644.780162 645.477008 646.300827
79.090000 643.469861 644.248830 644.796265 644.881349 645.556642 646.403873
79.140000 643.905712 644.744750 645.263659 645.368398 646.064589 647.001799
79.190000 644.410195 645.169832 645.784471 645.880922 646.586354 647.629706
79.240000 645.010359 645.652092 646.299982 646.394748 647.126281 648.153693
79.340000 645.872971 646.608751 647.350642 647.427726 648.216327 649.599921
79.390000 646.361463 647.095395 647.904263 647.966803 648.756642 650.381786
79.440000 646.919968 647.625878 648.484309 648.551837 649.383160 651.082434
79.490000 647.425877 648.163389 649.024800 649.113927 649.933388 651.718960
79.540000 647.905720 648.695381 649.541528 649.658078 650.510141 652.283923
79.590000 648.382146 649.184265 650.037083 650.189067 651.161618 652.866076
79.640000 648.868734 649.682336 650.570715 650.712019 651.692953 653.355511
79.690000 649.326911 650.117650 651.083212 651.324545 652.308720 654.210539
79.740000 649.776242 650.647320 651.677532 651.901429 652.959563 654.677837
79.790000 650.239834 651.111216 652.265193 652.529117 653.583255 655.432228
79.840000 650.801821 651.660143 652.899564 653.245759 654.335591 656.776922
79.940000 651.773134 652.926286 669.745622 664.692950 670.815238 671.887982
79.990000 652.172114 653.412014 670.410520 665.608158 671.408055 672.363260
80.040000 652.688345 654.013362 670.971419 666.796698 671.915916 672.921790
80.090000 653.151846 654.932508 671.490864 668.265442 672.413088 673.405428
80.140000 653.759667 670.152293 671.949233 669.672031 672.901292 673.820623
80.190000 654.443475 671.047906 672.462121 670.984101 673.330537 674.249341
80.240000 655.073865 671.840908 672.926257 672.155686 673.806788 674.708406
80.290000 655.823105 672.456301 673.422744 672.836813 674.259057 675.290385
80.340000 663.212762 672.966778 673.959259 673.467189 674.828899 675.847153
80.390000 670.488630 673.464980 674.501205 674.089914 675.442750 676.538021
80.440000 671.594767 673.960298 674.999565 674.704508 676.100422 677.201644
80.490000 672.488631 674.403205 675.546767 675.380378 676.833373 677.836532
80.540000 673.268497 674.965799 676.106943 675.958403 677.448116 678.371950
80.590000 673.790126 675.460449 676.837541 676.618770 678.103818 678.924196
80.640000 674.529509 676.107091 677.535960 677.289126 678.708560 679.413172
80.690000 675.050333 676.737745 678.250042 677.934330 679.219065 679.886602
80.740000 675.586231 677.465845 678.873867 678.545143 679.718727 680.349644
80.790000 676.400340 678.233097 679.441447 679.154641 680.181093 680.774081
80.840000 677.065008 678.929584 680.055997 679.764905 680.687650 681.174278
80.890000 677.712522 679.676122 680.634126 680.377385 681.213008 681.663792
80.940000 678.760897 680.323900 681.149480 680.932841 681.691223 682.166492
80.990000 679.313219 680.847841 681.584388 681.416867 682.120334 682.632549
81.040000 679.729388 681.381665 682.031887 681.887088 682.554365 683.060491
81.140000 680.774029 682.283847 682.883745 682.742483 683.377542 683.881456
81.190000 681.282772 682.735162 683.337431 683.186740 683.800348 684.274393
81.290000 682.349418 683.568628 684.114978 684.012502 684.566048 685.072561
81.340000 682.906280 684.005961 684.528457 684.438730 685.012058 685.531182
81.390000 683.284499 684.408449 684.929956 684.861395 685.428018 685.949807
81.440000 683.757212 684.819455 685.356397 685.296700 685.846859 686.384396
81.490000 684.271008 685.289715 685.796036 685.751550 686.276366 686.805879
81.540000 684.742181 685.736730 686.241418 686.250981 686.752895 687.357257
81.590000 685.272820 686.161112 686.688098 686.731926 687.235052 687.864519
81.640000 685.698438 686.604006 687.158226 687.226873 687.713621 688.492282
81.690000 686.140476 687.035128 687.618124 687.721896 688.250325 689.060390
81.740000 686.584482 687.488736 688.101734 688.257896 688.794464 689.834486
81.790000 687.032483 687.892013 688.601601 688.805786 689.351321 691.419552
81.840000 687.510764 688.379758 689.158354 689.389079 690.035133 693.937220
81.890000 687.996071 688.926344 689.808731 690.171903 690.913640 696.285805
81.940000 688.334492 689.445092 690.509370 691.044105 692.176721 697.812998
81.990000 688.749399 690.134490 691.365098 691.978244 693.679856 698.961271
82.090000 689.394242 692.516760 697.269246 696.928141 700.865827 703.375191
82.140000 689.783260 695.663209 699.124350 698.472467 701.697169 704.123374
82.190000 690.159351 696.511791 700.237879 699.391736 702.581291 704.712567
82.240000 690.533331 697.569028 701.032578 700.234757 703.361649 705.250265
82.290000 690.940466 698.867818 701.806407 701.050297 704.136642 705.944230
82.340000 691.345604 700.429107 702.455348 701.784917 704.852799 706.512549
82.390000 691.756635 701.326592 703.108596 702.456549 705.519420 707.098762
82.440000 692.241834 702.005161 703.730589 703.078348 706.096721 707.829860
82.490000 692.741976 702.619780 704.352867 703.688097 706.741916 708.598101
82.540000 693.272123 703.150739 704.924761 704.283168 707.326946 709.280393
82.590000 693.661575 703.598685 705.588598 704.880120 707.828205 709.821528
82.690000 695.023693 704.663758 706.754390 706.089912 708.845604 711.068503
82.790000 696.813797 705.758727 707.844785 707.309797 709.767350 712.211088
82.890000 700.686221 706.867140 708.882557 708.587467 710.725119 713.404756
82.990000 703.484986 707.838547 709.835252 709.711098 711.693609 714.569588
83.090000 705.912475 708.801343 710.820088 710.810149 712.663280 715.892011
83.165000 707.185339 709.683103 711.600271 711.600422 713.461784 716.530272
83.240000 708.374501 710.390974 712.404706 712.416631 714.255696 717.396740
83.290000 709.082448 710.915709 712.944824 712.971527 714.778207 717.887375
83.340000 709.722004 711.532870 713.490414 713.537965 715.393966 718.296536
83.390000 710.337606 712.045296 714.064408 714.128144 716.131753 718.710458
83.440000 710.974036 712.634795 714.627738 714.717214 716.858418 719.076125
83.490000 711.636094 713.164332 715.229223 715.315186 717.459342 719.576371
83.540000 712.209039 713.803864 715.845427 715.911918 718.071243 720.020964
83.590000 712.857333 714.317584 716.491743 716.502326 718.598503 720.431765
83.723333 714.581495 715.998626 718.135663 718.038944 719.993483 721.490902
83.856667 716.257827 717.948519 719.686726 719.610632 721.340328 722.336301
83.990000 718.356988 719.884516 721.322668 721.194811 722.493962 723.481887
84.090000 720.019957 721.372381 722.559451 722.443489 723.504245 724.348052
84.190000 721.876478 722.882524 723.765051 723.714022 724.528533 725.232330
84.240000 722.780157 723.655808 724.419942 724.393148 725.129151 725.934261
84.290000 723.756622 724.557275 725.197903 725.253046 725.905275 727.061999
84.340000 724.673412 725.316481 725.988337 726.212102 726.911563 729.894504
84.380000 725.410226 726.027681 726.858732 727.174706 728.323805 730.629540
84.430000 726.155564 726.861575 728.000264 728.387171 730.165097 731.800273
84.480000 726.826574 727.885014 729.489842 729.538617 731.217222 732.681106
84.530000 727.666304 729.053493 730.809649 730.722143 732.268897 733.482457
84.580000 728.914111 730.435636 731.935297 731.840076 733.164645 734.264597
84.630000 730.122393 731.647955 733.055843 732.945867 734.138845 735.362678
84.680000 731.352610 732.742444 734.047771 734.005517 735.081657 736.757106
84.730000 732.633454 733.896997 734.963308 735.117282 736.214389 738.931556
84.780000 733.911138 735.000555 736.039421 736.358018 737.751316 740.515037
84.830000 734.803214 735.958197 737.118691 737.538635 739.381471 741.844504
84.880000 735.457447 736.703356 738.135756 738.593946 740.906218 742.931478
84.930000 735.994653 737.502864 739.057238 739.483806 741.966394 743.830018
84.980000 736.509337 738.258470 740.210955 740.452488 742.997201 744.696512
85.030000 737.159125 739.086212 741.378666 741.433252 743.909554 745.554323
85.080000 737.792442 739.889052 742.501156 742.347933 744.761024 746.327328
85.130000 738.493727 740.659046 743.435824 743.198795 745.543210 747.039200
85.180000 739.160657 741.639064 744.310597 744.071602 746.241638 747.713468
85.230000 740.029255 742.525562 745.279685 744.895915 747.046853 748.318404
85.280000 741.067699 743.543839 746.184333 745.775243 747.822361 749.026330
85.330000 741.814762 744.607642 747.169152 746.735307 748.624453 749.815036
85.430000 745.302317 747.674069 749.199478 748.964655 750.224015 751.208764
85.480000 747.851468 749.565195 750.555979 750.494709 751.414970 752.858223
85.530000 750.176603 750.911543 751.726920 751.787199 752.565580 754.122677
85.580000 751.082428 751.732094 752.557554 752.674035 753.503595 755.276600
85.630000 751.717763 752.479009 753.390522 753.478779 754.373971 756.314107
85.680000 752.401660 753.165598 754.150675 754.270682 755.355351 757.065882
85.730000 753.069337 753.937674 754.939573 755.109972 756.313456 757.793740
85.780000 753.907545 754.734173 755.781584 755.967056 757.225893 758.720260
85.830000 754.603976 755.600663 756.753693 756.823364 758.135244 759.483438
85.880000 755.393342 756.408625 757.600661 757.642663 758.949731 760.091660
85.930000 755.977642 757.244998 758.466075 758.431729 759.640900 760.737002
85.980000 756.795082 758.075937 759.241543 759.225506 760.373884 761.418222
86.030000 757.531252 758.903818 760.102904 760.036957 761.145118 762.085944
86.080000 758.362978 759.768308 760.922837 760.869567 761.977389 762.931668
86.180000 760.701017 761.587069 762.650376 762.617730 763.617205 764.699794
86.230000 761.338783 762.418312 763.425606 763.405905 764.350706 765.433910
86.330000 762.909034 763.847263 764.945679 764.924115 765.977988 766.915947
86.380000 763.484727 764.559706 765.671180 765.646189 766.729546 767.663426
86.430000 764.185235 765.365131 766.452599 766.414005 767.489323 768.496773
86.480000 764.944191 766.075254 767.235513 767.167938 768.186098 769.120592
86.530000 765.710036 766.886625 768.012041 767.925213 768.896471 769.684239
86.580000 766.480385 767.678563 768.685499 768.623828 769.599958 770.304068
86.630000 767.301504 768.417081 769.331235 769.292329 770.224841 770.911032
86.680000 767.908694 769.045791 769.964584 769.908333 770.789234 771.465985
86.730000 768.620174 769.738382 770.611183 770.555186 771.401397 772.070569
86.780000 769.119389 770.343669 771.271911 771.196257 772.066420 772.660821
86.830000 769.844656 770.971223 771.865590 771.811527 772.646378 773.251324
86.880000 770.668835 771.695158 772.515146 772.451992 773.219447 773.799668
86.930000 771.212744 772.330012 773.149965 773.060277 773.795818 774.344665
86.980000 772.026650 773.015295 773.718243 773.672633 774.333806 774.855322
87.030000 772.706761 773.676552 774.311004 774.259245 774.875840 775.473520
87.080000 773.466426 774.228493 774.866539 774.816781 775.409437 776.056000
87.130000 774.095325 774.776561 775.401602 775.369493 775.951626 776.578769
87.180000 774.622444 775.304155 775.906703 775.899393 776.510259 777.155362
87.230000 775.104754 775.818821 776.397373 776.415815 777.065618 777.673798
87.280000 775.637435 776.302886 776.914170 776.931951 777.591444 778.225255
87.330000 776.190644 776.807165 777.394569 777.437147 778.103080 778.763588
87.380000 776.703824 777.316790 777.906245 777.939598 778.607189 779.208867
87.430000 777.293789 777.820601 778.425461 778.444048 779.084346 779.662758
87.480000 777.774378 778.307172 778.918384 778.925584 779.544406 780.150414
87.530000 778.194101 778.781143 779.402425 779.386795 780.014896 780.552700
87.580000 778.710821 779.233391 779.853466 779.848228 780.453578 781.037028
87.630000 779.221787 779.762366 780.336402 780.321872 780.892757 781.400879
87.680000 779.716687 780.260444 780.801532 780.799424 781.339632 781.876823
87.730000 780.203896 780.735955 781.273256 781.276703 781.813979 782.410287
87.780000 780.729952 781.217130 781.748793 781.765804 782.300225 782.842893
87.830000 781.214813 781.672376 782.221914 782.238851 782.797383 783.393871
87.880000 781.644543 782.140246 782.689241 782.702308 783.232490 783.934908
87.930000 782.127510 782.607351 783.123685 783.153053 783.682651 784.370558
87.980000 782.530106 783.057305 783.585694 783.608439 784.129116 784.803433
88.030000 783.046011 783.521816 784.063794 784.078126 784.593818 785.297311
88.080000 783.483213 783.989274 784.509475 784.544573 785.072986 785.821660
88.130000 783.903504 784.456457 784.985654 785.008778 785.554654 786.264553
88.180000 784.411150 784.919792 785.478369 785.491514 786.024188 786.807125
88.230000 784.878838 785.370483 785.934238 785.972074 786.538708 787.408897
88.280000 785.328123 785.851142 786.412450 786.450169 787.023187 787.883732
88.330000 785.747679 786.329864 786.904317 786.931392 787.499910 788.326196
88.380000 786.229848 786.791281 787.388097 787.426601 788.030683 788.807122
88.430000 786.751422 787.309780 787.902824 787.938661 788.567663 789.222070
88.480000 787.255057 787.811081 788.425621 788.456393 789.088231 789.740992
88.530000 787.840444 788.337177 788.972033 788.978891 789.619363 790.223004
88.580000 788.378564 788.871591 789.527120 789.527524 790.143255 790.722301
88.630000 788.846318 789.477938 790.079032 790.084952 790.730676 791.245071
88.680000 789.412940 790.110648 790.744072 790.710489 791.336720 791.831591
88.730000 790.073825 790.719308 791.344955 791.330436 791.929813 792.503581
88.830000 791.552073 792.132696 792.782189 792.775730 793.418682 794.008636
88.880000 792.316516 792.957616 793.654348 793.636590 794.290999 794.942411
88.930000 793.042366 793.779344 794.441421 794.430543 795.116596 795.697396
88.980000 794.066656 794.794928 795.514315 795.568763 796.247604 797.758915
89.030000 795.566301 796.241739 797.082182 797.350037 798.539271 800.626643
89.080000 796.374487 797.215527 798.283473 798.515891 799.864482 801.817085
89.130000 797.005741 798.093021 799.444448 799.606549 801.133723 803.138139
89.180000 797.910764 799.004369 800.462950 800.628784 802.302689 804.225308
89.230000 798.633716 800.060124 801.625728 801.758443 803.556913 805.331137
89.280000 799.526277 801.218184 803.003629 803.032539 805.020186 806.498007
89.330000 800.677798 802.759419 804.687723 804.609565 806.497185 807.820234
89.380000 802.112597 804.127765 805.974669 805.823011 807.561549 808.756406
89.430000 803.657062 805.579569 807.149979 807.031239 808.474584 809.704386
89.480000 804.993432 806.988849 808.414940 808.323065 809.691264 810.828134
89.530000 806.878745 808.280891 809.551178 809.535136 810.842087 811.911099
89.580000 807.789083 809.214864 810.468697 810.450816 811.726001 812.764662
89.630000 808.917165 810.142488 811.413537 811.382480 812.633955 813.717013
89.680000 809.664405 811.010546 812.323592 812.304471 813.528086 814.655669
89.730000 810.783319 812.034934 813.307604 813.258592 814.439733 815.541279
89.780000 811.609477 812.923490 814.164158 814.123581 815.286202 816.294834
89.870000 813.692216 814.894486 815.918760 815.919649 816.934177 818.197311
89.920000 814.664732 815.746641 816.749190 816.759796 817.769592 818.930073
89.970000 815.610688 816.557774 817.607376 817.625157 818.661558 819.731210
90.020000 816.401991 817.406912 818.473192 818.501110 819.595270 820.661823
90.070000 817.188225 818.257650 819.338071 819.365991 820.484617 821.632875
90.120000 818.022942 819.055213 820.113615 820.123460 821.202716 822.393922
90.220000 819.592360 820.557124 821.629746 821.652338 822.756514 823.760109
90.270000 820.349611 821.356830 822.503157 822.470399 823.552309 824.482199
90.320000 821.058306 822.135442 823.264542 823.213574 824.257036 825.159687
90.370000 821.851477 822.969888 824.054731 823.978720 824.977564 825.717476
90.420000 822.731091 823.834381 824.874075 824.772635 825.675290 826.307468
90.470000 823.730618 824.817139 825.779571 825.629177 826.398495 826.995770
90.520000 824.773901 825.975803 826.786418 826.717568 827.409110 828.344331
90.570000 826.638618 827.477654 828.102338 828.185385 828.935725 830.060810
90.620000 827.663783 828.371729 829.023596 829.123287 829.946671 830.922630
90.720000 829.011008 829.874647 830.821789 830.801175 831.690680 832.538265
90.770000 829.659223 830.697804 831.657254 831.613329 832.492334 833.325945
90.820000 830.239128 831.448888 832.331033 832.300758 833.196020 834.038070
90.870000 830.919706 832.056357 832.942952 832.939866 833.808479 834.713095
90.920000 831.763925 832.766686 833.659073 833.641095 834.458490 835.492408
90.970000 832.456590 833.368362 834.292455 834.304161 835.147187 836.413194
91.020000 833.167037 833.948602 834.877309 834.922977 835.781326 837.186555
91.070000 833.646212 834.525274 835.425849 835.496807 836.402078 838.090482
91.170000 834.726133 835.596885 836.488436 836.597703 837.538815 839.537865
91.220000 835.308032 836.122064 837.043925 837.149087 838.049762 840.234478
91.295000 836.084360 836.868289 837.805256 837.959158 838.870652 841.093424
91.370000 836.817878 837.657734 838.591944 838.766366 839.627181 842.273984
91.445000 837.617775 838.437836 839.321733 839.553701 840.427823 843.447858
91.520000 838.424882 839.244360 840.131949 840.361408 841.225575 844.591216
91.570000 838.979363 839.744359 840.642053 840.905385 841.776419 845.190644
91.620000 839.468492 840.315947 841.171164 841.444002 842.289658 846.043368
91.720000 840.384439 841.275192 842.086035 842.452241 843.294591 847.466113
91.820000 841.341689 842.213075 843.057288 843.443665 844.355943 848.856232
91.920000 842.313013 843.145486 843.959343 844.436841 845.368651 850.099700
91.970000 842.832073 843.645220 844.476318 844.960853 845.850644 850.652463
92.070000 843.798830 844.635243 845.479138 845.967624 846.792824 851.792655
92.170000 844.801603 845.601276 846.491581 846.963861 847.786561 853.031278
92.270000 845.738000 846.655202 847.463883 847.965565 848.692075 853.946404
92.320000 846.261397 847.162876 847.983550 848.475480 849.185230 854.516534
92.420000 847.329239 848.099505 848.925835 849.428496 850.068469 855.630013
92.470000 847.788802 848.623775 849.427989 849.927952 850.566460 856.030278
92.520000 848.344586 849.138543 849.946578 850.441911 851.088543 856.578390
92.570000 848.901473 849.650093 850.448997 850.958083 851.592790 857.005927
92.645000 849.565040 850.429327 851.227698 851.710272 852.390958 857.642951
