depth(m) lower_95(kyr) lower_68(kyr) median(kyr) mean(kyr) upper_68(kyr) upper_95(kyr)
84.980000 725.845437 726.705573 727.502624 727.551103 728.447173 729.232098
85.100000 726.868745 727.544960 728.288957 728.347381 729.200744 730.046775
85.180000 727.428959 728.095620 728.826041 728.880616 729.704684 730.585347
85.260000 728.008654 728.639999 729.363279 729.421811 730.228606 731.179155
85.340000 728.594591 729.224778 729.971300 730.016557 730.788832 731.742166
85.380000 728.935395 729.539777 730.283498 730.335698 731.126811 732.080627
85.480000 729.670555 730.359188 731.186769 731.205259 732.054849 732.811340
85.580000 730.396971 731.218652 732.170977 732.107949 732.974803 733.546998
85.620000 730.671393 731.628230 732.539142 732.493840 733.361878 733.915773
85.660000 730.961231 732.051293 732.936798 732.884231 733.714560 734.284869
85.740000 732.197089 733.134973 733.929820 733.881861 734.583820 735.419470
85.820000 733.167258 734.080710 734.720593 734.775122 735.493826 736.622423
85.860000 733.519962 734.483804 735.088638 735.164255 735.877818 736.990835
85.900000 734.094900 734.852730 735.465035 735.565894 736.374931 737.584232
86.020000 735.076021 735.740452 736.442326 736.668130 737.739586 738.963642
86.060000 735.450166 736.069526 736.820769 737.046021 738.217618 739.300108
86.100000 735.807594 736.350238 737.173355 737.412480 738.704110 739.649038
86.140000 736.205542 736.700821 737.576729 737.797993 739.157342 739.975446
86.180000 736.494479 737.032295 737.970982 738.176236 739.580223 740.300750
86.220000 736.738291 737.343349 738.356642 738.554149 739.985917 740.619077
86.260000 737.055886 737.639893 738.792003 738.937405 740.360695 740.967558
86.300000 737.374756 737.950188 739.213700 739.297662 740.730630 741.269895
86.360000 737.877012 738.447801 739.996021 739.879472 741.228426 741.888556
86.400000 738.155188 738.790561 740.456990 740.267333 741.577070 742.301441
86.440000 738.493056 739.157661 740.874867 740.637861 741.917270 742.719919
86.480000 738.812428 739.484802 741.293756 741.009406 742.299023 743.155470
86.520000 739.154304 739.829979 741.687194 741.380075 742.661490 743.514907
86.560000 739.529657 740.148774 742.083577 741.750602 743.064277 743.879202
86.600000 739.854128 740.547283 742.465700 742.142010 743.497190 744.248333
86.640000 740.216103 740.879228 742.844119 742.534795 743.965712 744.611728
86.680000 740.549067 741.223360 743.341152 742.927961 744.351558 744.968618
86.720000 740.910731 741.543067 743.743813 743.315086 744.746304 745.321781
86.760000 741.257437 741.941512 744.152043 743.708330 745.117234 745.636314
86.800000 741.671771 742.371600 744.589137 744.104812 745.468459 746.004529
86.840000 742.007797 742.785057 744.962119 744.490563 745.821665 746.318089
86.880000 742.379282 743.176745 745.349740 744.858549 746.130889 746.552783
86.920000 742.774135 743.566865 745.724176 745.224845 746.427245 746.861448
86.960000 743.182227 743.984377 746.090338 745.588094 746.731254 747.176912
87.000000 743.488999 744.398184 746.462548 745.942804 747.061486 747.479810
87.040000 743.869756 744.788504 746.779895 746.293743 747.359300 747.801198
87.080000 744.221445 745.176468 747.102419 746.632680 747.665046 748.117946
87.120000 744.622100 745.631757 747.401496 746.979835 747.980445 748.423854
87.160000 745.014573 746.058583 747.712165 747.328532 748.268830 748.689148
87.200000 745.306241 746.482813 748.019791 747.674177 748.556288 748.970410
87.240000 745.781122 746.965976 748.317236 748.027773 748.876561 749.263263
87.280000 746.272054 747.362267 748.628233 748.374373 749.186052 749.561433
87.320000 746.792326 747.807906 748.946445 748.730847 749.494785 749.901309
87.360000 747.210733 748.236634 749.259139 749.083325 749.803504 750.250496
87.440000 748.277457 749.222846 749.997232 749.894232 750.535034 750.989561
87.480000 748.909189 749.801810 750.450727 750.386006 750.965147 751.496242
87.520000 749.591126 750.350829 750.901839 750.902981 751.475782 752.087936
87.560000 750.018563 750.748285 751.270000 751.279251 751.840397 752.421456
87.640000 750.621517 751.310938 751.849021 751.850583 752.404656 752.989464
87.720000 751.213788 751.793814 752.374005 752.365845 752.945460 753.557608
87.860000 752.067640 752.602271 753.190914 753.192345 753.788626 754.328294
87.940000 752.563074 753.087214 753.695531 753.691802 754.285344 754.876879
87.980000 752.841591 753.366292 753.987956 753.982575 754.588855 755.180788
88.060000 753.342021 753.924958 754.522362 754.533692 755.139387 755.742329
88.180000 754.064898 754.774271 755.374519 755.387003 756.053057 756.608285
88.220000 754.370874 755.051026 755.696242 755.699061 756.354623 757.012807
88.260000 754.666710 755.380725 755.999027 756.019003 756.682662 757.275972
88.340000 755.488309 756.025464 756.654853 756.645328 757.321123 757.820122
88.380000 755.780523 756.341347 756.941647 756.958661 757.614250 758.151688
88.460000 756.403180 756.996772 757.594972 757.597206 758.206732 758.782939
88.500000 756.732633 757.307026 757.930434 757.926458 758.532103 759.043108
88.540000 757.053730 757.648666 758.269697 758.252173 758.831426 759.326548
88.580000 757.397098 758.026269 758.629384 758.586298 759.125781 759.652378
88.620000 757.750040 758.369484 758.928925 758.917587 759.463674 759.960122
88.660000 758.165535 758.753265 759.302225 759.270924 759.788654 760.288981
88.700000 758.539432 759.124405 759.651222 759.644168 760.155564 760.723398
88.740000 758.913260 759.496337 759.964068 759.982453 760.466127 761.051033
88.780000 759.287410 759.773588 760.280643 760.288800 760.780971 761.387756
88.860000 759.887766 760.359745 760.842525 760.853042 761.344237 761.939441
88.900000 760.209420 760.628962 761.130805 761.136897 761.652713 762.207422
88.940000 760.469503 760.914656 761.410938 761.435125 761.926494 762.490019
89.020000 761.033526 761.481258 762.003958 762.022691 762.568313 763.147462
89.060000 761.345961 761.776285 762.322431 762.336330 762.899326 763.550895
89.100000 761.630047 762.107047 762.681777 762.698853 763.242680 764.025340
89.220000 762.502788 763.051121 763.604156 763.676887 764.331135 765.218294
89.300000 763.186800 763.688787 764.330278 764.415431 765.138960 766.038964
89.380000 763.841141 764.308570 765.007545 765.086381 765.896663 766.712920
89.420000 764.100894 764.602990 765.342727 765.412341 766.251855 767.035991
89.460000 764.345814 764.875038 765.643116 765.718859 766.548761 767.301491
89.500000 764.643908 765.163009 766.007131 766.022372 766.879497 767.613971
89.540000 764.925254 765.416538 766.316341 766.308282 767.165567 767.931270
89.580000 765.213833 765.666306 766.616410 766.599708 767.480847 768.163340
89.620000 765.465794 765.943967 766.942971 766.912621 767.828013 768.472260
89.660000 765.745690 766.264736 767.289241 767.242525 768.167567 768.874108
89.700000 766.051562 766.538962 767.628902 767.568558 768.504140 769.220521
89.740000 766.352090 766.861966 767.991549 767.930283 768.904377 769.632893
89.780000 766.664685 767.206019 768.370544 768.306723 769.326923 770.034675
89.820000 766.958760 767.537458 768.796187 768.704380 769.753882 770.438120
89.860000 767.316240 767.879623 769.225719 769.089953 770.189755 770.804969
89.900000 767.653159 768.268434 769.602258 769.464599 770.534324 771.119806
89.940000 767.902461 768.628870 770.020231 769.832326 770.859558 771.402136
89.980000 768.296476 769.028989 770.380691 770.195672 771.189500 771.732357
90.020000 768.619375 769.443232 770.735813 770.564304 771.531927 772.028000
90.060000 769.003209 769.814820 771.099614 770.927519 771.873077 772.306944
90.100000 769.390247 770.238943 771.503819 771.291002 772.188258 772.555197
90.140000 769.820666 770.774009 771.869713 771.672498 772.483707 772.828821
90.180000 770.334745 771.162223 772.238829 772.032698 772.749323 773.053935
90.260000 771.440179 771.937258 772.932451 772.700699 773.304128 773.521183
90.280000 771.603290 772.111946 773.104477 772.866349 773.441585 773.651373
90.300000 771.828995 772.280087 773.292430 773.033778 773.590829 773.772039
90.330000 772.176373 772.515679 773.546864 773.280660 773.812579 774.022246
90.340000 772.256566 772.610221 773.616290 773.358902 773.883616 774.098852
90.380000 772.629332 772.928244 773.894710 773.660835 774.174241 774.397276
90.420000 772.935814 773.241113 774.165025 773.952911 774.461275 774.713765
90.430000 773.007923 773.318313 774.225701 774.029205 774.533932 774.813349
90.460000 773.233900 773.536507 774.443533 774.255074 774.771829 775.149454
90.480000 773.373668 773.672048 774.590532 774.403253 774.937728 775.298553
90.500000 773.493206 773.802568 774.755981 774.561576 775.118775 775.465343
90.580000 774.009138 774.272316 775.426758 775.171979 775.859269 776.191653
90.620000 774.259043 774.500568 775.789192 775.495923 776.209357 776.562346
90.630000 774.334857 774.565247 775.883127 775.577036 776.293753 776.643446
90.680000 774.655408 774.887219 776.320916 775.963016 776.685645 776.973416
90.700000 774.762836 775.006465 776.476393 776.114989 776.860264 777.118713
90.730000 774.940360 775.202924 776.699047 776.333032 777.076414 777.342917
90.740000 775.004647 775.277794 776.765817 776.402958 777.153669 777.428904
90.780000 775.261892 775.573826 776.992303 776.675328 777.414097 777.736865
90.905000 775.910715 776.448325 777.629905 777.414140 778.115585 778.563496
91.030000 776.605307 777.299465 778.292620 778.152380 778.853173 779.338477
91.080000 776.950708 777.674584 778.582776 778.465693 779.141564 779.664191
91.130000 777.330210 778.025730 778.883205 778.781578 779.441275 780.010118
91.180000 777.685888 778.359749 779.183839 779.100007 779.769064 780.305547
91.230000 778.078577 778.689004 779.507574 779.426295 780.095222 780.644629
91.280000 778.359403 779.016510 779.815541 779.750856 780.424926 781.009068
91.330000 778.689849 779.322676 780.128070 780.074776 780.790978 781.386936
91.380000 779.027845 779.616278 780.451386 780.408058 781.141581 781.804791
91.455000 779.509333 780.063519 780.930097 780.916118 781.705790 782.502593
91.530000 779.938354 780.496244 781.413986 781.425001 782.296758 783.123435
91.580000 780.281452 780.822287 781.785558 781.804824 782.739066 783.645715
91.630000 780.610637 781.203893 782.176540 782.204585 783.140044 784.157904
91.670000 780.828112 781.481509 782.500346 782.515270 783.483518 784.481572
91.775000 781.453400 782.268335 783.300517 783.340714 784.343747 785.591558
91.880000 782.161089 783.053299 784.125307 784.166519 785.251880 786.442499
91.980000 782.906084 783.751326 784.924262 784.947553 786.141396 787.171206
92.080000 783.521929 784.577018 785.782884 785.773742 787.018498 787.920116
92.180000 784.255489 785.398846 786.625324 786.594094 787.822414 788.659473
92.280000 785.072225 786.276086 787.523431 787.459377 788.634810 789.411132
92.380000 786.018602 787.187182 788.348990 788.307390 789.432314 790.109322
92.480000 786.993215 788.191630 789.263506 789.160920 790.116436 790.739844
92.580000 788.053342 789.296504 790.120292 790.017091 790.785193 791.289286
92.680000 789.612302 790.355382 790.947631 790.887464 791.438337 791.800825
92.750000 790.358851 790.963473 791.497122 791.439185 791.913137 792.265258
92.800000 790.923763 791.406279 791.871008 791.835063 792.259695 792.581842
92.850000 791.327556 791.777318 792.222503 792.194348 792.587962 792.959257
92.880000 791.567485 792.022327 792.441759 792.427542 792.818449 793.194466
92.900000 791.714519 792.180029 792.608277 792.589607 792.972774 793.356705
92.950000 792.215315 792.662800 793.098030 793.085756 793.504825 793.964826
92.980000 792.539774 792.997310 793.437359 793.425664 793.860116 794.276125
93.000000 792.743497 793.186877 793.626683 793.621150 794.051458 794.456219
93.080000 793.569025 794.029636 794.460536 794.458735 794.895579 795.288649
93.100000 793.743777 794.253610 794.683794 794.679811 795.138918 795.525489
93.150000 794.335727 794.847797 795.313104 795.309209 795.792401 796.191505
93.170000 794.585158 795.075450 795.560379 795.551339 796.037540 796.433302
93.200000 795.120374 795.558433 796.101752 796.124454 796.655814 797.348145
93.250000 795.776721 796.231590 796.697762 796.772122 797.326278 798.058863
93.300000 796.222840 796.678205 797.169428 797.235954 797.799025 798.595632
93.350000 796.597464 797.039937 797.553992 797.647417 798.240128 799.133076
93.425000 797.054432 797.515455 798.147119 798.226375 798.894521 800.013159
93.500000 797.506308 797.966191 798.687339 798.788114 799.566515 800.721540
93.550000 797.782814 798.318702 799.059746 799.172948 800.033690 801.144900
93.650000 798.402819 798.963432 799.811874 799.995406 800.978646 802.322035
93.700000 798.665237 799.344574 800.277306 800.424562 801.544756 802.728732
93.750000 798.984389 799.807137 800.842972 800.939620 802.105281 803.420935
93.800000 799.466684 800.283628 801.394867 801.516133 802.719592 804.223096
93.900000 800.597767 801.806682 803.446553 803.557589 805.434867 806.711326
93.950000 801.097631 802.569896 804.473202 804.385826 806.227912 807.370300
94.000000 801.678957 803.418964 805.357627 805.200018 806.863682 807.942773
94.050000 802.515966 804.294498 806.273479 806.028728 807.578220 808.551121
94.100000 803.149962 804.968363 806.928728 806.668098 808.148381 809.167933
94.150000 803.703570 805.622154 807.486308 807.222794 808.655997 809.740385
94.200000 804.227847 806.313492 808.103707 807.844993 809.235577 810.433844
94.250000 805.433914 807.503352 808.900969 808.755224 809.979134 811.365207
94.300000 807.178114 808.559490 809.759812 809.772329 811.001341 812.430951
94.350000 807.823093 809.266656 810.354606 810.400635 811.678987 812.873711
94.400000 808.914049 810.005055 811.030042 811.089999 812.272325 813.318294
94.450000 809.606419 810.641042 811.645312 811.718485 812.894432 813.805030
94.500000 810.437062 811.310657 812.389144 812.376887 813.459460 814.380155
94.550000 811.039426 811.887091 812.932325 812.925007 813.930268 814.825601
94.600000 811.557051 812.434573 813.485855 813.463000 814.384947 815.180702
94.650000 812.071898 812.972122 813.981977 813.944679 814.815852 815.543981
94.700000 812.506657 813.463262 814.451776 814.380469 815.268609 815.837705
94.750000 812.993190 814.015260 814.973648 814.869703 815.678893 816.213479
94.800000 813.493860 814.580657 815.459616 815.377625 816.122819 816.660351
94.850000 814.046011 815.131657 815.867374 815.810020 816.511433 817.016306
94.900000 814.609136 815.545393 816.271551 816.211491 816.872780 817.400077
95.000000 815.566057 816.301371 816.952203 816.893020 817.453299 817.933901
95.100000 816.288459 816.966248 817.534345 817.505360 818.012252 818.475453
95.200000 816.841414 817.560952 818.103010 818.067573 818.548582 819.059764
95.250000 817.229146 817.876510 818.380488 818.357813 818.837220 819.317228
95.300000 817.635212 818.179933 818.674893 818.663650 819.125978 819.613330
95.350000 817.911325 818.512297 818.991215 818.977464 819.428718 819.918966
95.400000 818.257134 818.820969 819.275806 819.275085 819.726421 820.214921
95.450000 818.594835 819.106505 819.591350 819.570889 820.010328 820.524829
95.550000 819.157515 819.671868 820.151794 820.138602 820.579257 821.105064
95.600000 819.536262 819.981337 820.425628 820.429537 820.847950 821.386987
95.700000 820.026847 820.564208 821.005599 820.998448 821.416295 821.951161
95.750000 820.366889 820.866263 821.312869 821.306156 821.721724 822.277040
95.800000 820.701821 821.172049 821.610523 821.617673 822.020083 822.597851
95.900000 821.343674 821.778170 822.223633 822.232973 822.669849 823.245542
95.950000 821.659427 822.081284 822.527187 822.537015 822.969703 823.541682
96.000000 821.973212 822.397436 822.842932 822.853361 823.295321 823.844570
96.050000 822.285668 822.694854 823.144153 823.164812 823.631485 824.144876
96.100000 822.537822 823.004702 823.451339 823.470752 823.946297 824.466916
96.200000 823.130424 823.573569 824.018408 824.041550 824.547984 825.038915
96.300000 823.660989 824.114311 824.604295 824.611516 825.143932 825.618059
96.400000 824.184858 824.714602 825.184992 825.190991 825.685033 826.211062
96.450000 824.504456 825.040005 825.529209 825.525016 826.007936 826.512929
96.500000 824.829397 825.407789 825.935366 825.931746 826.434420 826.948494
96.600000 825.695968 826.313121 826.959809 826.995518 827.601805 828.718113
96.650000 826.595777 827.287318 827.929202 827.983985 828.737733 829.578315
96.700000 827.222419 827.862714 828.486234 828.550096 829.306620 830.150819
96.750000 827.645542 828.290713 828.958884 829.008659 829.745492 830.572385
96.850000 828.311191 829.043588 829.838333 829.831176 830.626831 831.495616
96.950000 829.154513 829.810821 830.573829 830.588846 831.399651 832.113304
97.050000 829.933954 830.619433 831.367983 831.372390 832.162128 832.807128
97.100000 830.370373 831.036256 831.754690 831.760702 832.513333 833.176626
97.150000 830.725660 831.463808 832.175458 832.168542 832.906624 833.513850
97.200000 831.136586 831.863912 832.584721 832.552652 833.271423 833.826237
97.250000 831.558981 832.237479 832.937124 832.917123 833.639786 834.110870
97.350000 832.339799 833.023313 833.675280 833.632809 834.262002 834.743682
97.400000 832.755236 833.431957 834.077281 834.032163 834.623963 835.106249
97.450000 833.202994 833.819207 834.463154 834.414258 834.972592 835.411145
97.500000 833.514247 834.178823 834.798472 834.757764 835.315120 835.759915
97.600000 834.314712 834.856756 835.450209 835.394872 835.868003 836.326771
97.650000 834.611245 835.210441 835.747427 835.710756 836.159859 836.644309
97.700000 834.933373 835.546973 836.045052 836.013576 836.443978 836.969145
97.750000 835.255628 835.844402 836.322900 836.295685 836.710087 837.313775
97.800000 835.570259 836.133259 836.589357 836.568562 836.979314 837.572050
97.900000 836.096337 836.653897 837.081072 837.074601 837.456318 838.059891
98.000000 836.682829 837.158727 837.567600 837.574644 837.958411 838.512719
98.100000 837.268395 837.656499 838.034988 838.063211 838.443949 839.048816
98.200000 837.779982 838.172984 838.513496 838.549169 838.894968 839.671910
98.250000 838.066542 838.442871 838.764548 838.813275 839.150077 839.978775
98.300000 838.359393 838.730844 839.037848 839.089047 839.413233 840.290164
98.350000 838.677008 838.994750 839.296074 839.365656 839.668802 840.525186
98.400000 838.986713 839.276479 839.560073 839.643017 839.938795 840.871150
98.450000 839.295687 839.552904 839.827619 839.926332 840.215057 841.207131
98.500000 839.581858 839.831932 840.114643 840.226466 840.570605 841.584457
98.510000 839.646199 839.897306 840.176441 840.293373 840.638413 841.649600
98.550000 839.853686 840.141167 840.477621 840.584899 841.006121 841.977753
98.625000 840.263386 840.585013 840.999573 841.154323 841.774957 842.813261
98.700000 840.622050 841.006971 841.583864 841.736901 842.490057 843.603732
98.750000 840.922259 841.324960 841.984370 842.126443 842.966741 843.997248
98.800000 841.185969 841.636483 842.374111 842.500936 843.373842 844.347333
98.875000 841.633862 842.124004 843.019914 843.108949 844.081184 844.982626
98.950000 842.071893 842.712742 843.719715 843.745527 844.762959 845.650743
98.990000 842.300581 843.012350 844.077300 844.075727 845.097894 846.024035
99.050000 842.660427 843.486704 844.609131 844.562736 845.546755 846.501002
99.150000 843.292451 844.299740 845.379630 845.338524 846.314572 847.455254
99.200000 843.575423 844.732712 845.759070 845.743564 846.774804 847.887502
99.250000 843.945381 845.093016 846.183210 846.151959 847.214164 848.355920
99.300000 844.220286 845.466886 846.637913 846.598202 847.700422 848.793061
99.350000 844.528247 845.825256 847.104345 847.042679 848.220142 849.191994
99.463333 845.108778 846.719784 848.340412 848.147689 849.518097 850.255201
99.576667 845.887438 847.550297 849.714252 849.217265 850.527036 851.107936
99.690000 846.658899 848.528847 850.934804 850.293218 851.444701 851.902835
99.700000 846.714506 848.587226 851.017051 850.369673 851.522067 851.966861
99.775000 847.435578 849.357966 851.466747 850.916564 852.012664 852.456186
99.850000 848.167007 850.040009 851.852069 851.418912 852.414440 852.922399
