depth(m) lower_95(kyr) lower_68(kyr) median(kyr) mean(kyr) upper_68(kyr) upper_95(kyr)
59.010000 832.957754 835.685753 838.847041 838.537169 841.163912 842.914129
59.060000 834.392803 836.977025 839.919802 839.690637 842.225504 843.791876
59.110000 835.833015 838.368981 841.079387 840.850809 843.274401 844.777004
59.160000 836.864845 839.682819 842.241120 841.977813 844.330946 845.657781
59.210000 838.510381 840.938775 843.468595 843.157433 845.322437 846.660979
59.260000 839.883677 842.100887 844.670363 844.322846 846.381018 847.670439
59.310000 841.419979 843.462781 845.840242 845.535024 847.453546 848.572060
59.360000 842.784091 845.040175 846.957165 846.790360 848.575670 849.644169
59.410000 844.463583 846.691538 848.218894 848.118456 849.639009 850.645280
59.460000 846.478767 848.105040 849.585393 849.451810 850.796894 851.711453
59.510000 848.156265 849.645511 851.017585 850.859279 852.011467 852.728711
59.560000 849.873178 851.172243 852.358470 852.205445 853.171176 853.819448
59.610000 851.607569 852.730628 853.606406 853.488241 854.234880 854.835837
59.660000 853.076175 854.030899 854.721041 854.643710 855.259124 855.752026
59.710000 854.325064 855.225294 855.811174 855.781402 856.343926 857.165124
59.760000 855.483924 856.166954 856.798796 856.815842 857.446969 858.366205
59.810000 856.423086 857.062612 857.744991 857.794131 858.510007 859.578905
59.860000 857.166157 857.971194 858.723146 858.805024 859.683172 860.872810
59.910000 858.126372 858.947037 859.765376 859.912860 860.929868 862.327241
59.960000 859.283651 860.109312 861.078553 861.226872 862.456045 863.881398
60.010000 860.408451 861.279330 862.443551 862.530710 863.800082 865.109236
60.085000 862.164264 863.207995 864.430530 864.455431 865.744473 866.738938
60.160000 864.038407 865.257181 866.429032 866.342462 867.433094 868.221466
60.210000 865.401622 866.685259 867.670586 867.607918 868.577561 869.267022
60.260000 866.826399 868.074923 868.979256 868.891384 869.689784 870.475703
60.310000 868.246092 869.248839 870.021605 869.990782 870.744371 871.467415
60.360000 869.492648 870.263801 870.945997 870.955603 871.627813 872.476887
60.410000 870.535970 871.225047 871.904950 871.939469 872.634876 873.482309
60.460000 871.535846 872.210470 872.929191 872.996929 873.758559 874.770438
60.560000 873.322466 874.197996 875.153642 875.206835 876.241802 877.303095
60.635000 874.852563 875.920315 877.134665 877.272689 878.582048 880.553914
60.710000 876.714361 877.717510 879.182957 879.380729 881.123041 883.335539
60.760000 877.730549 878.866625 880.377206 880.706483 882.685809 885.276965
60.810000 878.783213 880.057552 881.648200 882.028407 884.118355 886.810898
60.860000 879.858419 881.284426 882.887994 883.357028 885.657497 888.958292
60.910000 881.127053 882.563372 884.276490 884.878708 887.859362 890.650525
60.960000 882.545736 884.178460 886.156477 886.727718 889.954184 892.117257
61.010000 884.162300 886.005580 888.525835 888.755276 891.830468 893.375079
61.060000 885.803625 887.974330 890.954067 890.814126 893.506387 894.880264
61.110000 887.509972 890.145757 893.342951 892.765166 894.945072 896.168398
61.160000 889.153416 892.699187 894.879016 894.486445 896.222937 897.535734
61.210000 891.806238 894.462531 896.030182 895.910238 897.437287 899.126704
61.260000 893.965227 895.670312 897.156679 897.159939 898.621484 900.720842
61.310000 895.293081 896.721959 898.133613 898.275863 899.827609 902.007913
61.360000 896.375311 897.678149 899.252758 899.438005 901.096303 903.601415
61.410000 897.332597 898.694290 900.496292 900.678423 902.592189 905.007085
61.460000 898.374717 899.902709 901.939201 902.089649 904.073631 906.588759
61.510000 899.398776 901.228980 903.523015 903.826656 905.802850 909.237847
61.585000 901.468933 904.572656 999.640232 960.509871 1013.910644 1017.170962
61.660000 1007.975432 1012.102858 1014.960305 1014.455436 1017.310589 1019.968194
61.710000 1009.693720 1013.952691 1016.539439 1016.113327 1018.718651 1021.521403
61.760000 1012.825918 1015.495364 1017.949225 1017.571870 1020.096019 1022.927067
61.810000 1014.181605 1016.941329 1019.217407 1018.955951 1021.356694 1024.229648
61.860000 1015.357234 1018.340779 1020.617722 1020.359140 1022.764395 1025.501478
61.910000 1016.814233 1019.898338 1022.096782 1021.789486 1024.172406 1026.547255
61.960000 1018.243548 1021.207750 1023.512856 1023.202996 1025.557095 1027.947064
62.010000 1019.537697 1022.628436 1024.861800 1024.610571 1026.950854 1029.258360
62.060000 1020.973593 1024.187110 1026.286779 1026.199015 1028.737152 1031.634366
62.110000 1022.763204 1025.851839 1027.875701 1027.913934 1030.779684 1033.610664
62.160000 1024.815013 1027.475639 1030.215916 1029.967592 1033.147831 1034.913615
62.210000 1026.518615 1029.821762 1033.061332 1032.350607 1034.892321 1036.205136
62.260000 1029.135260 1033.528120 1035.261631 1034.688609 1036.504683 1037.523236
62.310000 1031.901547 1035.777327 1036.980310 1036.613525 1038.139658 1039.285633
62.360000 1035.826633 1037.631013 1038.830336 1038.631281 1040.036677 1041.499342
62.410000 1038.934132 1040.270621 1041.781362 1041.775850 1043.449727 1045.705972
62.460000 1040.327578 1042.033834 1043.642368 1043.683776 1045.601670 1047.724529
62.510000 1041.704301 1043.765861 1045.541401 1045.585879 1047.800959 1050.469060
62.560000 1043.159826 1045.331180 1047.244605 1047.226598 1049.491612 1051.862517
62.610000 1044.814279 1046.897996 1048.904189 1048.864019 1051.156249 1053.398538
62.660000 1046.429483 1048.380197 1050.627812 1050.520423 1052.897290 1055.243951
62.710000 1048.206114 1050.202918 1052.481318 1052.323217 1054.654257 1056.586670
62.760000 1050.260828 1052.299697 1054.499191 1054.324300 1056.570612 1057.995095
62.810000 1052.899086 1054.689264 1056.582416 1056.314957 1058.292897 1059.408968
62.860000 1054.351368 1056.184438 1058.024754 1057.719779 1059.466541 1060.641859
62.910000 1055.633113 1057.440165 1059.115900 1058.844772 1060.478631 1061.594280
62.960000 1056.936257 1058.609505 1060.091625 1059.873040 1061.466310 1062.467914
63.010000 1058.168162 1059.798567 1061.107231 1060.915283 1062.353274 1063.291823
63.085000 1059.948905 1061.300065 1062.488124 1062.396861 1063.574657 1064.531465
63.160000 1061.679554 1062.835859 1063.853629 1063.818815 1064.836918 1065.671365
63.210000 1062.809994 1063.817727 1064.769747 1064.737975 1065.653181 1066.484175
63.260000 1063.848204 1064.784277 1065.613376 1065.616960 1066.469074 1067.332738
63.310000 1064.804436 1065.652760 1066.484442 1066.481164 1067.298411 1068.189989
63.360000 1065.678162 1066.552020 1067.303817 1067.330919 1068.135523 1069.056462
63.410000 1066.540085 1067.350584 1068.112035 1068.155310 1068.951395 1069.909893
63.460000 1067.287312 1068.157959 1068.923980 1068.954955 1069.785103 1070.774517
63.510000 1068.128647 1068.940389 1069.720484 1069.762142 1070.629800 1071.541465
63.560000 1068.889655 1069.666961 1070.510403 1070.543379 1071.425007 1072.247893
63.660000 1070.116558 1071.013478 1071.858774 1071.883344 1072.770774 1073.717596
63.760000 1071.481670 1072.275340 1073.205645 1073.214183 1074.185790 1075.134823
63.810000 1072.110038 1073.003315 1073.974812 1073.979077 1074.982437 1075.873089
63.860000 1072.907667 1073.811982 1074.726707 1074.745299 1075.748298 1076.587353
63.910000 1073.636036 1074.510930 1075.464683 1075.497397 1076.524100 1077.350723
63.960000 1074.383397 1075.266847 1076.253542 1076.262891 1077.215208 1078.084227
64.010000 1075.198666 1076.066631 1077.037964 1077.036552 1078.002248 1078.891273
64.060000 1076.027713 1076.834897 1077.818857 1077.801955 1078.756928 1079.729497
64.110000 1076.787864 1077.556518 1078.569641 1078.583340 1079.587560 1080.467127
64.160000 1077.551802 1078.376536 1079.418497 1079.457160 1080.520605 1081.430786
64.210000 1078.457985 1079.283011 1080.368714 1080.401494 1081.507778 1082.527319
64.260000 1079.326431 1080.409756 1081.448528 1081.516288 1082.607125 1084.038075
64.310000 1080.571239 1081.645042 1082.764047 1082.809362 1083.947052 1085.293583
64.360000 1081.788289 1082.840491 1083.982332 1084.063408 1085.221605 1086.811579
64.410000 1082.840795 1083.951359 1085.083271 1085.155952 1086.318130 1087.857098
64.460000 1083.738008 1084.892525 1086.090444 1086.138182 1087.345974 1089.109228
64.510000 1084.549074 1085.757698 1086.995305 1087.090530 1088.373317 1089.987046
64.585000 1085.763189 1086.969482 1088.359301 1088.400646 1089.739609 1091.246717
64.660000 1086.855799 1088.315108 1089.695683 1089.714002 1091.068775 1092.539198
64.710000 1087.701231 1089.178594 1090.605218 1090.616102 1091.952945 1093.695754
64.760000 1088.606384 1090.045527 1091.474315 1091.486227 1092.858218 1094.415185
64.810000 1089.545402 1090.943250 1092.337451 1092.367875 1093.741003 1095.438197
64.860000 1090.397230 1091.819764 1093.203334 1093.245224 1094.585782 1096.349222
64.910000 1091.225941 1092.671767 1094.079716 1094.120754 1095.448591 1097.302586
64.960000 1092.043838 1093.640292 1094.981166 1095.025402 1096.388404 1098.217496
65.010000 1092.908900 1094.565827 1095.856148 1095.942441 1097.318795 1099.127720
65.060000 1093.862536 1095.468217 1096.736273 1096.852450 1098.256021 1099.949794
65.110000 1094.721864 1096.382491 1097.713349 1097.796297 1099.203134 1100.899993
65.210000 1096.849183 1098.298033 1099.674472 1099.796247 1101.294258 1103.214456
65.260000 1097.905516 1099.484869 1100.865587 1101.016194 1102.592946 1104.487135
65.310000 1099.142108 1100.758844 1102.406487 1102.529973 1104.294681 1106.455754
65.360000 1100.655992 1102.216414 1104.160717 1104.253933 1106.366940 1108.121031
65.410000 1102.127482 1103.923206 1106.171424 1106.067420 1108.121908 1109.608197
65.460000 1103.682300 1105.900347 1108.045330 1107.848446 1109.612338 1110.896915
65.510000 1105.542935 1108.283052 1109.793408 1109.668737 1111.082022 1112.439794
65.560000 1108.261048 1110.040180 1111.287383 1111.286056 1112.638595 1113.875933
65.610000 1109.890993 1111.404138 1112.577192 1112.674414 1113.986936 1115.363826
65.710000 1112.589318 1113.710208 1115.010701 1115.141903 1116.515147 1118.070796
65.760000 1113.875650 1115.086618 1116.478827 1116.550031 1117.966225 1119.381823
65.860000 1116.217801 1117.865778 1119.433397 1119.315609 1120.616173 1121.633567
65.910000 1117.544908 1119.402351 1120.872388 1120.688878 1121.892129 1122.740809
65.960000 1118.927518 1120.958361 1122.220843 1122.135234 1123.204243 1124.564153
66.010000 1120.655929 1122.475025 1123.591141 1123.712913 1124.936700 1127.261581
66.085000 1123.192854 1124.891480 1127.750787 1129.082109 1134.320639 1137.092489
66.160000 1126.009434 1129.176686 1135.791034 1134.636546 1137.909776 1139.710722
66.210000 1127.199149 1135.545496 1137.668038 1137.028656 1139.570757 1141.474660
66.260000 1128.574720 1137.274219 1139.151935 1138.841419 1140.945279 1143.328527
66.310000 1135.791211 1138.711442 1140.423850 1140.344600 1142.169539 1144.885709
66.360000 1137.862735 1140.005558 1141.697408 1141.781489 1143.671301 1146.139809
66.410000 1139.431186 1141.167941 1142.894784 1143.109843 1145.310291 1147.330944
66.460000 1140.883870 1142.378081 1144.101517 1144.400840 1146.812531 1148.808650
66.560000 1142.988878 1144.649039 1146.704095 1146.992131 1149.633646 1151.541590
66.610000 1144.027788 1146.011328 1148.169102 1148.456139 1151.123508 1153.505037
66.660000 1145.430642 1147.378777 1149.795910 1149.961942 1152.511899 1155.073467
66.760000 1147.963995 1150.285252 1153.122397 1153.588098 1155.820676 1160.253414
66.810000 1149.136391 1151.781697 1154.792863 1155.153986 1157.374631 1162.509248
66.860000 1150.613306 1153.286916 1156.371084 1156.719782 1158.775865 1175.545234
66.910000 1152.217604 1154.874694 1157.882034 1158.490443 1160.490184 1178.952412
66.960000 1153.633166 1156.312517 1159.445274 1160.447474 1162.703753 1181.918463
67.010000 1154.904749 1158.053832 1161.086086 1162.453387 1165.288082 1183.477012
67.050000 1155.943603 1159.403870 1162.303738 1164.093254 1167.413463 1185.253155
67.125000 1158.874667 1163.168626 1176.866528 1175.309500 1186.743705 1189.876688
67.200000 1166.462583 1182.595307 1187.467471 1185.889287 1189.910798 1191.687167
67.250000 1171.643342 1184.856501 1189.208855 1187.839520 1191.283062 1192.902571
67.300000 1180.170540 1187.477106 1190.642599 1189.807240 1192.393565 1193.686699
67.350000 1184.500607 1189.545544 1192.043257 1191.433583 1193.493490 1194.550889
67.400000 1186.841644 1191.619390 1193.492125 1192.927496 1194.530575 1195.402105
67.450000 1189.898791 1193.680835 1194.934034 1194.568724 1195.660606 1196.270854
67.500000 1194.585463 1195.773195 1196.451320 1196.370162 1197.052915 1197.880258
67.550000 1196.598577 1197.201172 1197.867464 1198.108196 1198.760024 1201.219864
67.620000 1197.687306 1198.442482 1199.308789 1200.034822 1200.714684 1210.627974
67.650000 1198.171953 1198.938915 1199.970118 1200.709650 1201.538356 1211.682955
67.700000 1198.920986 1199.693202 1200.911155 1201.991126 1203.365799 1212.944170
67.750000 1199.601226 1200.545682 1202.053305 1203.837142 1209.505686 1214.378170
67.800000 1200.376729 1201.493888 1204.592888 1206.269847 1212.220550 1215.359842
67.850000 1201.007010 1202.693146 1209.717934 1208.920565 1213.746898 1216.573877
67.900000 1202.090594 1205.737316 1212.298925 1211.102517 1214.783840 1217.992767
67.950000 1203.584579 1209.828311 1213.721877 1212.996903 1215.680346 1219.972504
68.000000 1206.349531 1212.318428 1214.807221 1214.625996 1216.680127 1221.943945
68.050000 1209.780724 1213.947701 1215.819946 1215.983230 1217.891935 1223.472491
68.110000 1213.104201 1215.302811 1216.969487 1217.615580 1220.099099 1225.201752
68.150000 1214.095103 1216.090202 1217.792058 1218.520204 1221.356063 1226.077076
68.200000 1215.536915 1217.119893 1219.215277 1219.986181 1223.592327 1227.511290
68.230000 1216.170553 1217.799677 1219.969799 1220.769258 1224.495462 1228.106100
68.300000 1217.571134 1219.722706 1223.466221 1223.658262 1227.754532 1230.945212
68.350000 1218.658920 1220.985771 1225.718911 1225.642311 1230.158695 1232.654658
68.400000 1219.723557 1222.731998 1228.183292 1227.629208 1232.284556 1234.501197
68.450000 1223.022353 1231.133497 1234.601725 1233.704666 1236.307964 1237.949629
68.500000 1232.094254 1235.077221 1236.490897 1236.400489 1238.009000 1239.647563
68.550000 1235.589982 1236.715487 1237.901762 1238.025993 1239.409450 1240.893364
68.580000 1236.200301 1237.281776 1238.559491 1238.644596 1240.012167 1241.606830
68.650000 1237.333888 1238.472611 1239.825921 1239.919043 1241.351264 1242.845586
68.740000 1238.604517 1239.819720 1241.321116 1241.383405 1242.911477 1244.577628
68.815000 1239.638493 1240.863733 1242.472472 1242.551042 1244.209378 1245.764775
68.890000 1240.806033 1241.951897 1243.642640 1243.730744 1245.518675 1246.893272
68.965000 1241.822148 1243.134333 1244.924887 1244.916261 1246.640541 1247.993115
69.040000 1242.897419 1244.393404 1246.118399 1246.075851 1247.715474 1248.762387
69.115000 1244.012179 1245.735768 1247.436813 1247.267562 1248.706371 1249.761634
69.190000 1245.482180 1247.203799 1248.678006 1248.484954 1249.706718 1250.621626
69.265000 1246.921047 1248.701145 1249.917965 1249.737098 1250.770415 1251.723009
69.340000 1248.406899 1250.116584 1251.065359 1250.954672 1251.828568 1252.684281
69.415000 1249.996251 1251.220207 1252.107550 1252.265903 1253.097370 1254.650643
69.490000 1251.422151 1252.174246 1253.168387 1253.508534 1254.328900 1262.744398
69.565000 1252.201558 1253.052409 1254.227338 1255.470367 1258.565455 1265.007681
69.640000 1252.994382 1253.898399 1255.309463 1257.427843 1263.913654 1266.723755
69.715000 1253.825681 1254.851934 1258.463667 1259.742999 1265.448819 1267.689657
69.790000 1254.626957 1255.969924 1263.787545 1262.127279 1266.658581 1268.846082
69.865000 1255.612045 1258.237268 1265.094581 1263.914977 1267.676695 1269.982622
69.940000 1256.655700 1263.458207 1266.483454 1265.860525 1268.601802 1271.013931
70.015000 1258.225323 1265.194184 1267.668037 1267.317386 1269.657687 1272.104764
70.090000 1264.095640 1266.857497 1268.915288 1268.866605 1271.028621 1273.532014
70.165000 1266.007366 1268.451612 1270.522156 1270.512329 1272.885769 1274.896200
70.240000 1268.318325 1270.024353 1272.350040 1272.239266 1274.418698 1276.180865
70.315000 1269.755855 1271.639809 1274.109993 1273.968021 1276.060348 1277.966189
70.390000 1271.474854 1273.550789 1275.898191 1275.686108 1277.654767 1279.313849
70.465000 1272.866563 1274.997862 1277.113469 1276.983937 1278.999489 1280.398664
70.540000 1274.351376 1276.303303 1278.349948 1278.275681 1280.143907 1281.733296
70.615000 1275.463690 1277.607158 1279.588747 1279.448848 1281.252006 1282.841760
70.690000 1276.571541 1278.714837 1280.792385 1280.599184 1282.320879 1283.872000
70.765000 1277.865629 1279.787224 1281.905354 1281.698262 1283.431053 1284.731728
70.840000 1279.103634 1280.852767 1282.990106 1282.763321 1284.445508 1285.648660
70.915000 1280.109566 1282.164690 1284.145829 1283.944003 1285.593156 1286.983181
70.990000 1281.027904 1283.353875 1285.326679 1285.155833 1286.871707 1288.485349
71.065000 1281.820784 1284.381592 1286.407510 1286.260354 1288.120300 1289.967809
71.140000 1282.718945 1285.384311 1287.436938 1287.399928 1289.526083 1291.255543
71.240000 1284.225584 1286.363703 1288.578603 1288.756125 1291.437756 1293.384639
71.340000 1285.403227 1287.340378 1289.770474 1290.081072 1293.059030 1295.173915
71.440000 1286.476608 1288.294144 1291.111715 1291.366037 1294.742132 1296.469589
71.515000 1287.275281 1288.963696 1292.254781 1292.309941 1295.896938 1297.669826
71.590000 1287.994188 1289.607486 1293.289531 1293.214427 1296.851541 1298.681334
71.665000 1288.736348 1290.287459 1294.526153 1294.066200 1297.643362 1299.360519
71.740000 1289.465888 1291.019607 1295.578165 1294.915760 1298.457882 1300.135454
71.815000 1290.155702 1291.762780 1296.486525 1295.767537 1299.295769 1300.915409
71.890000 1290.972095 1292.560035 1297.393642 1296.623355 1300.083577 1301.573005
71.965000 1291.817723 1293.391107 1298.482089 1297.501020 1300.829472 1302.372554
72.040000 1292.657218 1294.300813 1299.464427 1298.357894 1301.680524 1303.106546
72.115000 1293.577694 1295.124195 1300.320685 1299.285640 1302.542718 1304.050045
72.190000 1294.371446 1296.070161 1301.196872 1300.228753 1303.380218 1304.869875
72.265000 1295.225435 1297.169166 1302.095265 1301.239409 1304.330187 1305.684899
72.340000 1296.463819 1298.505538 1302.985588 1302.330892 1305.301144 1306.562644
72.440000 1298.013806 1300.606879 1304.390622 1303.872047 1306.626190 1308.075874
72.540000 1299.866836 1302.553291 1305.811943 1305.422884 1308.145569 1309.338362
72.640000 1301.154778 1304.010701 1307.329509 1306.869809 1309.464892 1310.540317
72.715000 1302.379505 1304.909526 1308.195463 1307.788394 1310.430336 1311.584936
72.790000 1303.489962 1305.973558 1308.842532 1308.665788 1311.342343 1312.502739
72.865000 1304.986920 1307.073770 1309.727640 1309.555758 1312.183787 1313.422500
72.940000 1306.337289 1308.005053 1310.501254 1310.406237 1312.887410 1314.105358
73.015000 1307.292697 1308.855900 1311.287527 1311.211998 1313.566787 1314.783570
73.090000 1308.227772 1309.724690 1312.180802 1312.011792 1314.261673 1315.423942
73.165000 1308.890351 1310.634773 1312.949341 1312.796931 1314.898225 1315.946863
73.240000 1309.821011 1311.485042 1313.748303 1313.565163 1315.503296 1316.478831
73.315000 1310.633943 1312.500464 1314.456431 1314.306732 1316.091897 1317.155129
73.390000 1311.511883 1313.518756 1315.170228 1315.051442 1316.690843 1317.696518
73.465000 1312.494222 1314.412154 1315.825097 1315.740460 1317.224942 1318.124924
73.540000 1313.298359 1315.238425 1316.478795 1316.418553 1317.771847 1318.738824
73.615000 1313.974602 1315.846919 1317.070752 1317.025255 1318.301556 1319.340397
73.690000 1314.754279 1316.571029 1317.668732 1317.635517 1318.857310 1319.820346
73.790000 1315.752839 1317.333991 1318.447920 1318.396474 1319.597145 1320.478928
73.890000 1316.780020 1318.109474 1319.174869 1319.141064 1320.310592 1321.250006
