depth(m) lower_95(kyr) lower_68(kyr) median(kyr) mean(kyr) upper_68(kyr) upper_95(kyr)
419.110000 1409.070253 1409.657189 1410.151522 1410.246148 1410.948651 1411.447987
419.220000 1409.294268 1409.874055 1410.344778 1410.448574 1411.129671 1411.584459
419.325000 1409.547205 1410.069656 1410.520835 1410.633414 1411.313939 1411.757163
419.430000 1409.797680 1410.255786 1410.690404 1410.819080 1411.515194 1411.966016
419.540000 1409.983413 1410.440923 1410.872968 1411.001317 1411.703083 1412.159227
419.670000 1410.242946 1410.631025 1411.069747 1411.209693 1411.891540 1412.421782
419.800000 1410.469751 1410.831356 1411.260974 1411.416342 1412.092787 1412.609789
419.910000 1410.683127 1410.992080 1411.448392 1411.594623 1412.277785 1412.765228
420.050000 1410.903451 1411.215351 1411.648379 1411.804608 1412.503127 1412.970096
420.190000 1411.087257 1411.419624 1411.841723 1412.017609 1412.737071 1413.225436
420.300000 1411.246574 1411.584451 1412.027623 1412.188225 1412.886456 1413.428000
420.420000 1411.413872 1411.760240 1412.208314 1412.374234 1413.093347 1413.614900
420.540000 1411.583127 1411.911984 1412.400386 1412.558755 1413.295921 1413.830266
420.670000 1411.779744 1412.110632 1412.578887 1412.761427 1413.499043 1414.051787
420.780000 1411.940687 1412.269442 1412.773267 1412.940618 1413.709834 1414.263157
420.920000 1412.174650 1412.484792 1413.036748 1413.168966 1413.943774 1414.541915
421.050000 1412.365264 1412.688985 1413.268753 1413.400050 1414.211597 1414.855714
421.170000 1412.514592 1412.880482 1413.487086 1413.615697 1414.427446 1415.094408
421.290000 1412.696956 1413.072668 1413.718085 1413.852462 1414.712203 1415.371830
421.420000 1412.911733 1413.312679 1414.020736 1414.135217 1415.036502 1415.724236
421.560000 1413.127915 1413.578955 1414.381587 1414.470831 1415.405327 1416.080342
421.690000 1413.365512 1413.887874 1414.775113 1414.812306 1415.748413 1416.497443
421.800000 1413.629042 1414.149906 1415.135266 1415.131422 1416.068665 1416.823924
421.900000 1413.826861 1414.489849 1415.466924 1415.452689 1416.374884 1417.115261
422.030000 1414.288878 1415.032605 1416.071363 1415.997428 1416.856091 1417.598350
422.160000 1414.792511 1415.664941 1416.612687 1416.509882 1417.275771 1417.967393
422.290000 1415.205596 1416.206569 1417.059979 1416.971909 1417.717233 1418.326924
422.410000 1415.586613 1416.655017 1417.463937 1417.376645 1418.114301 1418.679541
422.520000 1415.872379 1417.088572 1417.875867 1417.779632 1418.506300 1419.055223
422.640000 1416.343419 1417.749384 1418.466043 1418.397087 1419.089550 1419.860493
422.725000 1416.618983 1418.028782 1418.732272 1418.671302 1419.356121 1420.082958
422.810000 1416.980955 1418.362937 1419.007932 1418.962211 1419.621125 1420.406111
422.920000 1417.853246 1418.689998 1419.317895 1419.311377 1419.951876 1420.696868
423.040000 1418.515979 1419.094632 1419.680288 1419.687459 1420.302860 1421.012952
423.160000 1418.965520 1419.457346 1420.024081 1420.046381 1420.612451 1421.261723
423.300000 1419.335974 1419.889206 1420.425772 1420.442869 1421.022980 1421.661640
423.410000 1419.610461 1420.164530 1420.674941 1420.715968 1421.311024 1421.861442
423.530000 1419.961093 1420.442616 1420.974203 1421.008969 1421.616674 1422.167669
423.660000 1420.235313 1420.720207 1421.253480 1421.303954 1421.897164 1422.473242
423.770000 1420.528436 1420.951522 1421.519716 1421.542830 1422.133620 1422.694507
423.910000 1420.790802 1421.251981 1421.841413 1421.836053 1422.413326 1422.974237
424.040000 1421.025697 1421.486732 1422.105730 1422.093004 1422.665224 1423.188886
424.180000 1421.327002 1421.776156 1422.409349 1422.373155 1422.913214 1423.447056
424.310000 1421.628211 1422.047319 1422.656468 1422.634303 1423.156791 1423.696645
424.420000 1421.855014 1422.297199 1422.882016 1422.850222 1423.341650 1423.890666
424.550000 1422.109019 1422.536267 1423.111543 1423.094749 1423.568340 1424.084702
424.660000 1422.324760 1422.791673 1423.308829 1423.302113 1423.761889 1424.329687
424.800000 1422.531001 1423.097905 1423.558688 1423.562505 1423.998205 1424.562025
424.850000 1422.657301 1423.216286 1423.651618 1423.656505 1424.084994 1424.641940
424.910000 1422.789283 1423.339397 1423.757987 1423.769524 1424.183332 1424.718479
424.960000 1422.940051 1423.464759 1423.846473 1423.867527 1424.274541 1424.832037
425.030000 1423.124719 1423.609972 1423.975853 1424.003619 1424.400023 1424.970298
425.070000 1423.198860 1423.701084 1424.047627 1424.081854 1424.468505 1425.038026
425.120000 1423.303426 1423.822670 1424.127915 1424.177997 1424.572255 1425.177044
425.150000 1423.362832 1423.881639 1424.179851 1424.234938 1424.612664 1425.226021
425.200000 1423.459295 1423.979958 1424.274232 1424.328598 1424.743407 1425.338552
425.260000 1423.572734 1424.095377 1424.388753 1424.441526 1424.885895 1425.453583
425.290000 1423.636680 1424.165275 1424.444212 1424.498227 1424.933132 1425.517382
425.330000 1423.717735 1424.247124 1424.525989 1424.573084 1424.991735 1425.620418
425.380000 1423.807511 1424.344306 1424.621562 1424.665115 1425.066765 1425.717439
425.400000 1423.851592 1424.387475 1424.662236 1424.704161 1425.122667 1425.757117
425.440000 1423.921110 1424.462039 1424.741463 1424.781710 1425.207611 1425.809204
425.490000 1424.032610 1424.553763 1424.835108 1424.881436 1425.302182 1425.896489
425.550000 1424.152535 1424.661534 1424.963251 1425.000245 1425.414684 1426.009074
425.590000 1424.236362 1424.729154 1425.044595 1425.079203 1425.499499 1426.097135
425.610000 1424.291163 1424.760894 1425.086303 1425.121729 1425.542393 1426.131960
425.640000 1424.350621 1424.825478 1425.160165 1425.184323 1425.599610 1426.190688
425.670000 1424.418916 1424.881734 1425.226270 1425.246637 1425.660864 1426.247382
425.680000 1424.431460 1424.901685 1425.245013 1425.266988 1425.678874 1426.262581
425.730000 1424.536134 1425.003540 1425.352219 1425.372400 1425.779061 1426.344345
425.750000 1424.580460 1425.043470 1425.396898 1425.414762 1425.811791 1426.375099
425.790000 1424.665896 1425.122753 1425.492027 1425.499052 1425.882672 1426.445751
425.840000 1424.780197 1425.227886 1425.595002 1425.604353 1425.973255 1426.534644
425.880000 1424.848210 1425.301346 1425.669139 1425.685486 1426.037341 1426.597096
425.920000 1424.922111 1425.374463 1425.748476 1425.765261 1426.116505 1426.665653
425.960000 1425.019669 1425.442230 1425.832978 1425.843889 1426.193465 1426.728171
425.980000 1425.043034 1425.484216 1425.870345 1425.883519 1426.230521 1426.771236
426.040000 1425.215653 1425.590033 1425.991446 1426.003994 1426.384518 1426.864854
426.090000 1425.330407 1425.697006 1426.085980 1426.103548 1426.503865 1426.948085
426.120000 1425.394130 1425.756416 1426.143669 1426.164462 1426.567171 1426.991220
426.190000 1425.572318 1425.886309 1426.264610 1426.300139 1426.722938 1427.143171
426.240000 1425.667102 1425.973632 1426.355372 1426.395372 1426.835097 1427.273290
426.280000 1425.734560 1426.052281 1426.437981 1426.473112 1426.912329 1427.357731
426.320000 1425.801760 1426.123968 1426.523707 1426.550286 1426.996529 1427.403737
426.380000 1425.914400 1426.247513 1426.649633 1426.664825 1427.122046 1427.508625
426.470000 1426.102656 1426.441780 1426.818966 1426.841069 1427.303828 1427.687889
426.510000 1426.184545 1426.530719 1426.899109 1426.920699 1427.387468 1427.753067
426.550000 1426.238140 1426.616103 1426.981062 1426.999618 1427.470045 1427.835404
426.650000 1426.440650 1426.795055 1427.169792 1427.191311 1427.661735 1428.016080
426.710000 1426.544915 1426.901746 1427.287825 1427.307584 1427.777751 1428.117656
426.760000 1426.628294 1426.994882 1427.382295 1427.404174 1427.870246 1428.215333
426.800000 1426.699189 1427.065965 1427.461344 1427.483164 1427.944729 1428.281770
426.880000 1426.878181 1427.226548 1427.618018 1427.638854 1428.094169 1428.406666
426.930000 1426.983465 1427.321741 1427.701528 1427.739833 1428.183015 1428.488759
426.990000 1427.089558 1427.441346 1427.813355 1427.857511 1428.278581 1428.600667
427.060000 1427.248297 1427.578115 1427.948406 1427.989523 1428.402585 1428.733799
427.130000 1427.395362 1427.723083 1428.094113 1428.120144 1428.542742 1428.843573
427.200000 1427.522504 1427.865631 1428.241513 1428.255419 1428.674270 1428.965045
427.260000 1427.600721 1427.969934 1428.364013 1428.367897 1428.795943 1429.084872
427.320000 1427.719412 1428.093550 1428.490335 1428.483335 1428.912255 1429.219827
427.390000 1427.836301 1428.229859 1428.627305 1428.613290 1429.019621 1429.335778
427.460000 1427.985694 1428.340997 1428.747002 1428.738419 1429.134773 1429.442149
427.500000 1428.034713 1428.408211 1428.827982 1428.814037 1429.216765 1429.519848
427.570000 1428.168064 1428.540810 1428.959209 1428.946382 1429.339439 1429.643368
427.640000 1428.307022 1428.669548 1429.090289 1429.073753 1429.468545 1429.770839
427.700000 1428.413164 1428.793547 1429.201679 1429.185905 1429.561977 1429.905241
427.760000 1428.547081 1428.918386 1429.317135 1429.301199 1429.686665 1430.019096
427.800000 1428.612010 1428.990306 1429.396106 1429.377802 1429.765639 1430.072235
427.880000 1428.737521 1429.147878 1429.537062 1429.533377 1429.920648 1430.209477
427.940000 1428.869644 1429.266832 1429.679982 1429.657970 1430.058487 1430.360119
428.020000 1428.991651 1429.436107 1429.861156 1429.833670 1430.230832 1430.573761
428.080000 1429.109915 1429.548243 1429.988318 1429.960316 1430.356322 1430.711975
428.140000 1429.216864 1429.671681 1430.127305 1430.094538 1430.495889 1430.878663
428.170000 1429.263505 1429.737304 1430.197267 1430.161460 1430.561695 1430.935273
428.250000 1429.414207 1429.903443 1430.385699 1430.349636 1430.779837 1431.119440
428.300000 1429.498341 1430.009932 1430.511170 1430.468834 1430.904574 1431.252016
428.390000 1429.687418 1430.205208 1430.751073 1430.706896 1431.158532 1431.595321
428.430000 1429.793375 1430.290987 1430.850979 1430.802452 1431.280763 1431.715670
428.510000 1429.986520 1430.497269 1431.041061 1431.015350 1431.520983 1431.945432
428.560000 1430.080949 1430.615102 1431.172644 1431.148363 1431.658852 1432.095151
428.660000 1430.285094 1430.894776 1431.463823 1431.457390 1431.990601 1432.599021
428.700000 1430.382366 1430.991883 1431.581832 1431.571835 1432.130490 1432.758936
428.770000 1430.625255 1431.294302 1432.028840 1432.062767 1432.909935 1433.702622
428.840000 1431.691526 1432.420439 1433.188249 1433.133840 1433.864106 1434.401916
428.890000 1431.898741 1432.652998 1433.413926 1433.341397 1434.004844 1434.541111
428.960000 1432.575383 1433.124635 1433.728430 1433.687015 1434.208661 1434.768273
429.010000 1432.794241 1433.276624 1433.904116 1433.835795 1434.341747 1434.886107
429.090000 1433.029474 1433.525221 1434.173505 1434.085985 1434.534130 1435.070546
429.140000 1433.152947 1433.654711 1434.310489 1434.213599 1434.649562 1435.181829
429.160000 1433.194473 1433.700998 1434.358480 1434.259158 1434.699683 1435.212522
429.200000 1433.305902 1433.803437 1434.446883 1434.353570 1434.791054 1435.311009
429.260000 1433.459154 1433.955146 1434.590106 1434.499285 1434.940640 1435.407819
429.300000 1433.552393 1434.042670 1434.670612 1434.592751 1435.034684 1435.480532
429.360000 1433.696088 1434.190897 1434.814023 1434.735404 1435.209741 1435.566863
429.440000 1433.942007 1434.378776 1435.003431 1434.928438 1435.399877 1435.696099
429.500000 1434.035399 1434.524561 1435.136592 1435.065415 1435.543235 1435.831878
429.550000 1434.160358 1434.658482 1435.245564 1435.182811 1435.663485 1435.947409
429.650000 1434.363402 1434.905402 1435.503100 1435.416010 1435.867002 1436.104069
429.700000 1434.506140 1435.011518 1435.631402 1435.530663 1435.985535 1436.206414
429.760000 1434.642044 1435.156012 1435.766038 1435.662436 1436.110992 1436.306145
429.780000 1434.682311 1435.199117 1435.811507 1435.704278 1436.149101 1436.354755
429.890000 1434.899488 1435.437566 1436.052393 1435.938885 1436.350119 1436.548309
429.940000 1434.990221 1435.546633 1436.154448 1436.042910 1436.446261 1436.653196
430.000000 1435.130677 1435.683593 1436.281078 1436.166622 1436.553615 1436.766100
430.060000 1435.292757 1435.819365 1436.403616 1436.289481 1436.679198 1436.862866
430.150000 1435.480817 1436.015329 1436.600413 1436.477307 1436.833604 1437.034150
430.190000 1435.585941 1436.106096 1436.676171 1436.562174 1436.923469 1437.129224
430.260000 1435.734895 1436.305157 1436.829282 1436.713291 1437.062016 1437.271049
430.340000 1435.873383 1436.525316 1436.997514 1436.886042 1437.212796 1437.411497
430.390000 1435.982744 1436.652584 1437.111200 1436.992004 1437.300689 1437.478266
430.420000 1436.050660 1436.724833 1437.182963 1437.057649 1437.359186 1437.531475
430.480000 1436.170879 1436.881560 1437.325701 1437.187587 1437.480027 1437.621906
430.490000 1436.200756 1436.897982 1437.345831 1437.209826 1437.502233 1437.646239
430.560000 1436.315588 1437.095769 1437.497698 1437.369630 1437.640422 1437.768473
430.590000 1436.369608 1437.172604 1437.562477 1437.436499 1437.705944 1437.840240
430.630000 1436.454603 1437.285145 1437.647860 1437.524270 1437.789599 1437.902648
430.640000 1436.481102 1437.310466 1437.669777 1437.546009 1437.812544 1437.923684
430.700000 1436.599462 1437.511266 1437.796260 1437.684458 1437.921769 1438.044509
430.740000 1436.672139 1437.609976 1437.882716 1437.771658 1438.001655 1438.128676
430.760000 1436.710315 1437.661987 1437.929484 1437.814391 1438.039496 1438.159434
430.790000 1436.785208 1437.739148 1437.984624 1437.878749 1438.102839 1438.228878
430.820000 1436.853746 1437.811147 1438.042782 1437.938840 1438.160834 1438.294751
430.840000 1436.884443 1437.850414 1438.081331 1437.978506 1438.201009 1438.325787
430.870000 1436.939258 1437.909173 1438.138086 1438.038216 1438.256398 1438.390256
430.900000 1437.013885 1437.968730 1438.192824 1438.099441 1438.311678 1438.447116
430.940000 1437.140481 1438.067573 1438.261549 1438.181807 1438.385560 1438.542332
430.960000 1437.184261 1438.111122 1438.295569 1438.221480 1438.429224 1438.572632
431.000000 1437.291764 1438.197294 1438.365203 1438.300643 1438.506716 1438.681637
431.040000 1437.386222 1438.278339 1438.434446 1438.379454 1438.575467 1438.749079
431.080000 1437.508347 1438.366670 1438.502393 1438.460114 1438.645124 1438.843962
431.140000 1437.737202 1438.472556 1438.604236 1438.581853 1438.747815 1439.016242
431.150000 1437.758951 1438.489357 1438.623138 1438.601238 1438.775005 1439.041672
431.190000 1437.880968 1438.561225 1438.703108 1438.678418 1438.846301 1439.136075
431.220000 1437.941238 1438.614266 1438.760298 1438.735972 1438.900168 1439.209271
431.270000 1438.186834 1438.693732 1438.845688 1438.837073 1438.985364 1439.310706
431.320000 1438.424366 1438.792801 1438.941491 1438.937322 1439.069050 1439.453673
431.360000 1438.571805 1438.869228 1439.010459 1439.016599 1439.138073 1439.536649
431.380000 1438.605532 1438.908132 1439.045144 1439.055617 1439.177517 1439.587176
431.410000 1438.704036 1438.965654 1439.098871 1439.115032 1439.231339 1439.658184
431.430000 1438.775046 1439.008856 1439.134424 1439.154843 1439.270559 1439.709683
431.460000 1438.847420 1439.075843 1439.189000 1439.215193 1439.332759 1439.780838
431.500000 1438.988414 1439.155501 1439.257185 1439.298155 1439.422060 1439.894989
431.520000 1439.033404 1439.191771 1439.295438 1439.337951 1439.465401 1439.938732
431.560000 1439.115248 1439.270908 1439.372060 1439.418850 1439.546666 1440.033204
431.600000 1439.214826 1439.341123 1439.449146 1439.501721 1439.633265 1440.111211
431.630000 1439.290324 1439.403132 1439.515692 1439.565093 1439.693485 1440.181014
431.640000 1439.305172 1439.422334 1439.536210 1439.585881 1439.717884 1440.196251
431.680000 1439.387972 1439.504739 1439.619158 1439.672525 1439.818971 1440.268500
431.700000 1439.440707 1439.544855 1439.664301 1439.715199 1439.872971 1440.308205
431.740000 1439.509666 1439.630624 1439.758036 1439.805953 1439.977604 1440.361723
431.770000 1439.557698 1439.691960 1439.830620 1439.873280 1440.049312 1440.433494
431.800000 1439.607981 1439.751908 1439.898478 1439.940618 1440.118933 1440.482364
431.810000 1439.624709 1439.770393 1439.925239 1439.962933 1440.139821 1440.507372
431.860000 1439.718311 1439.869014 1440.032608 1440.072489 1440.270839 1440.592129
431.880000 1439.752308 1439.909867 1440.083476 1440.117507 1440.336904 1440.648690
431.920000 1439.836539 1439.994546 1440.176452 1440.211606 1440.466679 1440.741986
431.970000 1439.931901 1440.088892 1440.295634 1440.328576 1440.596807 1440.845676
432.030000 1440.020722 1440.206626 1440.451850 1440.479076 1440.771348 1441.028875
432.080000 1440.109461 1440.326036 1440.591254 1440.612137 1440.901951 1441.193171
432.160000 1440.267057 1440.530148 1440.826411 1440.847918 1441.127907 1441.515155
432.220000 1440.384670 1440.732882 1441.002880 1441.016415 1441.285861 1441.749073
432.260000 1440.447380 1440.855921 1441.114078 1441.125606 1441.382873 1441.875079
432.280000 1440.486270 1440.912853 1441.161682 1441.174076 1441.428956 1441.931499
432.320000 1440.559333 1441.010077 1441.282236 1441.271955 1441.516040 1442.088525
432.340000 1440.599453 1441.051322 1441.327684 1441.315487 1441.560633 1442.131957
432.360000 1440.639669 1441.097297 1441.375534 1441.358940 1441.599117 1442.177957
432.390000 1440.689877 1441.162716 1441.452754 1441.423253 1441.655124 1442.256603
432.440000 1440.767903 1441.259724 1441.571128 1441.532489 1441.751728 1442.382036
432.450000 1440.788181 1441.273001 1441.587418 1441.553419 1441.768288 1442.425812
432.480000 1440.831925 1441.332490 1441.653120 1441.616142 1441.830394 1442.514883
432.500000 1440.870124 1441.370099 1441.688764 1441.656882 1441.873772 1442.557483
432.510000 1440.893060 1441.391051 1441.710515 1441.677889 1441.897014 1442.577773
432.570000 1441.010300 1441.506186 1441.829627 1441.816964 1442.056661 1442.812170
432.630000 1441.128483 1441.619189 1441.939709 1441.954629 1442.217645 1443.036505
432.710000 1441.282618 1441.779462 1442.099668 1442.165382 1442.491903 1443.656831
432.770000 1441.374364 1441.904058 1442.221558 1442.315161 1442.684004 1443.960537
432.830000 1441.500535 1442.030196 1442.352622 1442.459309 1442.892994 1444.056349
432.890000 1441.631267 1442.147517 1442.479069 1442.605187 1443.118028 1444.266436
432.950000 1441.760710 1442.296747 1442.621949 1442.764357 1443.318256 1444.402752
433.010000 1441.871230 1442.417695 1442.778487 1442.932999 1443.570175 1444.642851
433.130000 1442.138847 1442.709729 1443.250568 1443.619600 1444.801240 1446.402963
433.210000 1442.338040 1442.891789 1443.541175 1443.912977 1445.181304 1446.652383
433.340000 1442.773871 1443.332073 1444.934214 1444.901079 1446.365522 1447.102538
433.455000 1443.181808 1444.303966 1446.200817 1445.836143 1446.991180 1447.502366
433.570000 1445.124592 1446.219089 1446.885767 1446.804629 1447.422855 1447.882352
433.630000 1445.574991 1446.458657 1447.068833 1447.003933 1447.572781 1448.031272
433.690000 1445.863063 1446.721792 1447.249068 1447.185534 1447.718474 1448.127646
433.750000 1446.110875 1446.894986 1447.401859 1447.347880 1447.866431 1448.249275
433.810000 1446.234162 1447.075631 1447.558106 1447.500100 1448.007923 1448.375803
433.870000 1446.388688 1447.228135 1447.706874 1447.653356 1448.155821 1448.524449
433.930000 1446.524590 1447.362710 1447.876312 1447.805617 1448.297679 1448.662894
433.990000 1446.637340 1447.530154 1448.036403 1447.967033 1448.461632 1448.820165
434.030000 1446.737148 1447.625810 1448.131516 1448.066664 1448.567780 1448.901702
434.080000 1446.921237 1447.759320 1448.254934 1448.194853 1448.675086 1449.001100
434.140000 1447.042034 1447.944429 1448.428021 1448.359139 1448.849326 1449.151309
434.190000 1447.208229 1448.074204 1448.562041 1448.496194 1448.968417 1449.300040
434.250000 1447.476895 1448.243497 1448.735551 1448.678124 1449.148342 1449.594512
434.330000 1447.719941 1448.480948 1449.011132 1448.955775 1449.399477 1450.007564
434.390000 1447.888146 1448.634497 1449.180799 1449.128851 1449.594463 1450.193724
