depth(m) lower_95(kyr) lower_68(kyr) median(kyr) mean(kyr) upper_68(kyr) upper_95(kyr)
0.150000 0.484878 1.245744 1.991723 1.975505 2.670691 3.399662
0.200000 1.664135 2.472847 3.283626 3.285809 4.088539 5.028616
0.250000 2.860662 3.659129 4.586798 4.615618 5.580048 6.631077
0.300000 4.091317 4.996578 6.079209 6.098575 7.193153 8.215499
0.350000 5.444627 6.691890 7.781982 7.770969 8.963024 9.936836
0.400000 7.597748 8.860443 9.935567 9.950386 11.106016 12.174124
0.450000 9.189482 10.493729 11.511428 11.506718 12.569216 13.723429
0.500000 11.550587 12.375787 13.325581 13.311673 14.219839 15.232768
0.550000 13.191371 14.007267 14.883362 14.895810 15.784399 16.728138
0.600000 14.626928 15.352355 16.155097 16.229442 17.117926 18.327624
0.650000 15.695366 16.525975 17.250396 17.358876 18.175223 19.872393
0.700000 16.958440 17.844521 18.751628 18.882515 19.948346 21.582064
0.750000 18.263673 19.226761 20.331518 20.402847 21.506738 23.274374
0.800000 19.477011 20.527654 21.867709 21.925767 23.171441 24.825111
0.850000 20.690358 22.084455 23.508852 23.483791 24.900929 26.347456
0.900000 22.001151 23.392577 24.783117 24.824221 26.313061 27.751047
0.950000 23.407756 24.730397 26.213886 26.212429 27.665863 28.991535
1.000000 24.646305 26.173510 27.673021 27.615449 29.019452 30.549991
1.050000 25.954645 27.560722 29.041861 29.034807 30.390687 32.465829
1.100000 27.433200 28.866931 30.217171 30.331697 31.815621 34.075182
1.150000 28.608294 30.069810 31.358711 31.573838 33.083156 35.779536
1.200000 29.893841 31.223580 32.423981 32.779451 34.425947 37.315608
1.250000 31.212310 32.276837 33.499591 33.928484 35.705736 39.242067
1.300000 32.235335 33.300880 34.549250 35.074153 36.968605 40.768639
1.350000 33.273326 34.318686 35.589732 36.223806 38.268888 42.494021
1.400000 34.316652 35.446047 36.777225 37.397784 39.551855 43.826097
1.450000 35.392283 36.528168 37.923071 38.623589 40.897068 45.686607
1.500000 36.503465 37.674490 39.167155 39.824995 41.993188 47.025013
1.550000 37.667007 38.793846 40.415553 41.115909 43.274427 48.619543
1.600000 38.650801 39.897875 41.685856 42.441938 45.459042 49.494604
1.650000 39.779067 41.120442 42.955317 43.873016 47.599931 50.781124
1.700000 41.093704 42.436178 44.459619 45.472534 49.340125 51.909110
1.750000 42.435628 43.664092 46.134889 47.049326 50.838357 52.977886
1.800000 43.838048 45.173522 48.142395 48.680534 52.463453 54.423258
1.850000 45.000325 46.495302 50.553616 50.263647 53.820548 55.759223
1.900000 46.328453 48.313637 52.258609 51.876134 55.153245 57.031820
1.950000 47.844070 50.485259 53.766085 53.532070 56.498086 58.269639
2.000000 50.575564 52.495138 55.199164 55.137277 57.839317 59.441717
2.050000 52.351490 54.133256 56.748952 56.582675 59.077032 60.478242
2.100000 53.732247 55.869760 58.164857 57.996607 60.172586 61.463934
2.150000 55.739665 57.618085 59.654522 59.485699 61.311037 62.503453
2.200000 57.430686 59.458463 61.153610 60.985607 62.524837 63.376231
2.250000 59.289818 61.402696 62.728351 62.576937 63.819826 64.661540
2.300000 61.538197 62.998221 64.115577 64.038482 65.105100 66.048683
2.350000 63.122250 64.360065 65.387030 65.324975 66.255649 67.199201
2.400000 64.543589 65.576386 66.551643 66.548003 67.478836 68.523042
2.450000 65.918243 66.857702 67.854058 67.896812 68.938614 70.247092
2.500000 67.313855 68.336213 69.322080 69.490048 70.716719 72.182696
2.550000 69.163322 70.122009 71.377896 71.544385 73.013708 74.806987
2.600000 71.055941 72.252051 73.775174 73.873349 75.561618 76.990195
2.650000 72.586691 74.000472 75.757690 75.715471 77.401030 78.678077
2.700000 74.423693 75.906901 77.611585 77.496471 79.029898 80.379565
2.750000 76.112499 77.923996 79.396505 79.298607 80.697221 81.942547
2.800000 78.018992 79.700143 81.004417 80.973914 82.318531 83.786657
2.850000 80.069296 81.412260 82.747554 82.742640 83.978093 85.480157
2.900000 81.501111 82.978481 84.280397 84.361706 85.743626 87.519371
2.950000 83.220193 84.551728 86.013377 86.089154 87.674369 89.539467
3.000000 84.974736 86.416497 88.016454 88.075485 89.749664 91.408211
3.050000 86.802390 88.324167 89.984999 89.960808 91.592663 92.758854
3.100000 88.605619 90.499439 92.043203 91.907742 93.297699 94.345352
3.150000 90.644686 92.590100 93.962757 93.818194 95.014911 96.407955
3.200000 92.847427 94.468149 95.796037 95.798746 97.167370 98.650859
3.250000 94.349687 95.894908 97.374097 97.373816 98.952913 100.318478
3.300000 95.546768 97.139023 98.841478 98.823241 100.491619 101.996733
3.350000 96.931614 98.504054 100.265271 100.224811 101.970181 103.382338
3.400000 98.467312 100.006499 101.787693 101.681952 103.342959 104.822499
3.450000 99.914034 101.616497 103.254703 103.195645 104.830780 106.318564
3.500000 101.468219 103.297973 104.847545 104.858218 106.462651 108.011697
3.550000 103.325207 104.829736 106.492136 106.474674 108.108644 109.613629
3.600000 105.054685 106.588023 108.282463 108.232459 109.875727 111.110013
3.650000 106.737867 108.395286 110.091597 109.972911 111.559624 112.622626
3.700000 108.543066 110.386247 111.921470 111.772563 113.155633 114.190161
3.750000 111.081603 112.502256 113.800247 113.721301 115.024239 116.149008
3.800000 114.396018 115.350002 116.389125 116.469375 117.601827 119.169471
3.850000 116.023255 117.109905 118.133379 118.214350 119.259179 121.040233
3.900000 117.661763 118.903936 120.035960 120.259397 121.605459 124.063663
3.950000 119.011598 120.493645 122.262250 122.626184 125.200655 127.275843
4.000000 120.208464 121.965354 124.746326 124.872129 127.925706 129.475420
4.050000 121.811499 123.973749 126.761906 126.600187 129.131290 130.625745
4.100000 123.478342 126.643926 128.786637 128.534169 130.598979 131.753232
4.150000 125.708604 128.552661 130.674463 130.422064 132.245226 133.351199
4.200000 131.063409 132.433246 133.707871 133.595069 134.738072 135.592911
4.250000 133.534972 134.620455 135.650070 135.559102 136.490796 137.370375
4.300000 135.190470 136.065900 136.944691 136.925602 137.754747 138.584278
4.350000 136.590836 137.364908 138.183712 138.196715 139.033504 139.863707
4.400000 137.709954 138.466254 139.302820 139.326327 140.199981 141.117741
4.450000 138.775548 139.513844 140.364190 140.383964 141.240279 142.232269
4.500000 139.820932 140.572685 141.415004 141.456631 142.334814 143.353165
4.550000 140.958705 141.725641 142.540242 142.603845 143.546423 144.613454
4.600000 142.036560 142.796104 143.688498 143.778777 144.749197 145.986638
4.650000 143.018576 143.847945 144.822500 144.932807 146.004163 147.537229
4.700000 143.980437 144.887953 145.940459 146.046595 147.212334 148.753029
4.750000 144.961143 145.852683 147.007402 147.086744 148.297753 149.880293
4.800000 145.877974 146.858065 148.040017 148.118664 149.417921 150.943928
4.850000 146.787369 147.752859 149.040614 149.128101 150.506340 151.979406
4.900000 147.654326 148.661009 150.018456 150.119064 151.558023 153.053618
4.950000 148.711036 149.589549 150.982674 151.083723 152.482198 154.303115
5.000000 149.592014 150.634384 152.032976 152.121154 153.568972 155.334590
5.050000 150.660487 151.763850 153.116233 153.262113 154.700311 156.541933
