depth(m) lower_95(kyr) lower_68(kyr) median(kyr) mean(kyr) upper_68(kyr) upper_95(kyr)
0.050000 0.091661 0.306742 0.837776 0.878398 1.390935 2.004223
0.100000 0.290617 0.558670 1.077646 1.111143 1.662819 2.240959
0.150000 0.465816 0.751554 1.284416 1.330982 1.886761 2.514006
0.200000 0.625307 0.963014 1.524814 1.551308 2.090661 2.801932
0.250000 0.813370 1.144441 1.746459 1.778178 2.357930 3.024890
0.300000 1.002636 1.374329 1.971080 2.000485 2.597539 3.292530
0.350000 1.181559 1.608108 2.205271 2.225342 2.832048 3.504521
0.450000 1.566874 2.055102 2.658417 2.665827 3.297189 3.860747
0.500000 1.750699 2.264507 2.879801 2.890272 3.528928 4.081274
0.550000 1.941299 2.490293 3.124780 3.118168 3.759131 4.270968
0.600000 2.131015 2.725988 3.356973 3.344640 3.995556 4.462425
0.650000 2.372232 2.966699 3.598877 3.576329 4.224397 4.645265
0.700000 2.566490 3.203328 3.826514 3.807577 4.459436 4.834602
0.750000 2.766935 3.446912 4.042912 4.031851 4.666862 5.081815
0.800000 2.998801 3.658751 4.292208 4.252461 4.870806 5.271733
0.850000 3.243962 3.901072 4.513760 4.474134 5.078314 5.456983
0.900000 3.450094 4.113897 4.696846 4.689208 5.280983 5.639992
0.950000 3.693478 4.347619 4.929324 4.910147 5.492205 5.811724
1.000000 3.895354 4.569755 5.144862 5.119314 5.679020 6.037939
1.050000 4.109771 4.807512 5.372581 5.343717 5.885060 6.270448
1.100000 4.403263 5.037989 5.594026 5.562518 6.089491 6.465177
1.150000 4.602505 5.299691 5.818824 5.787572 6.308760 6.698413
1.200000 4.862457 5.503304 6.034964 6.008677 6.515838 6.891569
1.250000 5.119088 5.749675 6.263597 6.228281 6.724094 7.153209
1.300000 5.321638 5.973873 6.466354 6.454686 6.964187 7.401984
1.350000 5.573413 6.197158 6.702249 6.680694 7.188184 7.633004
1.400000 5.810084 6.402784 6.931013 6.911484 7.416206 7.864491
1.450000 6.064004 6.627917 7.172444 7.147517 7.672133 8.124185
1.550000 6.500189 7.079708 7.643662 7.606666 8.138957 8.611884
1.600000 6.765030 7.294302 7.896117 7.859553 8.405265 8.873136
1.650000 7.019711 7.530527 8.146151 8.121171 8.687971 9.137707
1.700000 7.225526 7.816052 8.430257 8.403746 8.996493 9.460595
1.750000 7.531714 8.102166 8.735948 8.707111 9.304855 9.837876
1.800000 7.838880 8.433919 9.082563 9.047196 9.658850 10.145607
1.850000 8.221158 8.841995 9.444706 9.427166 10.023203 10.539269
1.900000 8.718873 9.349979 9.919947 9.914926 10.479167 11.039149
1.950000 9.038603 9.724986 10.308961 10.286826 10.856006 11.356125
2.000000 9.579801 10.161764 10.695123 10.707633 11.275852 11.745565
2.050000 9.995444 10.614858 11.110417 11.126870 11.652807 12.209109
2.100000 10.419518 10.963551 11.506379 11.491968 12.009086 12.489548
2.150000 10.746867 11.275635 11.797981 11.792733 12.305732 12.797721
2.200000 11.029533 11.561996 12.085994 12.070922 12.570351 13.019627
2.250000 11.358133 11.834899 12.355068 12.336607 12.835377 13.245170
2.300000 11.605095 12.057887 12.582944 12.581341 13.113879 13.520428
2.350000 11.851472 12.294155 12.820356 12.815370 13.335973 13.755572
2.400000 12.083701 12.534883 13.075764 13.061117 13.577306 13.987068
2.450000 12.361914 12.801674 13.324982 13.326132 13.826323 14.235588
2.500000 12.654132 13.057503 13.645129 13.602309 14.068300 14.523989
2.550000 12.885736 13.360376 13.940012 13.895509 14.375324 14.828592
2.600000 13.273970 13.741316 14.267049 14.253791 14.747095 15.215018
2.650000 13.570416 14.107078 14.584431 14.597631 15.124352 15.561303
2.700000 13.927669 14.441199 14.955101 14.971965 15.508274 16.033018
2.750000 14.310419 14.818668 15.386135 15.410283 15.946772 16.566034
2.800000 14.724332 15.296117 15.832980 16.105731 16.527344 22.143078
2.850000 15.102454 15.650769 16.238620 16.653281 17.021477 22.952297
2.900000 15.411299 15.951996 16.576827 17.012236 17.395042 23.199686
2.950000 15.723910 16.248760 16.866817 17.310112 17.689220 23.479876
3.020000 16.078817 16.706260 17.373825 17.927886 18.360754 23.858496
3.150000 17.462701 21.752641 23.179276 22.831517 24.298976 24.988125
3.200000 17.704918 22.290741 23.490813 23.229343 24.577937 25.263730
3.250000 18.227614 22.582218 23.775510 23.561026 24.845160 25.472449
3.300000 18.594357 22.863574 24.020912 23.850834 25.124850 25.683561
3.350000 19.146836 23.187779 24.273344 24.120185 25.374519 25.885718
3.400000 21.737544 23.414117 24.521658 24.398388 25.618193 26.091694
3.450000 22.138706 23.660979 24.774493 24.650528 25.808435 26.303263
3.500000 22.369764 23.914340 25.008255 24.892865 26.026194 26.505840
3.550000 22.731897 24.171335 25.244675 25.138921 26.229965 26.678032
3.600000 22.997048 24.411827 25.497921 25.386471 26.476985 26.870641
3.650000 23.272092 24.673340 25.767646 25.620993 26.675378 27.093421
3.750000 23.868649 25.133399 26.198177 26.114284 27.092022 27.512240
3.800000 24.039856 25.416256 26.452233 26.346042 27.281238 27.729888
3.850000 24.314127 25.679950 26.676559 26.572400 27.508200 27.945237
3.900000 24.588811 25.905034 26.917358 26.799977 27.715408 28.147041
3.950000 24.864045 26.163647 27.136368 27.031943 27.915659 28.420776
4.000000 25.196934 26.395940 27.375892 27.265532 28.120230 28.695629
4.100000 25.966251 26.928431 27.854951 27.749040 28.510438 29.243541
4.150000 26.173153 27.198137 28.093305 27.982654 28.720702 29.455405
4.200000 26.510697 27.423105 28.333330 28.216081 28.930506 29.662015
4.250000 26.871412 27.675835 28.561889 28.459464 29.133318 29.901138
4.300000 27.238453 27.976360 28.817137 28.724691 29.375332 30.191534
4.350000 27.556165 28.275929 29.100171 28.999117 29.621269 30.445867
4.400000 27.848100 28.559285 29.344857 29.277273 29.859942 30.650373
4.450000 28.207827 28.861151 29.606771 29.544681 30.110249 30.916051
4.480000 28.344317 29.042287 29.753095 29.710052 30.264757 31.041590
4.520000 28.614340 29.283227 29.973197 29.939130 30.467950 31.254536
4.550000 28.842771 29.473695 30.146277 30.109617 30.623555 31.428655
4.600000 29.224773 29.858263 30.423727 30.414391 30.925104 31.692260
4.650000 29.526748 30.139715 30.692002 30.686453 31.181060 31.981365
4.700000 29.762268 30.408712 30.951124 30.943827 31.443270 32.186546
4.750000 29.998054 30.624997 31.186909 31.186372 31.711322 32.391618
4.800000 30.241393 30.870316 31.443084 31.418924 31.925625 32.601827
4.850000 30.488518 31.120583 31.654697 31.644273 32.158749 32.855461
4.900000 30.705893 31.341739 31.898634 31.869973 32.393308 33.111422
4.950000 30.886354 31.556335 32.118101 32.094693 32.606882 33.327574
5.000000 31.075201 31.799338 32.325316 32.318384 32.835246 33.533822
5.050000 31.253317 32.020932 32.534747 32.542591 33.072582 33.687791
5.100000 31.494307 32.262008 32.742227 32.764425 33.305716 33.933083
5.150000 31.754535 32.484791 32.979317 32.992238 33.536533 34.118675
5.200000 31.926940 32.721717 33.210088 33.218024 33.795558 34.337160
5.250000 32.233960 32.944222 33.436187 33.445728 34.035828 34.525549
5.300000 32.459960 33.170474 33.672482 33.686822 34.283020 34.758434
5.350000 32.677988 33.413169 33.907394 33.928169 34.527432 34.971076
5.400000 32.901228 33.646960 34.144005 34.163646 34.763913 35.208634
5.450000 33.169896 33.882487 34.404605 34.404356 34.999566 35.423901
5.500000 33.397078 34.152167 34.668219 34.668766 35.211465 35.615425
5.550000 33.700890 34.417705 34.964974 34.931184 35.468519 35.869669
5.600000 33.930865 34.696380 35.228052 35.189559 35.712305 36.084810
5.650000 34.182380 34.955204 35.498537 35.441743 35.940981 36.280833
5.700000 34.402771 35.198189 35.777105 35.696349 36.196926 36.512599
5.750000 34.671951 35.467049 36.028985 35.953332 36.431840 36.755742
5.800000 34.895148 35.729684 36.280831 36.193157 36.666735 37.028289
5.850000 35.049332 36.014926 36.510146 36.430705 36.890138 37.234735
5.900000 35.284148 36.267593 36.731619 36.666312 37.113604 37.447926
5.950000 35.550075 36.497593 36.969064 36.893676 37.334913 37.667963
5.980000 35.666737 36.657159 37.106817 37.030652 37.477634 37.812179
6.030000 36.010545 36.875684 37.351606 37.265778 37.688423 38.014306
6.050000 36.136709 36.959672 37.439758 37.352564 37.772887 38.088100
6.150000 36.632758 37.421346 37.836386 37.769128 38.151449 38.430668
6.200000 36.913038 37.657758 38.042996 37.987057 38.353578 38.596490
6.250000 37.240519 37.861693 38.246554 38.194510 38.546820 38.770508
6.300000 37.470472 38.093030 38.445380 38.395764 38.739010 38.993060
6.350000 37.807295 38.310153 38.645467 38.604922 38.932212 39.190311
6.400000 38.020201 38.515696 38.840620 38.804311 39.116827 39.390455
6.450000 38.205275 38.724008 39.033114 39.002390 39.308198 39.587171
6.500000 38.421200 38.923058 39.234529 39.200678 39.498409 39.777418
6.550000 38.661270 39.132049 39.427720 39.400640 39.693422 40.008216
6.600000 38.879487 39.324602 39.616552 39.596324 39.884582 40.217536
6.650000 39.088240 39.514565 39.817721 39.795019 40.078266 40.438698
6.700000 39.322870 39.716937 40.003190 39.991830 40.279124 40.640632
6.750000 39.528920 39.910161 40.188192 40.187070 40.480989 40.856825
6.800000 39.723561 40.102940 40.377658 40.384510 40.685666 41.095424
6.850000 39.940317 40.297539 40.574367 40.584124 40.897561 41.334838
6.900000 40.118774 40.481721 40.786928 40.792157 41.111626 41.582309
6.950000 40.286380 40.682778 40.995525 41.007074 41.340559 41.848661
7.000000 40.470557 40.883210 41.211136 41.225174 41.600589 42.059750
7.050000 40.655168 41.075424 41.428316 41.438695 41.823800 42.294619
7.100000 40.859447 41.296465 41.655186 41.665241 42.064452 42.502001
7.150000 41.041006 41.504215 41.895456 41.898625 42.325160 42.717739
7.200000 41.248613 41.726991 42.134024 42.133701 42.561848 42.962895
7.250000 41.481580 41.937764 42.383493 42.363936 42.776743 43.189241
7.300000 41.669337 42.173872 42.594227 42.583952 42.987160 43.389983
7.350000 41.857757 42.395558 42.826462 42.802003 43.204219 43.575797
7.400000 42.079848 42.637977 43.041014 43.025266 43.413627 43.857714
7.450000 42.274068 42.862862 43.274582 43.249448 43.648975 44.062400
7.480000 42.418979 42.986072 43.416661 43.385121 43.778586 44.219827
7.520000 42.572470 43.162018 43.612889 43.573346 43.970191 44.382918
7.550000 42.742407 43.314695 43.762783 43.724654 44.126974 44.505181
7.600000 43.040067 43.576847 44.004322 43.983074 44.385768 44.831134
7.650000 43.276965 43.848892 44.245409 44.234473 44.618088 45.103426
7.700000 43.518784 44.103097 44.489695 44.477697 44.853762 45.335597
7.750000 43.800253 44.332797 44.718142 44.706814 45.086216 45.561779
7.850000 44.289261 44.768223 45.132495 45.135875 45.510564 45.995559
7.900000 44.514916 44.976965 45.322100 45.335947 45.711780 46.172950
7.950000 44.784523 45.176581 45.522076 45.534595 45.912589 46.384512
8.000000 44.977616 45.369719 45.715277 45.734544 46.110433 46.583819
8.050000 45.196943 45.581574 45.914250 45.934611 46.304393 46.772339
8.100000 45.423760 45.772343 46.112434 46.127744 46.503801 46.949584
8.150000 45.573710 45.976268 46.308720 46.327596 46.698745 47.151033
8.200000 45.810264 46.156868 46.513285 46.537451 46.932971 47.353140
8.250000 46.032987 46.384266 46.735140 46.754482 47.141543 47.573217
8.300000 46.229473 46.614972 46.973066 46.990727 47.399558 47.865202
8.350000 46.432798 46.849856 47.211946 47.242468 47.657180 48.180054
8.400000 46.675680 47.098758 47.492590 47.539219 47.978652 48.629074
8.450000 46.911564 47.335609 47.781200 47.823260 48.287652 48.960426
8.500000 47.141814 47.604076 48.066509 48.100867 48.573460 49.271441
8.550000 47.350875 47.845606 48.330373 48.359503 48.866225 49.588448
8.600000 47.573254 48.105068 48.576192 48.632743 49.200247 49.842681
8.650000 47.864591 48.375975 48.855526 48.914195 49.489965 50.148975
8.700000 48.113767 48.633419 49.127682 49.191713 49.798354 50.384375
8.750000 48.373511 48.921747 49.451196 49.487352 50.099032 50.800295
8.800000 48.649937 49.201173 49.754728 49.789502 50.383745 51.132300
8.850000 48.916937 49.500323 50.042656 50.074428 50.663704 51.439952
8.900000 49.189668 49.761388 50.349769 50.372238 50.950140 51.874881
8.950000 49.462485 50.032937 50.674534 50.680915 51.246332 52.203292
8.980000 49.623868 50.197255 50.842280 50.851774 51.411711 52.396278
9.020000 49.871181 50.408609 51.079061 51.074325 51.662540 52.590896
9.050000 49.981027 50.558083 51.230819 51.232157 51.844767 52.709142
9.100000 50.249228 50.802294 51.512865 51.504437 52.133654 52.944359
9.150000 50.446515 51.037969 51.774212 51.761429 52.392721 53.203348
9.250000 50.831102 51.476273 52.263017 52.233866 52.909933 53.669771
9.300000 51.016032 51.668838 52.508686 52.462902 53.164021 53.852388
9.350000 51.221336 51.915778 52.733055 52.695572 53.404362 54.091348
9.450000 51.578797 52.308108 53.198178 53.129832 53.846969 54.476899
9.500000 51.815228 52.524275 53.409564 53.354977 54.077790 54.674221
9.550000 52.003345 52.761736 53.638109 53.580648 54.291920 54.846721
9.600000 52.228209 52.996466 53.860488 53.798135 54.524072 55.044638
9.650000 52.433394 53.279278 54.091314 54.025348 54.744297 55.232143
9.700000 52.624574 53.539809 54.326080 54.255103 54.957770 55.446457
9.750000 52.810632 53.798738 54.553635 54.471802 55.149585 55.633004
9.800000 52.986140 54.026470 54.770426 54.687205 55.340996 55.827691
9.850000 53.229270 54.247154 54.997516 54.903719 55.534676 56.009959
9.900000 53.554333 54.514510 55.216489 55.136865 55.739670 56.215760
9.950000 53.866255 54.770683 55.437293 55.365511 55.963938 56.409764
10.000000 54.060649 55.058094 55.660563 55.597721 56.181730 56.642673
10.050000 54.419283 55.331535 55.873721 55.826950 56.367013 56.827664
10.100000 54.690344 55.592661 56.112959 56.065467 56.577320 57.064479
10.150000 55.003653 55.858052 56.342424 56.299471 56.790248 57.253271
10.250000 55.541612 56.338024 56.767879 56.740661 57.201561 57.617928
10.300000 55.780152 56.588511 56.985734 56.971219 57.402622 57.797000
10.350000 56.099651 56.821173 57.221876 57.201325 57.629355 58.037447
10.400000 56.352704 57.052393 57.446722 57.433115 57.852353 58.277423
10.450000 56.600986 57.304959 57.676103 57.666319 58.056480 58.556912
10.480000 56.725544 57.457905 57.818912 57.809468 58.188043 58.728739
10.520000 56.917545 57.633479 58.012404 58.000445 58.389933 58.950139
10.550000 57.104458 57.763893 58.146086 58.140857 58.514394 59.107179
10.600000 57.412451 58.013600 58.385818 58.381894 58.747399 59.320841
10.650000 57.723231 58.267886 58.635394 58.628752 58.987686 59.509392
10.750000 58.304785 58.796362 59.120731 59.124155 59.468122 59.961685
10.800000 58.584915 59.047402 59.366308 59.361872 59.705926 60.110072
10.850000 58.849574 59.257729 59.583208 59.582240 59.905835 60.290528
10.900000 59.064858 59.477109 59.784839 59.788434 60.113858 60.480911
10.950000 59.242140 59.664534 59.984915 59.983211 60.304212 60.640459
11.000000 59.438634 59.849420 60.197987 60.182107 60.509888 60.834625
11.050000 59.678520 60.042231 60.392266 60.375300 60.715006 61.034555
11.100000 59.819404 60.230759 60.583903 60.572285 60.933612 61.254342
11.150000 60.015264 60.447185 60.801820 60.781938 61.136932 61.495378
11.200000 60.191443 60.642014 61.001629 60.987344 61.336415 61.738175
11.250000 60.377346 60.850563 61.217696 61.195589 61.537584 61.939701
11.300000 60.591521 61.059691 61.414136 61.402066 61.749522 62.163241
11.350000 60.825607 61.277699 61.605561 61.600857 61.964966 62.347270
11.400000 61.063965 61.490239 61.792166 61.802414 62.153357 62.547020
11.450000 61.212832 61.682887 61.990799 62.000849 62.354229 62.767144
11.500000 61.398306 61.859953 62.194796 62.192093 62.542411 62.971795
11.550000 61.599143 62.047628 62.384909 62.381495 62.735152 63.137050
11.600000 61.815938 62.238243 62.565470 62.578332 62.926028 63.363822
11.650000 62.009894 62.435986 62.761552 62.778956 63.159667 63.541549
11.700000 62.249221 62.622365 62.961659 62.983506 63.372266 63.763258
11.750000 62.479977 62.824489 63.158337 63.198489 63.592363 64.044166
11.800000 62.691186 63.015886 63.369365 63.415283 63.841341 64.324757
11.850000 62.850051 63.209097 63.601132 63.646600 64.094295 64.628522
11.900000 63.123040 63.423149 63.856640 63.919974 64.409235 65.068491
11.950000 63.380854 63.666510 64.136869 64.199630 64.727307 65.342534
11.980000 63.514258 63.820897 64.316008 64.371362 64.929968 65.587020
12.020000 63.716817 64.017480 64.556418 64.606894 65.192899 65.781560
12.050000 63.829642 64.162496 64.729847 64.777441 65.376562 66.093825
12.100000 64.072885 64.437352 65.031311 65.091873 65.730714 66.540366
12.150000 64.298682 64.734621 65.379754 65.442331 66.073060 67.021283
12.200000 84.381443 85.427081 86.341186 86.296627 87.277292 87.955677
12.250000 85.297659 86.059249 86.912134 86.876988 87.730109 88.446473
12.300000 85.786821 86.512155 87.353096 87.336537 88.196902 88.863857
12.350000 86.226527 86.905731 87.757006 87.729185 88.562318 89.178203
12.400000 86.590664 87.283671 88.106234 88.087344 88.924244 89.456339
12.450000 86.923242 87.661819 88.477632 88.446212 89.236640 89.823427
12.500000 87.213227 88.022601 88.855783 88.791253 89.577683 90.146750
12.550000 87.514884 88.379609 89.188557 89.137006 89.919804 90.505161
12.600000 87.863271 88.695835 89.549997 89.501403 90.280502 90.885530
12.650000 88.266254 89.060948 89.909495 89.854097 90.625984 91.235915
12.700000 88.650541 89.472651 90.272692 90.220610 90.976735 91.573696
12.750000 89.058050 89.858480 90.633314 90.586850 91.307093 91.931794
12.800000 89.549447 90.280482 91.016325 90.973252 91.646388 92.293451
12.850000 89.986637 90.667247 91.402351 91.374438 92.043386 92.652075
12.900000 90.471630 91.094376 91.772792 91.756872 92.380342 93.042072
12.950000 90.930137 91.514535 92.166188 92.158232 92.783344 93.375644
13.000000 91.368731 91.982547 92.573903 92.591939 93.205452 93.856727
13.050000 91.884225 92.473984 93.061326 93.081089 93.674719 94.389988
13.100000 92.425972 92.959479 93.573708 93.613139 94.250385 94.966072
13.150000 92.973556 93.464966 94.111344 94.153074 94.819590 95.581788
13.200000 93.513713 94.058204 94.700763 94.782703 95.519034 96.510699
13.250000 94.124129 94.696277 95.422963 95.534073 96.311100 97.614204
13.300000 94.782141 95.418237 96.252186 96.490583 97.548727 99.738753
13.350000 95.389670 96.198236 97.166660 97.469317 98.806485 101.038413
13.400000 96.467676 97.250710 98.433053 98.690938 100.283349 102.127652
13.450000 97.242842 98.134366 99.476622 99.708233 101.427129 102.957841
13.480000 97.582438 98.588815 100.066131 100.239789 101.978017 103.462775
13.520000 98.175064 99.255005 100.940254 100.988792 102.762147 104.057842
13.550000 98.596172 99.789475 101.445005 101.497167 103.219419 104.621417
13.600000 99.362107 100.662162 102.523971 102.506072 104.234614 105.542668
13.650000 100.247975 101.663569 103.414951 103.454718 105.191250 106.731986
13.700000 101.212530 102.601398 104.607495 104.638924 106.436596 108.782116
13.750000 102.107692 103.845194 105.783281 105.915336 107.783543 111.471835
13.800000 103.053614 104.769365 107.090159 107.146178 109.188014 112.728435
13.850000 104.299552 106.366011 108.910191 108.900300 111.284036 113.582307
13.900000 105.577567 108.061461 110.640984 110.440481 112.721897 114.551318
13.950000 106.873829 111.840596 114.077194 113.479656 115.195676 116.107508
14.000000 108.195218 113.977485 115.383009 114.936230 116.361902 117.129521
14.050000 112.373711 114.882838 116.203123 115.890405 117.152064 117.960981
14.100000 114.002973 115.907602 117.191055 116.974478 118.113160 118.907273
14.150000 116.324732 117.562812 118.516745 118.469752 119.400358 120.313206
14.200000 117.814265 118.735174 119.603722 119.601268 120.489607 121.287994
14.250000 118.893876 119.720761 120.489828 120.512481 121.344300 122.150323
14.300000 119.918821 120.645192 121.381954 121.394738 122.127207 122.862405
14.350000 120.776793 121.414220 122.143781 122.131892 122.850031 123.520285
14.400000 121.424593 122.075434 122.807227 122.801771 123.517920 124.273528
14.450000 122.033553 122.719690 123.408548 123.413310 124.106591 124.791328
14.500000 122.609867 123.339270 123.974361 124.005838 124.688487 125.447946
14.550000 123.250825 123.873080 124.559866 124.584789 125.260987 125.998627
14.600000 123.847585 124.466358 125.121696 125.155923 125.827742 126.584079
14.650000 124.460121 125.033078 125.692061 125.735081 126.405633 127.223371
