depth(m) lower_95(kyr) lower_68(kyr) median(kyr) mean(kyr) upper_68(kyr) upper_95(kyr)
0.040000 0.024857 0.162662 0.547366 0.615274 1.067334 1.653518
0.120000 0.197651 0.363107 0.800589 0.851239 1.303679 1.862397
0.200000 0.370333 0.578878 1.032410 1.085973 1.573636 2.170492
0.300000 0.560007 0.832222 1.333517 1.375062 1.883566 2.502399
0.400000 0.770948 1.096546 1.620513 1.664972 2.218494 2.879492
0.500000 0.977302 1.360716 1.904949 1.946180 2.524182 3.210018
0.600000 1.190966 1.594955 2.178342 2.215857 2.837006 3.580593
0.733333 1.458623 1.944625 2.533226 2.584816 3.220112 3.948496
0.866667 1.745358 2.264004 2.897893 2.940709 3.576009 4.352275
1.000000 2.063567 2.599701 3.287381 3.304344 3.966696 4.723460
1.100000 2.283577 2.878490 3.548610 3.588759 4.261872 5.012829
1.200000 2.504668 3.202221 3.847940 3.875287 4.582924 5.295342
1.300000 2.757592 3.458934 4.116955 4.154113 4.902162 5.579144
1.400000 3.020588 3.736264 4.412462 4.440623 5.221270 5.852206
1.500000 3.279042 4.014716 4.724174 4.725008 5.493768 6.117231
1.600000 3.542524 4.316357 5.004767 5.008346 5.775058 6.390523
1.700000 3.816287 4.604711 5.282957 5.296950 6.058674 6.639712
1.800000 4.114247 4.909070 5.561188 5.589202 6.327389 6.910978
1.900000 4.420400 5.235634 5.888250 5.896299 6.629202 7.181750
2.000000 4.782215 5.515173 6.190426 6.196121 6.938431 7.486127
2.100000 5.074022 5.839512 6.495270 6.500887 7.242368 7.780195
2.200000 5.361262 6.148042 6.805473 6.807904 7.515594 8.073400
2.300000 5.810650 6.488842 7.124837 7.134394 7.814340 8.364983
2.400000 6.195903 6.842518 7.455369 7.470498 8.129476 8.709164
2.500000 6.624859 7.171842 7.830661 7.813241 8.426975 8.994646
2.600000 6.995025 7.541656 8.186807 8.166877 8.765972 9.350390
2.700000 7.265093 7.866704 8.497957 8.484127 9.116168 9.622221
2.800000 7.569602 8.183974 8.804521 8.794096 9.408389 9.912780
2.900000 7.923450 8.492460 9.106499 9.101518 9.701895 10.150568
3.000000 8.255764 8.840678 9.428298 9.415711 9.998532 10.411350
3.100000 8.666679 9.214172 9.785959 9.750141 10.308637 10.695133
3.200000 9.019654 9.568512 10.119682 10.091126 10.629529 10.976236
3.300000 9.401533 9.908947 10.454543 10.428425 10.924841 11.329471
3.400000 9.766998 10.234353 10.771525 10.747803 11.228329 11.600846
3.500000 10.084215 10.630084 11.108922 11.072931 11.515180 11.892953
3.600000 10.495209 10.985345 11.433900 11.410784 11.824244 12.232606
3.700000 10.898638 11.336223 11.751255 11.744145 12.130202 12.582304
3.800000 11.283035 11.700373 12.073090 12.073608 12.444178 12.891397
3.900000 11.665790 12.029311 12.375793 12.387439 12.771369 13.134682
4.000000 12.001009 12.335728 12.655038 12.694757 13.117215 13.375530
4.040000 12.141755 12.459323 12.778706 12.820040 13.240934 13.517258
4.080000 12.275335 12.596652 12.908611 12.945584 13.366414 13.623825
4.100000 12.342375 12.653101 12.979636 13.007979 13.424298 13.681148
4.120000 12.421446 12.721636 13.046265 13.072833 13.476931 13.738429
4.160000 12.557023 12.879317 13.169818 13.206755 13.592363 13.854325
4.200000 12.707457 13.015511 13.313256 13.342922 13.703812 13.939923
4.240000 12.846539 13.161369 13.467794 13.478059 13.813968 14.029651
4.280000 12.976724 13.308952 13.609128 13.611116 13.935622 14.142028
4.300000 13.056302 13.385113 13.685145 13.678542 13.993964 14.180610
4.320000 13.117628 13.463193 13.763950 13.748949 14.053043 14.236218
4.360000 13.281316 13.626181 13.917893 13.896464 14.166628 14.342738
4.400000 13.405270 13.769262 14.075773 14.037842 14.291327 14.443797
4.440000 13.566428 13.933693 14.225630 14.180409 14.407309 14.561876
4.480000 13.764124 14.095780 14.366154 14.320724 14.521005 14.667855
4.500000 13.835290 14.182293 14.428365 14.389051 14.581978 14.731970
4.520000 13.958343 14.259227 14.496165 14.457024 14.640786 14.791336
4.560000 14.111010 14.410411 14.606389 14.584198 14.748271 14.925395
4.600000 14.271765 14.562247 14.734145 14.716487 14.865734 15.118529
4.640000 14.430100 14.697081 14.849584 14.843215 14.974848 15.301004
4.680000 14.556061 14.823631 14.966341 14.972215 15.097478 15.477934
4.700000 14.647494 14.890712 15.026362 15.036537 15.159125 15.571047
4.720000 14.711620 14.959577 15.090211 15.104610 15.230207 15.667364
4.760000 14.853864 15.079325 15.211178 15.237140 15.373101 15.872397
4.800000 14.996094 15.189085 15.331909 15.366246 15.516629 16.026451
4.840000 15.126594 15.299597 15.441410 15.493752 15.658992 16.242222
4.880000 15.247989 15.416779 15.566585 15.621259 15.808685 16.435944
4.900000 15.303341 15.481367 15.632438 15.686947 15.883967 16.506178
4.920000 15.370300 15.542863 15.703585 15.757286 15.959235 16.558370
4.960000 15.515525 15.666028 15.844322 15.903069 16.102778 16.767094
5.000000 15.632333 15.800159 15.983354 16.042770 16.232795 16.884274
5.040000 15.768141 15.939819 16.123856 16.184212 16.386182 17.033307
5.080000 15.889109 16.072827 16.260665 16.322609 16.517498 17.168759
5.100000 15.950417 16.139885 16.327242 16.387842 16.593070 17.232453
5.120000 16.028626 16.210531 16.397897 16.454727 16.657317 17.290353
5.160000 16.152303 16.328543 16.521073 16.576386 16.770653 17.402456
5.200000 16.285633 16.457248 16.634689 16.701211 16.885656 17.523782
5.240000 16.412812 16.596194 16.755596 16.826571 17.031979 17.633152
5.280000 16.554697 16.719658 16.881346 16.957488 17.224632 17.744951
5.300000 16.619276 16.784967 16.948246 17.023200 17.297203 17.806731
5.320000 16.682595 16.855240 17.013271 17.090994 17.366240 17.863651
5.360000 16.824557 16.993693 17.153596 17.232290 17.504614 17.989974
5.400000 16.968610 17.124079 17.303152 17.375064 17.654240 18.109117
5.440000 17.116932 17.272383 17.445252 17.517609 17.809532 18.229424
5.480000 17.263733 17.407383 17.584692 17.656676 17.913884 18.376121
5.500000 17.307225 17.486261 17.651428 17.725390 17.990927 18.422148
5.520000 17.390898 17.553337 17.720797 17.792492 18.068754 18.478927
5.560000 17.518505 17.686573 17.847798 17.918060 18.226822 18.572139
5.600000 17.676968 17.807482 17.978019 18.042801 18.341958 18.673745
5.640000 17.789303 17.937183 18.109889 18.166648 18.462706 18.764069
5.680000 17.896079 18.053342 18.223195 18.285369 18.581858 18.851929
5.700000 17.960618 18.120527 18.290161 18.344599 18.633292 18.902262
5.720000 18.019647 18.176111 18.348859 18.403945 18.690020 18.976855
5.760000 18.177652 18.296336 18.454874 18.518359 18.810241 19.080247
5.800000 18.279641 18.417191 18.568290 18.627396 18.904859 19.182142
5.840000 18.381208 18.528260 18.674267 18.734233 19.008733 19.283758
5.880000 18.496314 18.635839 18.774692 18.840372 19.117211 19.394955
5.900000 18.557287 18.690054 18.831697 18.895984 19.176587 19.465316
5.920000 18.626153 18.742531 18.881996 18.950868 19.234120 19.515464
5.960000 18.726202 18.846528 18.989858 19.058209 19.345002 19.646789
6.000000 18.808213 18.945940 19.093545 19.163737 19.445514 19.755974
6.040000 18.918514 19.042009 19.200507 19.267619 19.550789 19.885372
6.080000 19.020712 19.132950 19.303928 19.371543 19.657494 19.995463
6.120000 19.113879 19.229156 19.408859 19.475058 19.764766 20.129221
6.160000 19.205148 19.325249 19.508334 19.578033 19.865504 20.250394
6.200000 19.290230 19.422124 19.611434 19.683576 19.984281 20.366944
6.240000 19.375446 19.525207 19.726660 19.789950 20.107093 20.479156
6.280000 19.458968 19.621419 19.831688 19.896472 20.190262 20.603990
6.320000 19.564813 19.716262 19.944577 20.002675 20.314753 20.701286
6.360000 19.655290 19.816172 20.050165 20.109509 20.436613 20.826568
6.400000 19.763732 19.919651 20.150427 20.219464 20.553344 20.962139
6.440000 19.851253 20.019220 20.257649 20.328868 20.701779 21.080026
6.480000 19.952503 20.124481 20.362811 20.437725 20.808400 21.207431
6.520000 20.072796 20.225824 20.467504 20.545273 20.942745 21.332279
6.560000 20.163593 20.326184 20.572687 20.656819 21.070333 21.445791
6.600000 20.251277 20.442526 20.675269 20.765486 21.204181 21.554400
6.640000 20.364792 20.545268 20.774932 20.872210 21.312511 21.669453
6.680000 20.470609 20.642137 20.878208 20.979916 21.421507 21.786800
6.720000 20.580944 20.755562 20.979234 21.088892 21.529580 21.902133
6.760000 20.697425 20.864847 21.087188 21.198839 21.633118 22.009257
6.810000 20.835810 20.992155 21.212960 21.332266 21.782624 22.131524
6.840000 20.911734 21.074428 21.293079 21.413657 21.874832 22.209599
6.880000 21.015787 21.182049 21.394437 21.522799 21.965991 22.295117
6.920000 21.147168 21.288712 21.506012 21.631972 22.092422 22.381018
6.960000 21.260178 21.397866 21.616380 21.744098 22.207964 22.499773
7.000000 21.363158 21.510412 21.721451 21.854359 22.325948 22.593119
7.040000 21.464525 21.619504 21.840595 21.966193 22.444252 22.712578
7.080000 21.568243 21.726997 21.955131 22.078259 22.563540 22.832225
7.120000 21.682549 21.841162 22.071796 22.193831 22.662495 22.928314
7.160000 21.781229 21.951848 22.186373 22.309222 22.787307 23.010384
7.200000 21.882492 22.069203 22.310356 22.426782 22.908729 23.188233
7.240000 22.016691 22.185300 22.437059 22.546915 23.031177 23.314374
7.280000 22.133492 22.300096 22.565771 22.667115 23.136373 23.458597
7.320000 22.236993 22.422064 22.682603 22.788652 23.249906 23.572321
7.360000 22.357200 22.546005 22.810041 22.909073 23.364108 23.733927
7.400000 22.456019 22.665528 22.929016 23.031648 23.486603 23.965569
7.440000 22.566187 22.779607 23.044533 23.149965 23.598328 24.120941
7.480000 22.691641 22.905151 23.163069 23.269613 23.709540 24.260764
7.520000 22.805959 23.031327 23.267800 23.391982 23.828245 24.401481
7.560000 22.925384 23.150997 23.372642 23.514724 23.951975 24.586182
7.600000 23.059282 23.263316 23.477341 23.633444 24.073708 24.743594
7.640000 23.179410 23.390736 23.584491 23.750792 24.182502 24.898253
7.680000 23.304924 23.509147 23.688737 23.868782 24.298543 25.085044
7.720000 23.433362 23.620256 23.793908 23.981605 24.404013 25.236402
7.760000 23.533943 23.717881 23.888599 24.092378 24.509011 25.412101
7.840000 23.805657 23.913958 24.072748 24.308317 24.715084 25.841760
7.880000 23.903577 24.018660 24.170279 24.420174 24.826190 26.051243
7.900000 23.953437 24.074892 24.226334 24.480553 24.891471 26.102287
7.920000 24.011004 24.126088 24.280430 24.537150 24.943305 26.161351
7.960000 24.112352 24.225864 24.375063 24.646131 25.054250 26.283717
8.040000 24.302912 24.408873 24.564028 24.861181 25.297169 26.562517
8.080000 24.404902 24.504892 24.654942 24.969904 25.416353 26.699416
8.100000 24.447994 24.552166 24.708445 25.027413 25.512539 26.755989
8.120000 24.498908 24.600678 24.770442 25.086273 25.585496 26.823932
8.160000 24.601961 24.688829 24.896061 25.205054 25.736338 26.931195
8.200000 24.692777 24.781808 25.023910 25.323342 25.882343 27.065082
8.240000 24.778425 24.877506 25.164407 25.443689 26.026022 27.184856
8.280000 24.875090 24.977514 25.305023 25.566163 26.210009 27.301146
8.320000 24.956909 25.077897 25.440431 25.684940 26.389790 27.432164
8.360000 25.049770 25.172772 25.554064 25.802111 26.534591 27.531282
8.440000 25.206618 25.351802 25.826384 26.026650 26.818377 27.739806
8.480000 25.287253 25.443328 25.926498 26.139911 26.982187 27.852487
8.520000 25.381475 25.540594 26.059869 26.254702 27.134517 27.989486
8.560000 25.481218 25.636095 26.189796 26.371809 27.274240 28.105175
8.600000 25.577281 25.735268 26.324997 26.492208 27.416002 28.226031
8.640000 25.677409 25.854333 26.446002 26.613282 27.568815 28.320730
8.680000 25.768473 25.965162 26.585336 26.738617 27.691215 28.403175
8.720000 25.869014 26.069099 26.702683 26.863220 27.812673 28.536674
8.760000 25.965071 26.179677 26.845603 26.988761 27.937668 28.630358
8.840000 26.175226 26.394038 27.102513 27.228015 28.179702 28.878089
8.880000 26.296061 26.514684 27.214564 27.355064 28.298831 28.991308
8.920000 26.414864 26.645074 27.327365 27.478455 28.417265 29.088200
8.960000 26.529687 26.769008 27.437660 27.604916 28.541830 29.226252
9.000000 26.651010 26.895693 27.568080 27.730541 28.666851 29.382507
9.040000 26.746830 27.009892 27.695045 27.855580 28.784724 29.513208
9.080000 26.843902 27.135275 27.831679 27.984412 28.910107 29.711003
9.120000 26.953326 27.248368 27.962307 28.110585 29.032895 29.852510
9.160000 27.043876 27.369067 28.114191 28.243708 29.162066 30.066202
9.240000 27.282296 27.648340 28.395660 28.509752 29.422200 30.343938
9.280000 27.406127 27.792115 28.535970 28.643282 29.553978 30.478438
9.320000 27.513863 27.911364 28.644291 28.770058 29.689424 30.676440
9.360000 27.622296 28.041259 28.773418 28.906736 29.821058 30.806310
9.400000 27.744258 28.177777 28.886318 29.040732 29.989079 30.977999
9.440000 27.844383 28.307736 29.020507 29.177292 30.118682 31.141695
9.480000 27.946887 28.443983 29.150130 29.315887 30.274052 31.274588
9.520000 28.053382 28.568463 29.293330 29.453500 30.421361 31.391785
9.560000 28.154798 28.680048 29.431904 29.589672 30.573226 31.537043
9.600000 28.259858 28.822996 29.571180 29.736134 30.741408 31.642668
9.640000 28.371058 28.946258 29.748131 29.885672 30.927392 31.823219
9.680000 28.525946 29.080832 29.913280 30.047179 31.116007 31.965956
9.720000 28.682211 29.237919 30.060912 30.208734 31.269217 32.125092
9.760000 28.815116 29.372913 30.230809 30.366745 31.426514 32.283958
9.800000 28.947253 29.521147 30.428815 30.534597 31.596386 32.451920
9.840000 29.178804 29.666014 30.650612 30.710902 31.772826 32.633534
9.960000 29.822980 30.474383 31.828349 31.731813 32.776539 33.691352
10.000000 29.995358 30.656751 32.039743 31.917604 32.960782 33.924058
10.040000 30.102338 30.851985 32.216902 32.094207 33.137252 34.052070
10.080000 30.239521 31.036959 32.422725 32.270391 33.324845 34.228743
10.120000 30.391118 31.253727 32.595725 32.449113 33.477029 34.396855
10.160000 30.568116 31.447369 32.763743 32.627522 33.635838 34.592109
10.200000 30.714508 31.637422 32.941144 32.799678 33.790930 34.697731
10.240000 30.902836 31.824693 33.120688 32.983895 33.958818 34.837905
10.280000 31.052308 32.028639 33.306247 33.175447 34.136423 35.004362
10.360000 31.643683 32.599240 33.839078 33.727304 34.662551 35.378026
10.400000 31.882321 32.796300 34.023722 33.895276 34.834996 35.545491
10.440000 32.056400 33.009562 34.199900 34.066778 35.011346 35.688205
10.480000 32.237640 33.208254 34.387211 34.241006 35.197638 35.828045
10.520000 32.358285 33.386796 34.579177 34.424623 35.383594 35.955917
10.560000 32.493804 33.561109 34.758508 34.592540 35.542899 36.087653
10.600000 32.630375 33.739807 34.921532 34.764563 35.694064 36.247891
10.640000 32.773788 33.896970 35.099625 34.934832 35.882539 36.386458
10.680000 32.938357 34.043094 35.279509 35.108722 36.028560 36.595006
10.720000 33.075864 34.207262 35.448300 35.289498 36.187038 36.772364
10.760000 33.170333 34.343003 35.670264 35.470254 36.349294 36.944605
10.800000 33.274309 34.537917 35.866106 35.648300 36.504081 37.147813
10.840000 33.397833 34.721913 36.058738 35.827090 36.665356 37.390763
10.880000 33.505793 34.910940 36.250408 36.009854 36.826476 37.591966
10.920000 33.615492 35.084112 36.439822 36.203808 36.985391 37.745328
10.960000 33.807328 35.256570 36.632962 36.385354 37.167197 37.901987
11.000000 33.956506 35.565019 36.815136 36.575304 37.322535 38.057201
11.040000 34.076442 35.748417 37.010416 36.754184 37.487988 38.260143
11.080000 34.249976 35.925702 37.196532 36.928526 37.656690 38.371804
11.120000 34.440825 36.124733 37.386559 37.106615 37.806142 38.564360
11.160000 34.736781 36.364543 37.566935 37.281518 37.959615 38.713871
11.200000 34.961295 36.651531 37.752939 37.474067 38.092751 38.852202
11.240000 35.247412 36.902506 37.922184 37.653866 38.244630 39.056833
11.280000 35.445696 37.216480 38.073418 37.835484 38.387384 39.188269
11.320000 35.703304 37.466760 38.237547 38.020780 38.517272 39.350723
11.360000 35.985825 37.689119 38.386271 38.206455 38.661129 39.490584
11.400000 36.374798 37.919579 38.527293 38.381320 38.804374 39.589115
11.440000 36.734529 38.136551 38.680218 38.551737 38.929040 39.745281
11.480000 37.029433 38.354045 38.820415 38.718399 39.077388 39.897084
11.520000 37.244740 38.556756 38.949123 38.881488 39.210311 40.055017
11.560000 37.479013 38.747568 39.081410 39.032042 39.337737 40.194548
11.600000 37.740639 38.893242 39.222018 39.183234 39.465424 40.330023
11.640000 38.023090 39.069303 39.361756 39.330067 39.600640 40.451215
11.680000 38.320765 39.231093 39.501373 39.484508 39.753557 40.632535
11.720000 38.586837 39.373753 39.633732 39.634442 39.886907 40.789102
11.760000 38.821671 39.513505 39.774630 39.782447 40.026384 41.060413
11.800000 39.098141 39.658846 39.912535 39.930996 40.165759 41.260215
11.840000 39.279455 39.796191 40.041349 40.077352 40.299331 41.454561
11.880000 39.450237 39.946820 40.180216 40.223506 40.457532 41.585962
11.920000 39.625313 40.064226 40.319867 40.367314 40.589647 41.759115
11.960000 39.810555 40.211814 40.461214 40.513482 40.746074 41.913077
12.000000 39.971549 40.348003 40.593302 40.659327 40.909160 42.109878
12.040000 40.155585 40.495858 40.730032 40.809627 41.040590 42.212377
12.080000 40.303297 40.630117 40.869537 40.955679 41.230196 42.354056
12.120000 40.518288 40.774699 41.006897 41.105043 41.412088 42.532486
12.160000 40.627820 40.918151 41.147710 41.251136 41.587669 42.703760
12.200000 40.803973 41.049221 41.286657 41.397721 41.759950 42.844933
12.240000 40.933311 41.186864 41.429925 41.549158 41.937307 42.977389
12.280000 41.070831 41.325102 41.562271 41.705608 42.140879 43.133093
12.320000 41.209562 41.461923 41.709063 41.854498 42.320281 43.297366
12.360000 41.353930 41.583719 41.860552 42.007098 42.513513 43.441650
12.400000 41.502827 41.713503 42.018999 42.160132 42.727575 43.579265
12.440000 41.635726 41.840422 42.162476 42.314143 42.940171 43.749470
12.480000 41.772564 41.967492 42.328866 42.477582 43.170182 43.911094
12.500000 41.836652 42.048606 42.406733 42.557402 43.258004 43.999483
12.520000 41.894982 42.132617 42.493807 42.638023 43.329044 44.049072
12.560000 42.021352 42.321195 42.680753 42.818951 43.483640 44.192970
12.600000 42.158879 42.530797 42.894885 43.018321 43.683053 44.366092
12.640000 42.315945 42.765251 43.080257 43.214004 43.840747 44.512158
12.680000 42.493188 42.972888 43.261021 43.395071 44.007743 44.635147
12.700000 42.550338 43.062357 43.343547 43.479162 44.087622 44.703704
12.720000 42.639203 43.131429 43.424224 43.556041 44.157894 44.772216
12.760000 42.812895 43.289386 43.554066 43.702631 44.312740 44.896867
12.800000 42.961026 43.429589 43.696917 43.846222 44.444735 45.001649
12.840000 43.101493 43.573186 43.831509 43.984317 44.578965 45.137165
12.880000 43.295926 43.705048 43.979661 44.119745 44.698069 45.235143
12.920000 43.438509 43.826669 44.114366 44.252989 44.827094 45.327132
12.960000 43.649033 43.956336 44.249822 44.389853 44.947609 45.432294
13.000000 43.778847 44.077813 44.393602 44.528912 45.104683 45.553932
13.040000 43.902574 44.198912 44.537574 44.666945 45.249418 45.663731
13.080000 44.033943 44.342480 44.674652 44.808590 45.400758 45.762063
13.120000 44.184485 44.471165 44.865508 44.952218 45.552770 45.854350
13.160000 44.319191 44.613633 45.016714 45.097262 45.680196 45.963484
13.200000 44.488349 44.762860 45.189549 45.243097 45.814655 46.066034
13.240000 44.623243 44.885232 45.366461 45.382626 45.943332 46.178198
13.280000 44.760823 45.010843 45.524314 45.527039 46.075916 46.309141
13.320000 44.906002 45.128373 45.698109 45.668414 46.191768 46.430276
13.360000 45.043296 45.258912 45.866748 45.807897 46.324405 46.539590
13.400000 45.159581 45.384766 46.028380 45.943922 46.453446 46.651181
13.440000 45.272535 45.517612 46.188972 46.081520 46.573350 46.764900
13.480000 45.399236 45.659401 46.347413 46.219935 46.709975 46.916059
13.520000 45.533285 45.791174 46.495223 46.362051 46.847928 47.055090
13.560000 45.647664 45.924813 46.647127 46.507367 46.986750 47.210766
13.600000 45.786622 46.072482 46.799085 46.653294 47.123291 47.359535
13.640000 45.930412 46.219254 46.973424 46.806728 47.265086 47.536167
13.680000 46.076379 46.350257 47.109593 46.955025 47.405042 47.685634
13.720000 46.216908 46.495468 47.265032 47.103801 47.556993 47.870125
