depth(m) lower_95(kyr) lower_68(kyr) median(kyr) mean(kyr) upper_68(kyr) upper_95(kyr)
0.040000 0.034395 0.208535 0.666729 0.728246 1.241904 1.875923
0.120000 0.231749 0.453808 0.913217 0.969483 1.450147 2.095954
0.200000 0.402245 0.700552 1.158541 1.214139 1.741309 2.328544
0.300000 0.619957 0.972039 1.450164 1.518707 2.074238 2.721146
0.400000 0.853477 1.237175 1.756370 1.823958 2.421700 3.052035
0.500000 1.089430 1.523139 2.077979 2.123367 2.745810 3.406504
0.600000 1.333581 1.791346 2.375073 2.412814 3.062588 3.724806
0.733333 1.661379 2.140664 2.753053 2.796198 3.469228 4.129870
0.866667 1.950489 2.516365 3.165284 3.200674 3.879656 4.615219
1.000000 2.314906 2.889964 3.560961 3.587257 4.278239 5.076783
1.100000 2.608548 3.170979 3.878442 3.884992 4.592461 5.326004
1.200000 2.927186 3.459168 4.183425 4.186724 4.872681 5.661383
1.300000 3.188441 3.770246 4.511612 4.500439 5.182448 5.968096
1.400000 3.475300 4.080420 4.835971 4.806877 5.472329 6.215353
1.500000 3.734448 4.366645 5.156052 5.099446 5.784120 6.519103
1.600000 4.022782 4.644227 5.441319 5.393901 6.088849 6.796976
1.700000 4.266131 4.946325 5.721187 5.684652 6.350623 7.067164
1.800000 4.540579 5.260134 6.007188 5.971209 6.629498 7.290878
1.900000 4.878588 5.574640 6.322210 6.265882 6.901379 7.588885
2.000000 5.218589 5.881520 6.610422 6.562188 7.183597 7.874613
2.100000 5.503619 6.188141 6.885652 6.861650 7.483953 8.194693
2.200000 5.835188 6.487878 7.166508 7.156448 7.781026 8.462743
2.300000 6.134039 6.866231 7.494118 7.465508 8.096266 8.706307
2.400000 6.491375 7.182398 7.786975 7.772978 8.370332 9.004109
2.500000 6.864421 7.538315 8.107519 8.102819 8.706708 9.299242
2.600000 7.225612 7.875084 8.412578 8.423876 9.001051 9.537957
2.700000 7.573867 8.172760 8.704441 8.715988 9.305328 9.772127
2.800000 7.905102 8.445955 8.991396 9.000779 9.574182 10.039541
2.900000 8.244401 8.761776 9.286005 9.292800 9.866329 10.303025
3.000000 8.520412 9.077215 9.579553 9.583226 10.130718 10.545010
3.100000 8.895985 9.404823 9.895796 9.897564 10.421755 10.813170
3.200000 9.233051 9.730081 10.232129 10.220619 10.724451 11.118276
3.300000 9.537356 10.044991 10.540295 10.540395 11.034054 11.412533
3.400000 9.854189 10.404756 10.866784 10.856143 11.324465 11.689970
3.500000 10.180253 10.735855 11.186037 11.181229 11.620567 12.014045
3.600000 10.676089 11.124772 11.540084 11.532713 11.944659 12.312344
3.700000 11.098947 11.517220 11.910098 11.892309 12.276369 12.605318
3.800000 11.566759 11.906036 12.255950 12.244437 12.591910 12.896113
3.900000 11.934933 12.289504 12.577251 12.581340 12.898596 13.144923
4.000000 12.370720 12.633587 12.891128 12.895981 13.212093 13.379587
4.040000 12.532273 12.760800 13.015368 13.028327 13.326457 13.492793
4.080000 12.673091 12.901553 13.148149 13.157465 13.442594 13.599547
4.100000 12.752944 12.966730 13.211373 13.221529 13.506614 13.651069
4.120000 12.810118 13.033848 13.277658 13.286045 13.556946 13.703564
4.160000 12.967313 13.173736 13.411296 13.413537 13.668296 13.799061
4.200000 13.096571 13.322562 13.550172 13.542441 13.773578 13.891541
4.240000 13.236047 13.458301 13.685792 13.667140 13.871401 13.982246
4.280000 13.385891 13.601247 13.826673 13.799964 13.976702 14.098237
4.300000 13.447804 13.680665 13.893539 13.864799 14.035664 14.162945
4.320000 13.525860 13.745764 13.957234 13.929882 14.090858 14.229098
4.360000 13.673472 13.888506 14.081719 14.057568 14.204413 14.342548
4.400000 13.786995 14.025643 14.188515 14.181159 14.322016 14.521987
4.440000 13.933492 14.152550 14.310367 14.307530 14.452527 14.674843
4.480000 14.074964 14.285019 14.426099 14.433470 14.590030 14.804640
4.500000 14.144495 14.340883 14.493369 14.499331 14.652296 14.875195
4.520000 14.229490 14.407447 14.559546 14.570203 14.736830 14.973370
4.560000 14.373298 14.528891 14.699322 14.715104 14.896556 15.145739
4.600000 14.502090 14.655561 14.849184 14.864064 15.075893 15.310400
4.640000 14.639673 14.787781 15.012848 15.020422 15.253138 15.510333
4.680000 14.744642 14.927952 15.183642 15.186911 15.436199 15.661813
4.700000 14.802843 14.997045 15.261833 15.264676 15.517037 15.745060
4.720000 14.860283 15.068303 15.343942 15.341500 15.590127 15.818755
4.760000 14.995055 15.250128 15.519176 15.506642 15.744803 15.977317
4.800000 15.162298 15.398549 15.687653 15.666908 15.895366 16.170619
4.840000 15.329271 15.568228 15.854377 15.827850 16.030252 16.306519
4.880000 15.482032 15.725357 16.006237 15.978850 16.176680 16.466723
4.900000 15.540704 15.802807 16.073603 16.050671 16.242644 16.549308
4.920000 15.599581 15.881059 16.142170 16.121519 16.311101 16.622424
4.960000 15.777538 16.038186 16.272895 16.263132 16.454139 16.788972
5.000000 15.958754 16.207819 16.403864 16.414055 16.609034 16.987974
5.040000 16.113482 16.364356 16.528984 16.561456 16.772666 17.198139
5.080000 16.271073 16.497957 16.657160 16.701010 16.922957 17.384459
5.100000 16.336894 16.555901 16.730696 16.768448 16.998265 17.438455
5.120000 16.421851 16.626604 16.792141 16.837678 17.077759 17.498418
5.160000 16.547046 16.751187 16.926449 16.975412 17.206337 17.652622
5.200000 16.692096 16.875244 17.063973 17.113426 17.377311 17.764853
5.240000 16.847234 17.006910 17.210267 17.259748 17.546471 17.908724
5.280000 16.964470 17.135349 17.354864 17.402675 17.715051 18.048001
5.300000 17.022678 17.198041 17.424002 17.473419 17.787038 18.121286
5.320000 17.097669 17.262964 17.500335 17.546181 17.858684 18.177872
5.360000 17.223322 17.400227 17.654750 17.700575 18.021511 18.376643
5.400000 17.330479 17.544487 17.807329 17.844991 18.160786 18.551736
5.440000 17.441204 17.690792 17.975134 18.001747 18.314558 18.681858
5.480000 17.540249 17.851089 18.133685 18.168026 18.515013 18.848630
5.500000 17.604066 17.919628 18.216366 18.241459 18.597697 18.905407
5.520000 17.652885 17.998958 18.295562 18.314154 18.682975 18.966409
5.560000 17.765691 18.159150 18.433960 18.453862 18.822195 19.072886
5.600000 17.854579 18.291460 18.562520 18.584236 18.960474 19.175851
5.640000 17.964704 18.458050 18.690928 18.714452 19.099626 19.277238
5.680000 18.075461 18.593719 18.814154 18.841007 19.214400 19.370197
5.700000 18.134311 18.658144 18.882410 18.903885 19.277166 19.422683
5.720000 18.179813 18.721102 18.950146 18.964754 19.336627 19.480143
5.760000 18.295181 18.831710 19.066745 19.076407 19.432029 19.573595
5.800000 18.407266 18.950586 19.175868 19.188820 19.533693 19.664667
5.840000 18.512585 19.061855 19.289348 19.296782 19.625188 19.750814
5.880000 18.611703 19.167153 19.410260 19.408330 19.725772 19.840055
5.900000 18.655336 19.226652 19.466774 19.463894 19.776196 19.893272
5.920000 18.710823 19.282411 19.534290 19.519661 19.830469 19.947293
5.960000 18.853311 19.383984 19.647474 19.627030 19.929933 20.048949
6.000000 18.962170 19.474068 19.765738 19.731391 20.024426 20.146110
6.040000 19.076040 19.573796 19.877600 19.836085 20.115173 20.264399
6.080000 19.191276 19.670089 19.987101 19.940634 20.219203 20.372983
6.120000 19.300073 19.762804 20.095447 20.044132 20.321918 20.487935
6.160000 19.404660 19.869618 20.208765 20.147963 20.422465 20.603961
6.200000 19.532025 19.969502 20.327019 20.254695 20.529599 20.707346
6.240000 19.612526 20.063700 20.430131 20.363369 20.642391 20.805756
6.280000 19.750124 20.165237 20.541707 20.475751 20.754328 20.922086
6.320000 19.852326 20.278848 20.650049 20.589117 20.867179 21.058588
6.360000 19.974806 20.395634 20.762456 20.704824 20.992414 21.161653
6.400000 20.067435 20.511940 20.872993 20.819633 21.114671 21.277262
6.440000 20.187263 20.626347 20.992024 20.936937 21.234214 21.381247
6.480000 20.308144 20.741781 21.111100 21.055084 21.349176 21.489766
6.520000 20.462012 20.858261 21.239519 21.174992 21.473144 21.613592
6.560000 20.598809 20.988370 21.360266 21.292793 21.577582 21.705390
6.600000 20.701986 21.103919 21.474622 21.410229 21.682605 21.813293
6.640000 20.788017 21.225154 21.590344 21.521643 21.783349 21.910531
6.680000 20.872408 21.351168 21.711162 21.634302 21.883780 22.000080
6.720000 20.991617 21.468856 21.821239 21.743545 21.986524 22.091664
6.760000 21.072737 21.593224 21.928790 21.850686 22.083185 22.197196
6.810000 21.220545 21.760327 22.057142 21.983506 22.198976 22.300540
6.840000 21.302200 21.855336 22.138549 22.063103 22.269672 22.371094
6.880000 21.442182 21.969256 22.237944 22.165647 22.357768 22.462757
6.920000 21.559868 22.087937 22.338715 22.266609 22.450788 22.550599
6.960000 21.667636 22.197248 22.431068 22.366759 22.546471 22.643944
7.000000 21.790567 22.297242 22.524020 22.464211 22.635874 22.742892
7.040000 22.018310 22.411919 22.609791 22.562182 22.725140 22.836448
7.080000 22.173174 22.514418 22.704913 22.661958 22.814518 22.926074
7.120000 22.277709 22.625711 22.794927 22.762469 22.899460 23.018454
7.160000 22.446360 22.728388 22.887930 22.862605 22.994796 23.126479
7.200000 22.576419 22.832918 22.976172 22.961706 23.089409 23.254002
7.240000 22.684495 22.925863 23.065676 23.059045 23.182577 23.414052
7.280000 22.830642 23.033463 23.159598 23.159138 23.277847 23.503361
7.320000 22.967138 23.133838 23.255439 23.262351 23.382906 23.599480
7.360000 23.076699 23.230214 23.346273 23.363815 23.492815 23.781099
7.400000 23.197726 23.329312 23.444017 23.466640 23.597074 23.909407
7.440000 23.286966 23.419596 23.541536 23.568160 23.703899 24.044045
7.480000 23.385665 23.519881 23.641932 23.675082 23.819207 24.170081
7.520000 23.494020 23.617819 23.750737 23.787146 23.953548 24.320514
7.560000 23.593846 23.720564 23.864887 23.904671 24.068588 24.503548
7.600000 23.697108 23.829360 23.982991 24.025577 24.202579 24.635616
7.640000 23.806356 23.931485 24.101423 24.145915 24.359126 24.777641
7.680000 23.901731 24.048175 24.208115 24.264242 24.487983 24.915346
7.720000 24.014983 24.157078 24.332997 24.391561 24.629744 25.057624
7.760000 24.128438 24.275831 24.472014 24.520072 24.764661 25.189882
7.840000 24.341134 24.521521 24.748057 24.784072 25.027350 25.530012
7.880000 24.469638 24.644710 24.882696 24.921378 25.151013 25.670861
7.900000 24.520951 24.703021 24.949009 24.990171 25.224899 25.733044
7.920000 24.577236 24.779900 25.021747 25.060113 25.297152 25.790478
7.960000 24.717804 24.924415 25.152711 25.192647 25.417999 25.907487
8.040000 25.016306 25.207915 25.407664 25.462492 25.679680 26.365923
8.080000 25.136288 25.351696 25.542428 25.596039 25.811205 26.539693
8.100000 25.197200 25.409176 25.610420 25.661924 25.881241 26.583053
8.120000 25.263437 25.476887 25.667086 25.726928 25.954257 26.646451
8.160000 25.379057 25.596644 25.782712 25.851388 26.114815 26.811723
8.200000 25.494583 25.710256 25.902457 25.976582 26.262831 26.963244
8.240000 25.613664 25.810912 26.009534 26.097212 26.405998 27.070108
8.280000 25.723923 25.919637 26.122610 26.215112 26.534256 27.194286
8.320000 25.832570 26.017763 26.235096 26.330610 26.672482 27.316128
8.360000 25.952773 26.112641 26.344917 26.443437 26.793059 27.396175
8.440000 26.127770 26.289611 26.586048 26.657636 27.021438 27.651610
8.480000 26.250706 26.385430 26.711180 26.770488 27.145186 27.831368
8.520000 26.348591 26.489905 26.819326 26.887057 27.249222 27.932564
8.560000 26.445411 26.598939 26.937655 27.000189 27.372525 28.031380
8.600000 26.539269 26.702969 27.061553 27.114273 27.483201 28.126025
8.640000 26.640560 26.798663 27.205274 27.225789 27.608469 28.264833
8.680000 26.730618 26.906695 27.311969 27.337451 27.719389 28.358289
8.720000 26.831781 27.006626 27.425700 27.452419 27.858345 28.471650
8.760000 26.926871 27.112421 27.539740 27.563216 27.967077 28.572736
8.840000 27.113800 27.309082 27.772586 27.772177 28.192023 28.796511
8.880000 27.216840 27.414432 27.908324 27.881927 28.317329 28.872743
8.920000 27.311573 27.517483 28.019374 27.990383 28.427487 28.987507
8.960000 27.408707 27.624156 28.127666 28.106079 28.565863 29.100732
9.000000 27.508211 27.729088 28.236746 28.220658 28.704453 29.197106
9.040000 27.602733 27.841356 28.354613 28.333410 28.813654 29.310773
9.080000 27.715331 27.955102 28.475914 28.452431 28.947145 29.435038
9.120000 27.833131 28.078326 28.583612 28.571003 29.072823 29.596929
9.160000 27.958604 28.180765 28.697484 28.690214 29.224815 29.705438
9.240000 28.186002 28.380374 28.923193 28.929235 29.487664 29.920157
9.280000 28.301246 28.483241 29.032705 29.048354 29.631894 30.059893
9.320000 28.427901 28.589255 29.144151 29.171853 29.763969 30.210057
9.360000 28.541276 28.692373 29.271087 29.300462 29.904242 30.371222
9.400000 28.637406 28.810744 29.393215 29.430686 30.027581 30.536012
9.440000 28.744373 28.919888 29.530385 29.562392 30.173288 30.748933
9.480000 28.857675 29.044118 29.659190 29.699230 30.327274 30.932744
9.520000 28.967983 29.167924 29.783474 29.841602 30.488122 31.060755
9.560000 29.089535 29.295550 29.948001 29.988591 30.647206 31.258933
9.600000 29.191219 29.449626 30.112895 30.144153 30.813838 31.469342
9.640000 29.316801 29.585828 30.277079 30.302044 30.978130 31.628247
9.680000 29.452717 29.727949 30.428912 30.462230 31.145915 31.795520
9.720000 29.579985 29.879509 30.582413 30.625594 31.307937 31.944097
9.760000 29.708089 30.045494 30.748690 30.789380 31.503396 32.111761
9.800000 29.856400 30.217309 30.940606 30.961284 31.697135 32.255310
9.840000 30.010762 30.394419 31.122214 31.140269 31.879738 32.379039
9.960000 30.619234 31.145811 31.832797 31.842446 32.520812 33.080624
10.000000 30.767119 31.369173 32.017736 32.023818 32.686991 33.221754
10.040000 31.007718 31.524416 32.203396 32.192963 32.820371 33.391154
10.080000 31.169690 31.674575 32.375192 32.351867 32.951084 33.557339
10.120000 31.318650 31.880190 32.536151 32.513362 33.077970 33.727260
10.160000 31.469684 32.065469 32.700733 32.682946 33.216610 33.884181
10.200000 31.684523 32.243659 32.859036 32.844198 33.368834 34.064437
10.240000 31.833083 32.420082 33.039049 33.002871 33.515316 34.222991
10.280000 32.005994 32.619520 33.187890 33.163379 33.660636 34.411824
10.360000 32.426270 32.959438 33.469472 33.495719 33.970865 34.759933
10.400000 32.606751 33.121203 33.609418 33.645294 34.137179 34.886223
10.440000 32.750761 33.268822 33.751807 33.797386 34.295953 35.110333
10.480000 32.950038 33.424026 33.897822 33.951240 34.471619 35.259121
10.520000 33.093942 33.576938 34.057013 34.106714 34.622759 35.391128
10.560000 33.251836 33.729422 34.223473 34.265339 34.770133 35.558183
10.600000 33.409743 33.883211 34.378169 34.420613 34.966532 35.713253
10.640000 33.624602 34.019067 34.530506 34.577769 35.138187 35.888950
10.680000 33.774404 34.175588 34.680310 34.731596 35.305062 35.998271
10.720000 33.932138 34.304070 34.828934 34.888842 35.475251 36.145094
10.760000 34.057191 34.449897 34.985116 35.051781 35.673417 36.356614
10.800000 34.194187 34.613637 35.123952 35.203244 35.816197 36.503583
10.840000 34.333588 34.774150 35.272470 35.364711 35.993120 36.706049
10.880000 34.470377 34.940234 35.439314 35.525422 36.172188 36.925616
10.920000 34.586733 35.102340 35.594201 35.690600 36.324707 37.160968
10.960000 34.760037 35.243365 35.765370 35.851271 36.463797 37.345964
11.000000 34.915368 35.415482 35.940217 36.032681 36.634194 37.526079
11.040000 35.088049 35.577504 36.148464 36.204940 36.799846 37.796915
11.080000 35.267224 35.759088 36.338618 36.388243 36.973975 37.988845
11.120000 35.439767 35.929817 36.526026 36.568554 37.162654 38.207761
11.160000 35.589775 36.093125 36.693082 36.742996 37.372311 38.313144
11.200000 35.741361 36.285057 36.854565 36.923861 37.560206 38.513686
11.240000 35.915487 36.451407 37.023858 37.097346 37.750974 38.669463
11.280000 36.124062 36.642051 37.197792 37.280027 37.937028 38.799622
11.320000 36.288165 36.809551 37.390797 37.462822 38.141440 38.954248
11.360000 36.480661 36.972402 37.571431 37.638802 38.348317 39.077613
11.400000 36.670953 37.126218 37.777642 37.822028 38.556871 39.240821
11.440000 36.854650 37.302781 37.963534 37.997414 38.795840 39.401813
11.480000 37.048718 37.450873 38.118362 38.171457 38.969439 39.543189
11.520000 37.232886 37.610928 38.278942 38.341346 39.156365 39.709666
11.560000 37.425533 37.777961 38.450531 38.507256 39.294650 39.878284
11.600000 37.592421 37.943333 38.616773 38.678103 39.499626 40.020215
11.640000 37.734150 38.113800 38.780019 38.851520 39.667875 40.194664
11.680000 37.850721 38.293592 38.959398 39.018598 39.822850 40.330961
11.720000 38.028737 38.497058 39.126706 39.187669 40.010364 40.534187
11.760000 38.185113 38.663651 39.280898 39.352592 40.151306 40.729660
11.800000 38.311509 38.825347 39.452654 39.520132 40.296994 40.890661
11.840000 38.498552 39.005313 39.643672 39.694856 40.458569 41.069787
11.880000 38.682853 39.217338 39.798265 39.867609 40.590668 41.189291
11.920000 38.869397 39.421298 39.969040 40.039022 40.756679 41.360264
11.960000 39.079819 39.586192 40.149703 40.213404 40.899407 41.509989
12.000000 39.274725 39.775806 40.318781 40.381773 41.054215 41.652074
12.040000 39.394970 39.950333 40.478180 40.547925 41.232328 41.807085
12.080000 39.596770 40.122662 40.654995 40.717606 41.369181 41.929749
12.120000 39.769263 40.317398 40.848970 40.892657 41.516012 42.045213
12.160000 39.982938 40.505455 41.007603 41.064620 41.678120 42.207850
12.200000 40.144057 40.693497 41.183300 41.236777 41.837824 42.361034
12.240000 40.361589 40.862584 41.354518 41.401269 41.988839 42.453993
12.280000 40.550337 41.037503 41.531468 41.570088 42.156674 42.602684
12.320000 40.769871 41.216056 41.725717 41.741041 42.310885 42.726724
12.360000 40.937486 41.396583 41.927487 41.914717 42.449411 42.834392
12.400000 41.168177 41.567561 42.135662 42.095396 42.623585 42.994269
12.440000 41.321430 41.726153 42.329642 42.269347 42.779534 43.127122
12.480000 41.494093 41.887958 42.515478 42.441438 42.920512 43.234448
12.500000 41.551049 41.973222 42.590010 42.521440 43.006018 43.320377
12.520000 41.627892 42.060201 42.663714 42.602078 43.081392 43.383377
12.560000 41.801544 42.279858 42.842138 42.785925 43.220347 43.488555
12.600000 42.086270 42.609641 43.018371 42.987389 43.401974 43.621233
12.640000 42.303880 42.833902 43.199145 43.183886 43.581493 43.787925
12.680000 42.576283 43.056223 43.388749 43.370753 43.735564 43.926853
12.700000 42.691925 43.125606 43.463760 43.449396 43.808353 44.009185
12.720000 42.746847 43.187902 43.538444 43.520750 43.872191 44.078918
12.760000 42.929197 43.342633 43.707202 43.671837 43.994256 44.189024
12.800000 43.122323 43.497372 43.849214 43.813873 44.127513 44.329729
12.840000 43.282022 43.631102 43.984819 43.949964 44.250388 44.433781
12.880000 43.455653 43.769579 44.118701 44.083451 44.367225 44.554329
12.920000 43.608297 43.900365 44.254899 44.212541 44.487021 44.671130
12.960000 43.748826 44.042277 44.383669 44.343021 44.604061 44.808219
13.000000 43.890862 44.194695 44.517065 44.478246 44.720867 45.005407
13.040000 44.036396 44.351859 44.649046 44.618318 44.849547 45.143351
13.080000 44.179838 44.474743 44.777366 44.753233 44.983865 45.287080
13.120000 44.300453 44.626767 44.907086 44.889739 45.121035 45.443740
13.160000 44.460259 44.768950 45.026491 45.025157 45.259502 45.594399
13.200000 44.591578 44.917664 45.150362 45.158287 45.410761 45.735749
13.240000 44.720471 45.050920 45.272862 45.294401 45.545799 45.919214
13.280000 44.860631 45.183264 45.403982 45.430571 45.689293 46.050286
13.320000 45.038169 45.329587 45.533480 45.570305 45.849210 46.215610
13.360000 45.164262 45.454220 45.667755 45.705960 45.989252 46.349035
13.400000 45.315035 45.576558 45.790279 45.835052 46.120345 46.492741
13.440000 45.453580 45.697718 45.917124 45.965916 46.272958 46.655104
13.480000 45.558861 45.805297 46.052364 46.099065 46.433482 46.801558
13.520000 45.683063 45.934063 46.188933 46.232642 46.579221 46.937987
13.560000 45.802210 46.056825 46.335739 46.373101 46.709454 47.065398
13.600000 45.946355 46.197235 46.484381 46.512474 46.846371 47.189827
13.640000 46.076736 46.329048 46.625927 46.654710 47.000733 47.365176
13.680000 46.186821 46.488666 46.783785 46.800820 47.141808 47.550257
13.720000 46.344439 46.631639 46.944946 46.947664 47.268358 47.666151
