depth(m) lower_95(kyr) lower_68(kyr) median(kyr) mean(kyr) upper_68(kyr) upper_95(kyr)
187.535000 1814.337079 1814.652061 1815.379196 1815.341855 1816.018798 1816.226444
187.635000 1815.539150 1816.324106 1817.405675 1817.734667 1819.049256 1822.443204
187.735000 1816.898887 1817.985429 1819.529761 1820.214362 1822.622196 1827.231234
187.835000 1818.420664 1819.807254 1821.927851 1822.792234 1826.328124 1830.736464
187.935000 1819.977022 1821.671847 1824.502791 1825.402671 1829.619595 1834.235303
188.035000 1821.529777 1823.469562 1827.186247 1827.851473 1832.216929 1837.429167
188.135000 1822.925174 1825.577708 1830.073489 1830.362103 1834.743180 1839.711727
188.235000 1824.717229 1827.951927 1832.657791 1832.892674 1837.425337 1842.260166
188.335000 1826.370236 1830.294813 1835.069888 1835.202913 1839.710647 1845.003891
188.475000 1829.121410 1833.368434 1838.216149 1838.429116 1842.791173 1852.031078
188.615000 1832.406693 1836.506698 1841.221606 1841.635470 1845.332441 1860.445156
188.755000 1835.746938 1839.954658 1844.223860 1844.726279 1848.088448 1867.028814
188.895000 1839.523063 1843.312366 1846.987623 1847.870931 1850.473814 1876.131355
189.035000 1843.494979 1846.629017 1849.851187 1850.984676 1852.911399 1882.626073
189.135000 1845.843514 1849.125769 1852.002588 1853.061536 1854.716580 1885.664452
189.235000 1847.710142 1851.273568 1854.097277 1855.219740 1856.568407 1888.882548
189.335000 1850.687755 1853.794543 1856.214140 1857.426380 1858.406746 1891.818632
189.435000 1854.039953 1856.660737 1858.585331 1859.893182 1860.659539 1894.675311
189.535000 1857.288884 1859.092291 1860.923737 1862.333271 1862.837449 1896.926017
189.635000 1859.587343 1861.334684 1863.170885 1864.565938 1865.066521 1898.637518
189.735000 1861.921023 1863.318848 1865.139547 1866.613245 1867.154972 1900.306159
189.835000 1863.721898 1865.185729 1867.016569 1868.521782 1869.212344 1901.914416
189.935000 1865.365386 1866.910819 1868.901742 1870.410165 1871.250531 1903.497043
190.035000 1867.229072 1868.774234 1870.814002 1872.398311 1873.384187 1904.991847
190.135000 1868.972565 1870.730805 1872.868232 1874.592779 1875.887028 1906.218182
190.235000 1871.326730 1872.997091 1875.411312 1877.563985 1879.864233 1907.778961
190.335000 1873.031433 1875.503241 1878.867058 1881.197345 1886.012394 1908.916084
190.435000 1875.329129 1879.112492 1884.317599 1886.278825 1893.601365 1910.195046
190.535000 1879.692314 1885.633090 1892.213364 1892.431969 1897.596888 1911.629948
190.635000 1883.599483 1893.893324 1898.330104 1898.545808 1903.719264 1912.905384
190.685000 1885.974386 1896.102031 1900.018937 1900.367774 1905.675296 1913.706984
190.785000 1894.148612 1899.879911 1904.498715 1904.629136 1909.811034 1915.359078
190.885000 1900.600701 1904.730604 1908.719497 1908.737620 1913.005172 1916.993998
190.985000 1905.655909 1910.003699 1913.615953 1913.214903 1916.837470 1919.325890
191.085000 1910.832106 1914.151759 1917.041235 1916.768162 1919.769472 1922.053043
191.185000 1914.161812 1917.029066 1919.648848 1919.353637 1922.026143 1924.123763
191.285000 1916.683450 1919.389227 1921.823724 1921.604515 1924.066452 1926.383363
191.385000 1918.871695 1921.601601 1924.037783 1923.830417 1926.340929 1929.150005
191.485000 1921.403060 1923.983513 1926.392829 1926.262157 1928.626012 1931.417952
191.585000 1924.081846 1926.626013 1928.945056 1928.855789 1931.332540 1933.900255
191.685000 1926.900193 1929.092708 1931.477171 1931.365281 1933.920403 1936.098513
191.785000 1928.920161 1931.628327 1934.001847 1933.827627 1936.335800 1938.410929
191.885000 1931.238801 1933.914709 1936.449897 1936.186442 1938.637027 1940.601283
191.985000 1934.025612 1936.564827 1938.894060 1938.719201 1941.250036 1943.571621
192.085000 1936.598915 1939.120515 1941.331673 1941.280707 1943.812257 1946.538729
192.185000 1939.610684 1941.828976 1943.846992 1943.810090 1946.120512 1949.249878
192.285000 1941.729745 1943.768083 1945.913516 1945.933392 1948.380671 1951.777252
192.385000 1944.026125 1945.828863 1948.012869 1948.081468 1950.551658 1954.262458
192.485000 1945.918766 1947.682033 1950.072910 1950.122172 1952.811775 1956.038294
192.585000 1947.644324 1949.570234 1952.031226 1952.159725 1955.235252 1957.986709
192.685000 1949.321495 1951.407818 1954.070631 1954.200883 1957.343989 1960.241302
192.785000 1950.925506 1953.300343 1956.310381 1956.270297 1959.615096 1962.481407
192.885000 1953.073955 1955.687332 1958.637013 1958.519772 1961.744450 1964.369437
192.985000 1955.265142 1957.992680 1961.108157 1960.943219 1964.251849 1966.584477
193.085000 1957.668111 1960.887769 1964.020173 1963.649851 1966.684126 1968.981354
193.185000 1960.275488 1963.844587 1966.664816 1966.257156 1969.021201 1971.160960
193.285000 1963.653329 1966.674589 1969.005004 1968.757989 1971.213006 1973.714346
193.385000 1966.729686 1969.218084 1971.221970 1971.191398 1973.693502 1976.366848
193.485000 1968.742381 1971.037657 1973.142192 1973.196091 1975.800861 1978.955753
193.585000 1970.671658 1972.838770 1975.130746 1975.267856 1978.232134 1981.434310
193.685000 1972.845958 1974.803232 1977.218513 1977.435614 1980.558329 1983.720024
193.785000 1974.603994 1976.944837 1979.480776 1979.613844 1982.816362 1985.772437
193.885000 1976.529974 1978.997314 1981.723672 1981.844287 1985.234998 1988.792009
193.985000 1978.393534 1980.847246 1984.203599 1984.102762 1987.566905 1990.776654
194.085000 1980.449998 1983.270029 1986.849981 1986.610551 1990.034381 1993.257337
194.185000 1982.781153 1985.921400 1989.534623 1989.253252 1992.753473 1995.583866
194.285000 1985.578960 1989.349308 1992.677871 1992.366951 1995.743296 1998.672786
194.385000 1989.329287 1993.234743 1996.259619 1995.953578 1999.070596 2001.895643
194.485000 1993.664661 1996.239410 1999.032819 1998.774219 2001.616348 2004.154763
194.585000 1995.915901 1998.580277 2001.292303 2001.026524 2003.948553 2006.276443
194.685000 1997.791456 2000.368669 2003.305773 2003.048870 2006.171096 2008.262980
194.785000 1999.431142 2002.230008 2005.403291 2005.072054 2008.304336 2010.336823
194.885000 2001.160156 2004.295844 2007.338247 2006.979899 2010.073182 2011.849343
194.985000 2003.393648 2006.192898 2009.291182 2008.863578 2011.844024 2013.591843
195.085000 2005.030984 2008.267460 2011.226590 2010.827134 2013.748199 2015.523246
195.185000 2006.995301 2010.400591 2013.252995 2012.712952 2015.270787 2017.027283
195.285000 2009.296074 2012.359752 2015.016684 2014.505836 2016.896351 2018.390768
195.385000 2011.626817 2014.543768 2016.849793 2016.424889 2018.542872 2019.905318
195.485000 2014.446510 2016.964466 2018.762971 2018.430961 2020.165898 2021.624706
195.585000 2016.593721 2018.953749 2020.546948 2020.275901 2021.874841 2023.312990
195.685000 2019.058671 2020.792023 2022.200727 2022.012284 2023.610216 2025.042572
195.785000 2021.064744 2022.387289 2023.763496 2023.613592 2025.113992 2026.647773
195.885000 2022.443376 2023.907725 2025.261039 2025.109304 2026.640173 2028.064681
195.985000 2024.010620 2025.336712 2026.685584 2026.548450 2028.112663 2029.639255
196.085000 2025.079259 2026.734788 2028.165350 2028.028069 2029.664811 2031.284110
196.185000 2026.418214 2028.182484 2029.613434 2029.533951 2031.273258 2033.279901
196.285000 2027.770142 2029.564374 2031.183573 2031.166694 2033.241480 2035.534929
196.385000 2029.321542 2031.095779 2032.876141 2032.962493 2035.121909 2038.006750
196.485000 2030.732783 2032.796451 2034.641888 2034.812625 2037.182546 2040.575535
196.585000 2032.617006 2034.491687 2036.515627 2036.725748 2039.407545 2042.947456
196.685000 2034.330745 2036.340085 2038.438626 2038.725908 2041.656116 2045.042746
196.785000 2036.133089 2038.105420 2040.363572 2040.690512 2043.863470 2047.228471
196.885000 2037.781002 2039.687085 2042.233174 2042.503515 2045.679753 2048.910993
196.985000 2039.221463 2041.396414 2044.136957 2044.291441 2047.531810 2050.664634
197.085000 2040.912889 2043.046945 2046.089831 2046.115308 2049.433324 2052.917211
197.185000 2042.385533 2044.877697 2047.944592 2047.987384 2051.332851 2054.705176
197.285000 2043.986965 2046.527709 2049.954410 2049.872284 2053.292525 2056.602285
197.385000 2045.355982 2048.270326 2051.824579 2051.695904 2055.118268 2058.270713
197.485000 2047.190038 2050.124863 2053.648052 2053.552017 2056.880735 2060.254189
197.585000 2049.042901 2052.065580 2055.466867 2055.414758 2058.887226 2061.891732
197.685000 2050.990047 2054.020329 2057.351057 2057.318183 2060.572375 2063.549537
197.785000 2052.675415 2056.013969 2059.312133 2059.231928 2062.357603 2065.408999
197.885000 2054.551659 2058.475868 2061.683601 2061.444953 2064.470148 2067.167894
197.997500 2057.630965 2061.421671 2064.497440 2064.275747 2066.927601 2069.698491
198.110000 2061.426291 2064.692191 2067.215371 2067.083662 2069.579376 2071.946424
198.210000 2064.331945 2066.976812 2069.270066 2069.220313 2071.435001 2073.854168
198.310000 2066.593172 2068.959274 2071.052127 2071.024973 2073.181313 2075.558760
198.410000 2068.518698 2070.667615 2072.769019 2072.736988 2074.818487 2076.987048
198.510000 2070.328553 2072.310650 2074.390309 2074.395468 2076.431103 2078.892821
198.610000 2071.797890 2073.955238 2075.934940 2075.986062 2078.085549 2080.565261
198.710000 2073.343374 2075.442290 2077.443627 2077.590280 2079.894306 2082.443305
198.843333 2075.595509 2077.561624 2079.593660 2079.785904 2082.199059 2084.844433
198.976667 2077.502205 2079.539739 2081.835305 2081.916578 2084.358683 2087.227058
199.110000 2079.579166 2081.528986 2083.939321 2084.100551 2086.752173 2089.069880
199.210000 2080.973751 2083.153609 2085.698248 2085.751414 2088.383670 2091.102287
199.335000 2082.637725 2084.981772 2087.612086 2087.636053 2090.309908 2092.988341
199.435000 2084.346886 2086.553997 2089.168093 2089.193883 2091.668873 2094.600535
199.535000 2085.815143 2088.252852 2090.801116 2090.872454 2093.343712 2096.456136
199.635000 2087.403724 2089.915041 2092.659111 2092.613696 2094.997983 2098.358711
199.735000 2089.353947 2091.887679 2094.557453 2094.522939 2096.970456 2100.225191
199.835000 2091.644164 2093.785072 2096.506080 2096.534023 2099.037409 2102.060115
199.935000 2093.713778 2095.876891 2098.451641 2098.601016 2101.286052 2104.509425
200.035000 2095.641689 2097.805546 2100.474086 2100.630497 2103.283529 2106.874804
200.135000 2097.323347 2099.734981 2102.424515 2102.645525 2105.567978 2109.194049
200.235000 2099.105083 2101.567051 2104.350432 2104.574169 2107.646306 2110.981426
200.335000 2100.684554 2103.364386 2106.425870 2106.569428 2109.783128 2113.545198
200.435000 2102.283916 2105.274547 2108.385650 2108.545590 2111.891414 2115.849775
200.535000 2104.229317 2107.263667 2110.323549 2110.541313 2113.853577 2117.553080
200.635000 2105.960887 2109.193766 2112.495883 2112.529515 2115.876660 2119.453394
200.735000 2107.800238 2110.997867 2114.482617 2114.458468 2117.909623 2121.074999
200.835000 2109.700882 2112.843905 2116.355912 2116.342179 2119.578277 2122.809534
200.935000 2111.626745 2114.849631 2118.377787 2118.276420 2121.490531 2124.719991
201.035000 2113.224232 2116.811534 2120.477040 2120.242992 2123.364423 2126.573554
201.135000 2115.399608 2119.133848 2122.329982 2122.133363 2125.103109 2128.203363
201.235000 2117.366254 2121.285915 2124.247708 2124.080015 2127.003424 2129.729888
201.335000 2119.825024 2123.331230 2126.319564 2126.083638 2128.957804 2131.286276
201.435000 2121.818364 2125.267849 2128.150655 2127.958864 2130.539932 2132.913850
201.535000 2124.104623 2127.103920 2129.846303 2129.661341 2132.255176 2134.383105
201.635000 2125.857513 2128.841802 2131.381565 2131.276932 2133.749292 2136.073630
201.735000 2127.731788 2130.497839 2132.990148 2132.899246 2135.329933 2137.362182
201.835000 2129.728245 2132.211346 2134.593132 2134.493852 2136.810044 2138.750312
201.935000 2131.495747 2133.975370 2136.158257 2136.116992 2138.353740 2140.158916
202.035000 2133.726372 2135.741464 2137.912316 2137.851911 2139.795778 2141.645023
202.135000 2135.754620 2137.849124 2139.901475 2139.802382 2141.697358 2143.485737
202.235000 2138.047727 2140.374060 2142.531191 2142.514684 2144.626744 2146.944343
202.335000 2141.399050 2143.522829 2145.564985 2145.547425 2147.627319 2149.459343
202.435000 2145.363828 2147.243832 2149.332229 2149.377066 2151.484315 2153.743395
202.535000 2147.637500 2149.791835 2151.853324 2151.897501 2153.989304 2156.201161
202.635000 2149.496494 2151.878345 2153.973509 2153.934479 2156.104848 2157.998575
202.735000 2151.421945 2153.512421 2155.831133 2155.709083 2157.814928 2159.767508
202.835000 2153.445412 2155.501162 2157.544715 2157.532481 2159.529204 2161.559015
202.935000 2155.209415 2157.794968 2159.689970 2159.635986 2161.511690 2163.497198
203.035000 2157.787599 2160.022333 2161.903600 2161.931476 2163.898279 2165.834706
203.135000 2159.972621 2162.002847 2164.080850 2164.028203 2166.040467 2167.954012
203.235000 2161.781178 2163.947488 2166.018820 2166.035231 2168.139020 2170.588362
203.335000 2163.827130 2166.033663 2168.189198 2168.246399 2170.582952 2172.720462
203.435000 2165.706964 2167.728105 2170.041176 2170.072073 2172.386478 2174.498636
203.535000 2167.643877 2169.713297 2171.927206 2171.913002 2174.017818 2176.020595
203.635000 2169.825397 2172.035560 2174.118277 2174.063622 2175.997327 2178.030621
203.735000 2172.584741 2174.536338 2176.318933 2176.391333 2178.177397 2180.393050
203.835000 2174.977148 2177.002443 2178.599169 2178.714162 2180.476970 2182.848331
203.935000 2177.239972 2178.813263 2180.518522 2180.669773 2182.670684 2184.825165
204.035000 2178.723073 2180.520886 2182.381848 2182.513567 2184.576009 2186.763503
204.135000 2180.527433 2182.162340 2184.252990 2184.408829 2186.597010 2189.007618
204.235000 2182.183574 2184.139212 2186.385560 2186.540634 2189.020194 2191.695382
204.335000 2183.837821 2185.954396 2188.440718 2188.618913 2191.234513 2194.058013
204.435000 2185.747635 2187.893582 2190.528431 2190.676460 2193.476783 2196.429649
204.535000 2187.647658 2189.837338 2192.415309 2192.569072 2195.277749 2198.234498
204.635000 2189.439527 2191.615843 2194.338864 2194.471243 2197.243639 2200.432929
204.735000 2191.385627 2193.759906 2196.410181 2196.511796 2199.160486 2202.258466
204.835000 2192.924838 2195.936396 2198.536108 2198.604946 2201.307498 2204.249521
204.935000 2195.071178 2198.133926 2200.763950 2200.743318 2203.276875 2206.059060
205.035000 2197.018834 2200.445257 2203.103162 2203.057302 2205.622808 2208.379808
205.135000 2199.585976 2202.789983 2205.594440 2205.593289 2208.407622 2211.199770
205.268333 2202.261505 2205.684513 2208.612741 2208.698005 2211.940676 2215.039915
205.401667 2205.525763 2208.525065 2211.561373 2211.707132 2214.997522 2217.979743
205.535000 2208.402722 2211.311475 2214.349024 2214.493704 2217.739413 2220.757527
205.635000 2210.047208 2213.373958 2216.545192 2216.476590 2219.673332 2222.733432
205.735000 2211.856842 2215.481682 2218.615320 2218.551558 2221.704183 2224.859551
205.835000 2214.356796 2217.588335 2220.689752 2220.620156 2223.635927 2226.495151
205.935000 2216.648875 2219.659708 2222.634716 2222.641327 2225.757284 2228.234213
206.035000 2218.822016 2221.759407 2224.702687 2224.595662 2227.565075 2229.650296
206.135000 2220.542531 2223.900913 2226.680735 2226.548864 2229.513684 2231.160811
206.235000 2222.773424 2226.052988 2228.779976 2228.585955 2231.182506 2232.860396
206.335000 2225.593461 2228.624321 2231.141983 2230.823586 2233.072705 2234.558615
206.435000 2228.644776 2231.567774 2233.790496 2233.496611 2235.356995 2236.884954
206.535000 2231.353553 2234.275345 2236.127573 2235.977015 2237.695347 2239.604763
206.635000 2235.084973 2236.670527 2238.216717 2238.315832 2239.933912 2241.965203
206.735000 2236.955603 2238.563406 2240.126438 2240.233090 2241.971879 2243.914056
206.835000 2238.649142 2240.317470 2242.004045 2242.078093 2243.885843 2245.729972
206.935000 2240.451657 2242.184601 2243.908706 2244.000211 2245.886694 2247.904661
207.035000 2242.364535 2244.324465 2246.282410 2246.484673 2248.675267 2251.308178
207.135000 2244.545886 2246.935081 2249.612808 2249.815948 2252.835387 2255.550746
207.235000 2247.350976 2250.549276 2253.201816 2253.194219 2256.049634 2258.319122
207.335000 2251.228824 2253.904582 2256.474320 2256.235390 2258.550615 2260.379390
207.435000 2254.202104 2256.105244 2258.376796 2258.314856 2260.446720 2262.118944
207.560000 2256.385106 2258.410309 2260.501739 2260.433116 2262.467747 2264.054474
207.685000 2258.377273 2260.330317 2262.431029 2262.337865 2264.313485 2265.792598
207.785000 2260.292965 2262.011827 2264.042162 2263.938044 2265.817866 2267.275059
207.885000 2262.265774 2264.170088 2265.948979 2265.829352 2267.576637 2268.962863
207.985000 2264.661023 2266.589893 2268.186320 2268.140508 2269.636851 2271.254319
208.085000 2267.854305 2269.541242 2271.108868 2271.105586 2272.623973 2274.352515
208.185000 2270.542779 2272.218272 2273.943430 2274.046982 2275.859021 2277.882562
208.285000 2272.931642 2274.674990 2276.606619 2276.659059 2278.595398 2280.925493
208.385000 2274.874614 2276.916847 2279.180117 2279.062392 2281.114534 2282.948849
208.485000 2276.524831 2279.049206 2281.374180 2281.207848 2283.366643 2284.839271
208.585000 2278.519645 2281.246664 2283.449700 2283.244081 2285.231555 2286.887493
208.685000 2280.697415 2283.264109 2285.369607 2285.197733 2287.019743 2288.646939
208.785000 2283.540032 2285.515358 2287.357371 2287.214018 2288.843235 2290.368545
208.885000 2285.968749 2287.795560 2289.479205 2289.379572 2290.962890 2292.438372
208.985000 2288.201566 2289.775148 2291.252860 2291.275013 2292.803059 2294.311506
209.085000 2290.351993 2291.834165 2293.332856 2293.301677 2294.777228 2296.274897
209.185000 2292.577968 2294.019636 2295.636238 2295.574981 2297.132440 2298.396542
209.285000 2294.309865 2295.848900 2297.324954 2297.332192 2298.883577 2300.010768
209.385000 2295.878043 2297.344767 2298.927885 2298.896920 2300.444866 2301.605296
209.485000 2297.285946 2298.839992 2300.424590 2300.366357 2301.805843 2303.126489
209.585000 2298.638455 2300.372698 2301.966964 2301.844229 2303.273960 2304.565190
209.685000 2300.195302 2301.934251 2303.514370 2303.374892 2304.802577 2305.994975
209.785000 2302.034431 2303.483839 2304.961302 2304.904408 2306.224821 2307.576534
209.885000 2304.095628 2305.412627 2306.725367 2306.768260 2308.001100 2309.696930
209.985000 2306.129191 2307.181440 2308.482429 2308.623926 2309.891895 2312.153014
210.085000 2307.749718 2308.900030 2310.208133 2310.429295 2311.992662 2314.290580
210.185000 2309.141474 2310.420026 2311.903529 2312.171976 2313.971644 2316.184167
210.285000 2310.523506 2311.863992 2313.605591 2313.832437 2315.811966 2318.007483
210.385000 2311.976562 2313.426851 2315.356355 2315.494369 2317.591408 2320.335857
210.485000 2313.295599 2314.902914 2316.970017 2317.150312 2319.455635 2322.134072
210.585000 2314.754236 2316.426769 2318.627083 2318.821627 2321.275646 2324.138807
210.685000 2316.296838 2317.940721 2320.341865 2320.538443 2323.017198 2325.858459
210.785000 2317.835935 2319.629589 2322.201073 2322.276079 2324.812635 2327.676866
210.885000 2319.588854 2321.464073 2324.045678 2324.166824 2326.701050 2329.825239
210.985000 2321.222042 2323.557883 2326.190201 2326.306615 2328.971577 2332.076526
211.085000 2323.327835 2326.069596 2328.835764 2328.948047 2331.642445 2334.867461
211.185000 2326.460225 2329.104440 2332.115321 2332.124557 2335.012462 2337.895666
211.285000 2328.894720 2331.934214 2334.967334 2334.967762 2337.854098 2340.638277
211.385000 2332.016459 2334.501371 2337.599213 2337.575637 2340.626615 2343.249152
211.485000 2334.021996 2337.209054 2340.110941 2339.942546 2342.827927 2345.144431
211.585000 2336.236880 2339.177746 2342.176434 2341.982931 2344.841931 2346.922682
211.685000 2338.438187 2341.206459 2344.134384 2343.900829 2346.511653 2348.538529
211.785000 2340.720824 2343.361787 2345.950407 2345.899935 2348.451546 2350.360352
