depth(m) lower_95(kyr) lower_68(kyr) median(kyr) mean(kyr) upper_68(kyr) upper_95(kyr)
0.030000 0.149292 0.694743 1.466914 1.489612 2.271558 3.080785
0.070000 1.069563 1.722430 2.514626 2.593970 3.497192 4.416333
0.100000 1.845534 2.512744 3.322682 3.445371 4.453685 5.531214
0.130000 2.693389 3.382812 4.405011 4.462846 5.557803 6.633163
0.170000 3.685345 4.825857 6.012480 6.030487 7.170160 8.362983
0.200000 4.772928 6.032199 7.255046 7.203354 8.407518 9.385296
0.230000 6.387882 7.637349 8.802439 8.717054 9.777629 10.574530
0.270000 8.776925 9.635289 10.464613 10.456196 11.266975 12.075769
0.300000 9.831738 10.568298 11.329716 11.320447 12.085380 12.738909
0.330000 10.686901 11.445118 12.105216 12.109412 12.798347 13.409291
0.370000 11.625264 12.279314 12.958832 12.934856 13.586070 14.127787
0.400000 12.334237 12.940279 13.544022 13.561541 14.231964 14.771178
0.430000 12.908106 13.566972 14.129556 14.149599 14.803220 15.349457
0.470000 13.489799 14.151099 14.739920 14.750434 15.372083 15.995833
0.500000 14.140477 14.731541 15.320224 15.330762 15.972529 16.546538
0.530000 14.879392 15.458720 16.151886 16.160737 16.861313 17.529712
0.570000 15.608301 16.294294 17.014801 17.006999 17.683142 18.360198
0.600000 16.245646 16.856033 17.571608 17.554368 18.178931 18.855168
0.630000 16.720632 17.363125 18.016660 18.033487 18.676991 19.502099
0.670000 17.331249 17.985391 18.599322 18.627654 19.245526 20.234180
0.700000 17.759228 18.398229 19.003382 19.060285 19.689716 20.665368
0.730000 18.171889 18.825187 19.392375 19.480230 20.174814 21.082947
0.770000 18.675959 19.335034 19.965655 20.036742 20.770621 21.746407
0.800000 19.060554 19.733309 20.389959 20.470216 21.217458 22.263046
0.830000 19.479562 20.151851 20.812369 20.909723 21.691823 22.728745
0.870000 20.062684 20.687463 21.425653 21.522123 22.381623 23.517813
0.900000 20.522730 21.109069 21.901605 22.014076 22.939701 24.194361
0.930000 20.990802 21.593957 22.396693 22.563866 23.505098 25.102043
0.970000 21.620325 22.244862 23.158666 23.380200 24.488577 26.392856
1.000000 22.139429 22.779484 23.843572 24.029592 25.297620 27.215062
1.030000 22.616417 23.327293 24.528035 24.713498 26.177854 27.866223
1.070000 23.234550 24.173700 25.530672 25.729674 27.372470 28.797449
1.100000 23.740213 24.845347 26.230428 26.438004 28.101373 29.462639
1.130000 24.479376 25.542598 26.990351 27.137792 28.870727 30.226639
1.170000 25.218070 26.447804 28.017797 28.054949 29.695178 30.947859
1.200000 25.898109 27.208198 28.722099 28.707245 30.264247 31.554744
1.230000 26.641735 27.871431 29.422742 29.357255 30.724220 32.038300
1.270000 27.617472 28.970150 30.256383 30.229005 31.429128 32.547909
1.300000 28.339611 29.698314 30.853558 30.826817 31.924529 33.078122
1.330000 29.153108 30.334484 31.419307 31.392810 32.415771 33.597081
1.370000 29.929607 31.080102 32.058113 32.089012 33.120102 34.317706
1.400000 30.617104 31.576056 32.565021 32.597077 33.607350 34.753606
1.430000 31.184446 32.104078 33.059266 33.074489 34.026758 35.135754
1.470000 31.837916 32.701412 33.591316 33.653092 34.672517 35.653053
1.500000 32.288235 33.173207 34.008347 34.107268 35.064586 36.049560
1.530000 32.722232 33.614262 34.480914 34.554123 35.538943 36.519031
1.570000 33.296171 34.171844 35.073507 35.143929 36.156232 37.094415
1.600000 33.713443 34.574835 35.553820 35.587406 36.590871 37.529652
1.630000 34.153101 35.010282 35.998556 36.030796 37.063439 37.889892
1.670000 34.673901 35.585718 36.555626 36.593172 37.552596 38.524967
1.700000 35.124974 35.994437 37.017888 37.026359 38.000905 38.855933
1.730000 35.489623 36.394755 37.417885 37.437162 38.392487 39.209483
1.770000 36.036239 36.958322 37.988900 37.986028 38.881928 39.775749
1.800000 36.411332 37.404762 38.416776 38.399317 39.286624 40.097229
1.830000 36.869119 37.845999 38.826593 38.820669 39.666821 40.497713
1.870000 37.433043 38.381262 39.375865 39.356634 40.180021 41.052656
1.900000 37.838442 38.795328 39.802231 39.768089 40.545020 41.541176
1.930000 38.254983 39.260308 40.236588 40.185939 40.928451 41.982653
1.970000 38.868961 39.821048 40.746339 40.715909 41.446999 42.490117
2.000000 39.343284 40.211586 41.150617 41.120399 41.836587 42.851418
2.030000 39.834418 40.632010 41.543777 41.530441 42.246829 43.279095
2.070000 40.354831 41.188950 42.076526 42.074701 42.797261 43.849203
2.100000 40.769656 41.697097 42.484760 42.521489 43.217589 44.223925
2.130000 41.276030 42.172643 42.925210 42.999383 43.726004 44.672742
2.170000 41.993327 42.846570 43.584927 43.671644 44.445840 45.316470
2.200000 42.599295 43.407233 44.139824 44.217049 44.965632 45.866694
2.230000 43.210847 43.949658 44.711155 44.787600 45.515647 46.464432
2.270000 44.158739 44.784892 45.540462 45.574971 46.253552 47.070877
2.300000 44.739900 45.441503 46.166170 46.193252 46.807049 47.550211
2.320000 45.139886 45.953343 46.632327 46.653351 47.275282 47.975992
2.340000 45.779099 46.454196 47.114649 47.167887 47.777190 48.577912
2.360000 46.338284 46.943387 47.550468 47.608228 48.195675 49.157775
2.380000 46.706222 47.334155 47.959784 48.017309 48.622024 49.480637
2.400000 47.076926 47.715636 48.353745 48.409356 49.052551 49.883766
2.420000 47.440604 48.035619 48.718171 48.792924 49.487240 50.388014
2.440000 47.815382 48.364212 49.082468 49.188296 49.924604 51.004361
2.460000 48.067357 48.726211 49.447976 49.587569 50.367834 51.518447
2.480000 48.505049 49.107234 49.886699 50.018549 50.948304 52.072080
2.500000 48.829440 49.506261 50.340527 50.482835 51.464829 52.627604
2.520000 49.148297 49.937087 50.855337 50.944367 51.961936 53.004572
2.540000 49.503489 50.357769 51.412905 51.421119 52.451899 53.572181
2.560000 49.905132 50.789362 51.899944 51.896523 52.934151 54.200778
2.580000 50.279976 51.191651 52.353831 52.351487 53.389994 54.743372
2.600000 50.693714 51.671894 52.821146 52.817764 53.881862 55.223847
2.620000 51.098648 52.086088 53.289766 53.276934 54.368641 55.727044
2.640000 51.374425 52.513030 53.762224 53.740601 54.833313 56.186067
2.660000 51.928612 53.010418 54.264884 54.218701 55.374880 56.539968
2.680000 52.311097 53.414276 54.673304 54.680577 55.881596 57.140931
2.700000 52.765147 53.849184 55.168707 55.155825 56.341319 57.740052
2.720000 53.151124 54.338937 55.618030 55.599520 56.807461 58.152273
2.740000 53.476204 54.835697 56.108029 56.084110 57.332888 58.633205
2.760000 53.855414 55.269771 56.629585 56.567361 57.829477 59.124045
2.780000 54.308544 55.752447 57.130264 57.047984 58.299776 59.484846
2.800000 54.723760 56.305265 57.676297 57.539631 58.725935 59.826579
2.820000 55.175554 56.796952 58.155405 58.004778 59.148213 60.149414
2.840000 55.725693 57.294010 58.592341 58.462228 59.548371 60.621741
2.860000 56.280453 57.769096 59.075712 58.931212 60.005352 61.176889
2.880000 56.742126 58.298900 59.502381 59.396772 60.435900 61.551411
2.900000 57.147665 58.772751 59.942856 59.875798 60.937814 62.012403
2.920000 57.659864 59.302425 60.433832 60.388557 61.492822 62.717865
2.940000 58.356412 59.788697 60.954720 60.930484 62.095160 63.276941
2.960000 58.951181 60.269125 61.476214 61.448658 62.666716 63.697641
2.980000 59.570206 60.753533 62.081721 62.015519 63.240740 64.052283
3.000000 60.096197 61.312957 62.677722 62.560915 63.716782 64.445808
3.020000 60.688147 61.934467 63.305193 63.104668 64.180413 64.893835
3.040000 61.063310 62.521784 63.851066 63.626739 64.573395 65.285690
3.060000 61.833962 63.183048 64.347131 64.129744 64.966890 65.617076
3.080000 62.584225 63.849367 64.706723 64.571992 65.285263 65.949869
3.100000 63.243130 64.385256 65.056058 64.965408 65.594806 66.236599
3.120000 63.856387 64.815226 65.350797 65.314558 65.867941 66.510499
3.140000 64.402231 65.178973 65.627485 65.626191 66.140886 66.740544
3.160000 64.854845 65.450484 65.904019 65.910321 66.396423 66.994737
3.180000 65.202632 65.776651 66.164426 66.183868 66.651301 67.241063
3.200000 65.517927 66.037085 66.417852 66.449784 66.903640 67.480666
3.220000 65.723643 66.285450 66.663460 66.702518 67.149556 67.737432
3.240000 66.054777 66.533171 66.913581 66.952366 67.400442 68.023479
3.260000 66.336723 66.768049 67.151471 67.199737 67.670901 68.272222
3.280000 66.620174 67.020662 67.404502 67.448934 67.919650 68.547769
3.300000 66.865005 67.261728 67.645087 67.696004 68.136617 68.811402
3.320000 67.121688 67.494287 67.891341 67.944640 68.397958 69.080609
3.340000 67.361472 67.738478 68.119203 68.196151 68.661434 69.429128
3.360000 67.634768 67.999381 68.382663 68.465607 68.962019 69.716558
3.380000 67.918994 68.256940 68.661468 68.738324 69.236543 69.952694
3.400000 68.117535 68.508304 68.923787 69.011561 69.572629 70.256353
3.420000 68.419247 68.760332 69.214748 69.298826 69.909930 70.507586
3.440000 68.670290 69.061122 69.508211 69.606159 70.236707 70.913486
3.460000 68.934678 69.330337 69.858129 69.936174 70.598980 71.335669
3.480000 69.214280 69.627215 70.209282 70.302623 70.998446 71.895767
3.500000 69.544221 69.969535 70.615059 70.703300 71.438333 72.413243
3.600000 70.766288 71.614190 72.765017 72.896420 74.157339 75.967314
3.700000 72.465747 73.586487 75.195646 75.306965 77.144554 78.515042
3.800000 74.449297 76.112438 78.082507 77.948333 79.642988 80.942957
3.900000 76.765218 78.806247 80.294341 80.181931 81.547008 83.181597
4.000000 79.482799 81.018684 82.171066 82.249668 83.549842 85.179858
4.100000 81.828621 82.925450 84.295271 84.357692 85.832792 87.327048
4.200000 84.030292 85.355193 86.803058 86.880531 88.537187 89.892693
4.300000 85.931586 87.596885 89.153118 89.084001 90.520295 91.769025
4.400000 87.921210 89.675569 91.197989 91.112378 92.563487 93.685457
4.500000 90.122962 91.634993 93.125549 93.033968 94.397307 95.671803
4.600000 92.803533 94.094664 95.266516 95.243819 96.426818 97.614953
4.700000 94.893480 96.048257 97.001087 97.014818 98.048570 99.140708
4.800000 97.117275 97.994772 98.809649 98.841736 99.789341 100.638343
