depth(m) lower_95(kyr) lower_68(kyr) median(kyr) mean(kyr) upper_68(kyr) upper_95(kyr)
0.000000 0.985354 1.652001 2.436428 2.441499 3.284684 3.802562
0.020000 1.216473 1.838918 2.653479 2.649773 3.488208 3.999117
0.040000 1.421482 2.042533 2.845529 2.849433 3.691907 4.155525
0.060000 1.587423 2.230364 3.036015 3.051427 3.883332 4.357604
0.080000 1.769315 2.400927 3.258164 3.247831 4.128700 4.567744
0.100000 1.935962 2.581028 3.455108 3.449390 4.329716 4.775198
0.120000 2.112340 2.787484 3.669628 3.650820 4.531790 4.978339
0.140000 2.441718 3.002457 3.881690 3.850562 4.703379 5.161434
0.160000 2.686248 3.206900 4.065742 4.053219 4.895722 5.299117
0.180000 2.951238 3.435881 4.290592 4.256381 5.080043 5.514109
0.200000 3.154133 3.660536 4.471455 4.460834 5.268183 5.672480
0.220000 3.388101 3.888126 4.681932 4.671285 5.445494 5.874740
0.240000 3.609084 4.108867 4.910224 4.886782 5.648560 6.084752
0.260000 3.826888 4.328999 5.161298 5.115965 5.850348 6.323669
0.280000 4.071100 4.594240 5.402754 5.355789 6.070524 6.576432
0.300000 4.269401 4.812357 5.678248 5.601560 6.293726 6.818318
0.320000 4.491050 5.109664 5.922531 5.869760 6.554079 7.156613
0.340000 4.755322 5.438672 6.229053 6.148617 6.816168 7.402262
0.360000 5.078513 5.737742 6.499016 6.452799 7.129001 7.708591
0.380000 5.410996 6.098840 6.816472 6.775868 7.439253 8.052488
0.400000 5.828226 6.467633 7.173077 7.140237 7.779865 8.296438
0.440000 6.856679 7.443993 7.967258 7.953920 8.488424 8.864346
0.460000 7.220611 7.743768 8.234494 8.235928 8.780685 9.074522
0.480000 7.482222 8.001034 8.460041 8.465419 8.988179 9.270370
0.500000 7.717326 8.233784 8.706249 8.689693 9.194194 9.459553
0.520000 8.023594 8.433690 8.919914 8.909066 9.401901 9.646008
0.540000 8.256822 8.636664 9.158770 9.118430 9.595165 9.828643
0.560000 8.444612 8.872231 9.373705 9.333747 9.785787 10.028635
0.580000 8.668418 9.093640 9.558516 9.528600 9.974438 10.226761
0.600000 8.868672 9.274686 9.764029 9.719474 10.138037 10.416076
0.620000 9.074101 9.461166 9.956852 9.903139 10.313229 10.602178
0.640000 9.259070 9.658081 10.144511 10.089944 10.485816 10.795003
0.660000 9.445756 9.842087 10.329183 10.275387 10.663304 10.933818
0.680000 9.618923 10.039407 10.500809 10.453935 10.832085 11.099672
0.700000 9.777179 10.226886 10.678616 10.635616 11.004864 11.277848
0.720000 9.949801 10.410095 10.856771 10.816211 11.187276 11.455371
0.740000 10.118705 10.608647 11.040218 10.996037 11.356308 11.629915
0.760000 10.319033 10.790079 11.224413 11.182929 11.528556 11.855357
0.780000 10.545221 10.981333 11.407834 11.365054 11.719122 11.998869
0.800000 10.733584 11.171022 11.592755 11.551088 11.912956 12.225586
0.820000 10.902640 11.363828 11.778002 11.741146 12.094430 12.468591
0.840000 11.151673 11.553235 11.966320 11.933277 12.282153 12.644693
0.860000 11.341062 11.758812 12.158378 12.135940 12.497738 12.834633
0.880000 11.547575 11.974396 12.356127 12.346737 12.702804 13.070336
0.900000 11.797898 12.167842 12.572265 12.553884 12.909118 13.328227
0.920000 12.036766 12.407408 12.779851 12.777151 13.148195 13.588281
0.940000 12.251927 12.640520 13.003527 13.014622 13.395495 13.805630
0.960000 12.477668 12.880238 13.252417 13.269265 13.671241 14.109554
0.980000 12.754739 13.135367 13.539502 13.558805 14.003832 14.426022
1.000000 13.066740 13.445181 13.857931 13.891856 14.351213 14.791147
1.020000 13.379082 13.794626 14.227266 14.260394 14.774816 15.229532
1.040000 13.812094 14.225477 14.700006 14.717906 15.240537 15.627836
1.060000 14.146047 14.612777 15.102299 15.111311 15.627793 16.077318
1.080000 14.520059 14.985406 15.470087 15.484683 15.985275 16.414864
1.100000 14.804491 15.347367 15.815613 15.814771 16.320124 16.759175
1.120000 15.150281 15.674045 16.165518 16.154900 16.647765 17.042800
1.140000 15.502330 16.022469 16.502437 16.488730 16.970960 17.378375
1.160000 15.919576 16.395692 16.901488 16.881277 17.351078 17.809837
1.180000 16.267476 16.761599 17.249817 17.225165 17.672353 18.152393
1.200000 16.639760 17.145121 17.614186 17.597573 18.018918 18.546350
1.220000 17.018879 17.480014 17.943822 17.935338 18.390966 18.885752
1.240000 17.331212 17.772944 18.215186 18.224255 18.674415 19.166708
1.260000 17.596197 18.052789 18.488646 18.500105 18.955872 19.446871
1.280000 17.869680 18.290371 18.731338 18.750406 19.199387 19.765795
1.300000 18.087749 18.536200 18.974284 19.006335 19.499948 20.040644
1.320000 18.263449 18.767242 19.224228 19.254531 19.756738 20.285921
1.340000 18.512358 19.012684 19.472639 19.508327 19.993208 20.564893
1.360000 18.760368 19.239455 19.712926 19.752682 20.284504 20.873098
1.380000 18.995389 19.479686 19.941627 19.999650 20.545919 21.191616
1.400000 19.291062 19.702376 20.187888 20.252402 20.833023 21.535021
1.420000 19.535825 19.972047 20.439398 20.515761 21.115070 21.886972
1.440000 19.762922 20.192450 20.684240 20.773065 21.400791 22.220993
1.460000 19.972919 20.420482 20.949560 21.037971 21.666876 22.590760
1.500000 20.426259 20.868842 21.467736 21.583298 22.277662 23.323270
1.520000 20.666291 21.119268 21.724578 21.875992 22.638173 23.719476
1.540000 20.900340 21.355917 22.020824 22.172610 23.054344 24.098370
1.560000 21.139335 21.660824 22.346571 22.510329 23.443574 24.673899
1.580000 21.401301 21.942671 22.690839 22.866353 23.821204 25.158847
1.600000 21.661874 22.240853 23.040364 23.229676 24.269167 25.617688
1.620000 21.893539 22.516183 23.372954 23.580200 24.647419 26.177937
1.640000 22.174113 22.871784 23.802868 23.961029 25.081173 26.730045
1.660000 22.604070 23.209586 24.245373 24.381351 25.567156 27.190101
1.680000 22.860526 23.553073 24.688615 24.798897 26.072027 27.534937
1.700000 23.194232 23.960968 25.126308 25.248609 26.537125 27.953173
1.720000 23.603542 24.415011 25.572781 25.693715 27.081224 28.356486
1.740000 24.021322 24.848859 26.107060 26.175489 27.588588 28.808720
1.760000 24.435178 25.343267 26.548547 26.663317 28.061585 29.301445
1.780000 24.869755 25.831762 26.997249 27.109292 28.474389 29.580089
1.800000 25.397780 26.324429 27.495396 27.549409 28.905238 29.894583
1.820000 25.741618 26.778818 27.941128 27.990209 29.296504 30.193273
1.840000 26.126814 27.302620 28.360801 28.413154 29.676553 30.612678
1.860000 26.769230 27.730641 28.814370 28.841190 30.042995 30.922574
1.880000 27.214299 28.223401 29.241353 29.267406 30.422485 31.322921
1.900000 27.764990 28.664135 29.668194 29.710313 30.781431 31.745568
1.920000 28.212929 29.091460 30.129361 30.123190 31.092387 32.157028
1.940000 28.691450 29.519007 30.514764 30.498417 31.448412 32.505314
1.960000 29.014851 29.956963 30.912442 30.891184 31.780338 32.758395
1.980000 29.468867 30.418708 31.304701 31.291086 32.168023 33.122747
2.000000 29.851374 30.806623 31.671094 31.682184 32.488762 33.489432
2.020000 30.265819 31.225477 32.050942 32.054992 32.888843 33.938572
2.040000 30.509283 31.593923 32.398588 32.412381 33.221226 34.392537
2.060000 30.999732 31.946412 32.758623 32.760131 33.512735 34.820764
2.080000 31.376626 32.369000 33.135559 33.153364 33.913358 35.082734
2.100000 31.729152 32.688676 33.478558 33.507616 34.260390 35.547879
2.120000 32.191709 33.034205 33.820133 33.870534 34.626939 35.873338
2.140000 32.608896 33.386902 34.135238 34.239162 35.048767 36.496782
2.160000 32.956630 33.752929 34.490478 34.617017 35.466925 36.852812
2.180000 33.313066 34.158325 34.872440 35.017548 35.938974 37.262411
2.200000 33.619752 34.563155 35.288712 35.426559 36.402169 37.804170
2.220000 34.029453 34.935557 35.740429 35.850464 36.855823 38.222150
2.240000 34.423610 35.281556 36.152356 36.266750 37.315612 38.716549
2.260000 34.738785 35.594489 36.541911 36.665591 37.767919 39.221143
2.280000 35.119623 35.932854 36.948349 37.050762 38.204061 39.719993
2.300000 35.477738 36.260399 37.330361 37.412654 38.572948 40.212360
2.320000 35.758204 36.574221 37.702012 37.780951 38.933939 40.570522
2.340000 36.076871 36.949226 38.062927 38.142886 39.317841 40.969124
2.360000 36.350803 37.263445 38.427588 38.500298 39.693564 41.325172
2.380000 36.691121 37.626468 38.721634 38.840498 40.104805 41.618652
2.400000 37.040070 38.014724 39.051306 39.207793 40.514297 41.932357
2.420000 37.508062 38.386559 39.464236 39.585170 40.888956 42.191423
2.440000 37.869847 38.725735 39.821160 39.946735 41.332242 42.446353
2.460000 38.248255 39.119243 40.178663 40.307109 41.634998 42.657427
2.480000 38.647211 39.534105 40.546632 40.661996 41.906451 42.934786
2.500000 39.084595 39.934878 40.896021 41.018751 42.213422 43.140009
2.520000 39.424820 40.274857 41.263689 41.352013 42.520115 43.416875
2.540000 39.809814 40.712863 41.591897 41.701149 42.773433 43.798262
2.560000 40.219648 41.080064 41.943520 42.024997 43.083546 44.107143
2.580000 40.561269 41.392881 42.280174 42.335804 43.327168 44.376284
2.600000 40.942594 41.716333 42.576788 42.636643 43.592044 44.611078
2.620000 41.289628 41.983002 42.872581 42.943018 43.874856 44.881895
2.640000 41.680727 42.314112 43.184377 43.242972 44.170684 45.112863
2.660000 41.926920 42.603201 43.455239 43.525458 44.450545 45.429104
2.680000 42.150694 42.870168 43.728602 43.803457 44.761508 45.754370
2.700000 42.364260 43.125209 44.001878 44.080244 45.029266 46.081969
2.720000 42.613272 43.350272 44.260759 44.351975 45.312553 46.419884
2.740000 42.834796 43.624331 44.535358 44.616424 45.583264 46.690397
2.760000 43.087707 43.890291 44.829447 44.891100 45.852801 46.989080
2.780000 43.332037 44.130051 45.111738 45.155003 46.120625 47.296858
2.800000 43.555245 44.377543 45.364551 45.417411 46.399667 47.621739
2.820000 43.738107 44.625339 45.648240 45.680729 46.679306 48.046587
2.840000 44.015982 44.875782 45.925610 45.953551 47.004597 48.299815
2.860000 44.229934 45.110227 46.224868 46.223567 47.307288 48.543055
2.880000 44.484890 45.346934 46.488945 46.489684 47.607623 48.977265
2.900000 44.715840 45.607995 46.741453 46.753436 47.889441 49.300883
2.920000 45.000569 45.834293 46.994519 47.012704 48.181954 49.636786
2.940000 45.347167 46.060701 47.218535 47.272115 48.518695 49.988325
2.960000 45.659108 46.280098 47.456588 47.528929 48.835488 50.337304
2.980000 45.952918 46.542446 47.701076 47.792482 49.090932 50.717435
3.000000 46.240879 46.798018 47.947088 48.051861 49.324204 51.013026
3.020000 46.516769 47.023228 48.166271 48.318366 49.584551 51.766913
3.040000 46.758831 47.241501 48.432900 48.578411 49.882488 52.109866
3.060000 46.986350 47.450019 48.688153 48.834471 50.104400 52.480893
3.080000 47.224769 47.662233 48.911487 49.082967 50.356330 52.888222
3.100000 47.474932 47.907120 49.115442 49.341616 50.600820 53.200303
3.120000 47.677547 48.145823 49.383404 49.607793 50.879200 53.748077
3.140000 47.928789 48.381335 49.663500 49.864689 51.133977 54.080385
3.160000 48.128679 48.609604 49.911387 50.126955 51.378853 54.628193
3.180000 48.338740 48.845233 50.164741 50.394976 51.651989 55.036609
3.200000 48.604962 49.057497 50.415976 50.667839 51.892644 55.367918
3.220000 48.800373 49.258344 50.712531 50.957035 52.221977 55.804654
3.240000 49.035611 49.513127 51.006552 51.246262 52.487405 56.070837
3.260000 49.260553 49.799852 51.359034 51.550164 52.799995 56.301679
3.280000 49.476478 50.064640 51.685652 51.847822 53.066002 56.591721
3.300000 49.679833 50.359326 51.980307 52.160172 53.456956 56.847492
3.320000 49.972766 50.664073 52.304963 52.462061 53.871188 57.140975
3.340000 50.188014 50.962690 52.607860 52.785016 54.216125 57.542703
3.360000 50.453986 51.311436 52.918179 53.101098 54.662672 57.741298
3.380000 50.717997 51.693302 53.188989 53.427724 55.146838 58.159688
3.400000 51.037251 51.999344 53.467596 53.747474 55.559173 58.507982
3.420000 51.242112 52.268863 53.758539 54.082549 55.974076 58.897963
3.440000 51.523313 52.624292 54.021012 54.414442 56.304696 59.271251
3.460000 51.781273 53.028329 54.334286 54.750116 56.704356 59.583877
3.480000 52.224894 53.369995 54.699816 55.107572 57.093213 60.026955
3.500000 52.521969 53.812995 55.021094 55.465950 57.449076 60.254962
3.550000 53.380803 54.733524 55.849447 56.370657 58.576977 61.242850
3.600000 54.321919 55.578904 56.919025 57.313298 59.405076 62.019003
3.650000 55.243895 56.562622 57.904345 58.279457 60.295288 62.615104
3.700000 56.197323 57.485548 58.973609 59.253533 61.238343 63.244341
3.750000 57.031725 58.442500 60.102228 60.308478 62.504611 64.070614
3.800000 58.154332 59.568455 61.378044 61.516285 63.665658 64.716604
3.850000 59.333601 60.802704 62.984588 62.790965 64.712341 65.517375
3.900000 60.375630 62.273588 64.541924 64.105022 65.579294 66.379086
3.950000 61.856952 63.859925 65.469266 65.161260 66.336191 67.057456
4.000000 63.286102 65.004701 66.232105 66.018468 67.027099 67.762793
4.050000 64.241168 65.827761 66.871898 66.730926 67.649597 68.420092
4.100000 65.379604 66.537703 67.469565 67.400986 68.255247 69.053684
4.150000 66.205992 67.181998 68.055792 68.022725 68.826282 69.692408
4.200000 66.946226 67.850037 68.696231 68.693830 69.492403 70.466761
4.250000 67.585387 68.458146 69.401906 69.375018 70.257090 71.214369
4.300000 68.333354 69.203426 70.148818 70.165637 71.122904 72.209924
4.350000 69.121102 70.005738 70.986751 71.037705 72.083943 73.185255
4.400000 69.885657 70.935593 71.918988 71.976976 73.092743 74.300409
4.500000 71.772683 72.804794 74.023159 74.045974 75.221001 76.694413
4.550000 72.621047 73.834886 75.106234 75.137410 76.453292 77.719850
4.600000 73.800738 74.943272 76.145671 76.184289 77.430212 78.659734
4.650000 74.720228 75.891491 77.067816 77.115801 78.312359 79.514398
4.700000 75.729892 76.840436 78.010899 78.015413 79.273693 80.302694
4.750000 76.730296 77.774589 78.926697 78.928074 80.086131 81.407492
4.800000 77.918303 78.949767 79.971240 80.009220 81.148392 82.277420
4.850000 79.298177 80.376245 81.356263 81.349230 82.403669 83.227246
4.900000 80.493285 81.371367 82.384966 82.382721 83.361330 84.226137
4.950000 81.524857 82.469675 83.382584 83.387097 84.340914 85.243677
5.000000 82.305626 83.439617 84.388067 84.369077 85.312693 86.157184
5.050000 83.373515 84.472200 85.366474 85.342913 86.246194 87.197828
5.100000 84.629414 85.537566 86.394215 86.397972 87.224810 88.125132
5.150000 85.645469 86.471624 87.247402 87.274499 88.132742 88.962044
5.200000 86.437531 87.276183 88.048155 88.056116 88.900007 89.664191
5.250000 87.137442 87.925061 88.775096 88.760515 89.601335 90.383232
5.300000 87.838646 88.639970 89.472223 89.446157 90.216592 90.978911
5.350000 88.589115 89.298713 90.184178 90.136779 90.882536 91.709061
5.400000 89.281345 90.049121 90.892521 90.852243 91.610332 92.411412
5.450000 89.976600 90.775013 91.636253 91.650245 92.489891 93.352181
5.500000 90.877541 91.659329 92.478635 92.617190 93.598318 94.926987
5.550000 91.899513 92.772731 93.861556 94.040382 95.437560 96.857278
5.600000 92.868937 94.005749 95.986784 95.880494 97.504798 98.803756
5.650000 96.776201 97.688663 98.651977 98.649348 99.586870 100.722801
