depth(m) lower_95(kyr) lower_68(kyr) median(kyr) mean(kyr) upper_68(kyr) upper_95(kyr)
0.100000 1.350592 2.102570 2.832016 2.813715 3.534340 4.225323
0.234000 2.129508 2.869253 3.622150 3.631376 4.366234 5.173155
0.368000 2.869131 3.571948 4.419480 4.412631 5.185949 6.079737
0.502000 3.448587 4.318862 5.168341 5.170683 6.016040 6.932960
0.636000 4.167352 5.090150 5.963841 5.952978 6.854058 7.931459
0.770000 4.880433 5.780855 6.684841 6.713758 7.677112 8.590580
0.870000 5.477203 6.348242 7.308866 7.308464 8.298576 9.242352
0.970000 6.037098 6.963976 7.916881 7.930243 8.932136 9.923875
1.103333 6.894952 7.798369 8.813984 8.797263 9.822265 10.744436
1.236667 7.803638 8.741179 9.729388 9.719674 10.714478 11.595660
1.370000 8.836858 9.659190 10.664124 10.637413 11.585765 12.435924
1.470000 9.427960 10.380243 11.346968 11.330147 12.217944 13.059442
1.570000 10.153435 11.104356 12.105097 12.008103 12.863872 13.686946
1.703333 10.951595 11.889814 12.905658 12.815832 13.688515 14.498486
1.836667 11.853732 12.761016 13.625617 13.578932 14.352285 15.108850
1.970000 12.674617 13.588092 14.370965 14.327978 15.083256 15.806163
2.070000 13.354516 14.160343 14.867839 14.880389 15.635117 16.379071
2.170000 13.993572 14.707423 15.420677 15.435757 16.196390 16.998051
2.303333 14.753367 15.357616 16.148918 16.183129 16.957334 17.824996
2.436667 15.496636 16.064514 16.877505 16.945744 17.769145 18.877767
2.570000 16.146872 16.772911 17.619224 17.720450 18.614587 19.971672
2.670000 16.687500 17.322438 18.232760 18.349506 19.381753 20.934709
2.770000 17.194489 17.859835 18.821845 18.945453 20.038045 21.556510
2.910000 17.872875 18.604332 19.652326 19.786089 20.979121 22.491381
3.010000 18.417501 19.144281 20.285113 20.410564 21.638091 23.373336
3.110000 18.956253 19.731679 20.906847 21.058422 22.382111 24.099004
3.170000 19.282533 20.105535 21.319907 21.453929 22.811830 24.425291
3.310000 20.042691 20.958901 22.263952 22.382237 23.848346 25.507274
3.370000 20.351841 21.348093 22.676554 22.800053 24.282274 26.106459
3.510000 21.151934 22.241144 23.664933 23.786700 25.347580 27.027905
3.610000 21.710168 22.884906 24.453968 24.548555 26.147554 27.926882
3.710000 22.409170 23.510804 25.309789 25.323430 26.933607 28.988958
3.770000 22.859781 23.969033 25.779106 25.759662 27.350659 29.451426
3.910000 23.801364 25.022618 26.746994 26.776931 28.292558 30.622335
3.970000 24.112913 25.448180 27.148505 27.203875 28.765586 31.190139
4.110000 25.100686 26.483845 28.135603 28.217107 29.769457 32.114904
4.243333 25.924587 27.581415 29.181426 29.228448 30.885488 33.091273
4.376667 26.850123 28.665280 30.180461 30.282740 31.957617 34.224583
4.510000 27.854451 29.706430 31.175475 31.302447 33.022017 35.351526
4.610000 28.375005 30.390895 31.899549 32.039714 33.840447 36.019756
4.710000 29.206286 31.148726 32.581861 32.740512 34.524787 36.613156
4.843333 30.091559 32.067145 33.491205 33.631949 35.370030 37.519419
4.976667 31.004202 32.969125 34.364723 34.525812 36.287680 38.354856
5.110000 32.051321 33.834188 35.317264 35.445262 37.175269 39.148122
5.210000 32.648665 34.406387 35.962150 36.102156 37.972690 39.836702
5.310000 33.278486 35.023136 36.601623 36.754976 38.695792 40.507640
5.410000 33.857769 35.585657 37.334907 37.401898 39.387642 41.116945
5.510000 34.636125 36.256980 37.994286 38.059888 39.988558 41.803806
5.610000 35.157894 36.871906 38.730509 38.719034 40.641133 42.430860
5.710000 35.725682 37.563728 39.360457 39.366880 41.298175 42.941878
5.810000 36.465296 38.203568 40.017820 40.025766 41.994640 43.581805
5.910000 37.266656 38.859801 40.652169 40.708853 42.677683 44.220081
6.050000 37.999398 39.762106 41.585012 41.646324 43.634573 45.109019
6.150000 38.588137 40.500384 42.284034 42.349287 44.347108 45.783539
6.250000 39.137816 41.258876 43.025895 43.054621 45.099637 46.495845
6.310000 39.492783 41.669195 43.448272 43.464541 45.570988 46.790010
6.450000 40.285025 42.636409 44.449775 44.444711 46.593306 47.697772
6.510000 40.764695 43.008833 44.854782 44.870644 47.021242 48.212788
6.650000 41.658029 43.903831 45.819232 45.848796 48.012243 49.135150
6.710000 41.977864 44.301297 46.260556 46.280739 48.438904 49.540949
6.850000 42.803433 45.242127 47.416322 47.324609 49.405983 50.706484
6.950000 43.572798 46.012291 48.283593 48.105363 50.192829 51.744823
7.050000 44.269267 46.740718 49.152815 48.884886 50.846843 52.613919
7.150000 45.286968 47.446558 49.985608 49.712877 51.750388 53.618958
7.250000 46.068640 48.267176 50.776299 50.548692 52.573727 54.511574
7.388462 47.297368 49.498776 51.891366 51.727316 53.824553 55.744302
7.526923 48.456258 50.682969 53.038326 52.912884 55.009792 57.252607
7.665385 49.721527 51.950478 54.237444 54.145076 56.260981 58.531955
7.803846 50.851756 53.179248 55.462461 55.410737 57.544357 59.850042
7.942308 52.038247 54.442540 56.636083 56.669366 58.905787 60.814144
8.080769 53.499496 55.638964 57.919434 57.873327 60.074845 62.156491
8.219231 54.804318 56.848270 59.121361 59.092488 61.351013 63.371537
8.357692 55.911239 58.210232 60.357593 60.318941 62.542629 64.343991
8.496154 56.873814 59.420329 61.605117 61.542252 63.710689 65.474943
8.634615 58.556602 60.704031 62.839612 62.777741 64.879157 66.458840
8.773077 60.021793 62.041227 64.152426 64.039635 66.000121 67.688053
8.911538 61.441240 63.541274 65.400922 65.343217 67.115950 68.661510
9.050000 63.079238 64.846486 66.793322 66.603941 68.238247 69.647865
9.150000 64.031384 65.870166 67.678212 67.514978 69.101754 70.535350
9.250000 65.061409 66.925709 68.553623 68.462061 69.950138 71.528428
9.350000 66.179991 68.034773 69.492077 69.457797 70.911671 72.281365
9.450000 67.375680 69.192521 70.439256 70.436675 71.833854 73.155957
9.550000 68.495230 70.093680 71.454817 71.432836 72.831074 74.224666
9.650000 69.774011 71.063110 72.413812 72.403194 73.698485 75.045537
9.750000 70.626038 71.989396 73.341065 73.314805 74.583461 75.879424
9.850000 71.505273 72.953467 74.243945 74.221899 75.586824 76.830837
9.950000 72.455604 73.714049 75.018221 75.015575 76.296579 77.640968
10.050000 73.287496 74.510254 75.801807 75.783303 77.011078 78.345854
10.150000 74.020849 75.356138 76.648212 76.575649 77.792146 78.870443
10.250000 74.816031 76.192254 77.449780 77.390456 78.581284 79.562573
10.350000 75.613940 76.977364 78.294392 78.197144 79.385380 80.297184
10.450000 76.637205 77.889979 79.154353 79.034652 80.154360 81.006305
10.550000 77.464452 78.730914 79.957821 79.853215 80.921663 81.761368
10.650000 78.424179 79.609335 80.746931 80.671176 81.696311 82.564639
10.750000 79.280977 80.501547 81.467761 81.428624 82.361802 83.224041
10.850000 80.088828 81.281347 82.184555 82.162896 83.037765 83.936545
10.950000 80.958663 81.957442 82.869274 82.853286 83.701694 84.602430
11.050000 81.750196 82.658697 83.570952 83.535438 84.327951 85.229756
11.150000 82.425277 83.338924 84.194492 84.184351 85.012745 85.877371
11.250000 83.037673 84.003588 84.829782 84.824603 85.637195 86.441765
11.350000 83.652819 84.627840 85.495175 85.490483 86.346605 87.270976
11.450000 84.284509 85.310798 86.142049 86.161755 86.999571 88.044738
11.550000 85.074486 86.012059 86.824586 86.877845 87.694566 88.982863
11.650000 85.771089 86.697191 87.534090 87.610178 88.467755 89.842317
11.750000 86.583640 87.355264 88.264830 88.382609 89.318123 90.611710
11.850000 87.162831 88.085459 89.081607 89.164767 90.175025 91.553183
11.950000 87.902205 88.789029 89.851954 89.929641 91.029014 92.438065
12.050000 88.607569 89.537441 90.608489 90.694651 91.797510 93.366653
12.150000 89.258440 90.274572 91.368579 91.465362 92.628428 94.099995
12.250000 89.891695 90.996980 92.169014 92.262502 93.443048 95.069189
12.370000 90.769661 91.886612 93.174763 93.252833 94.443884 96.527954
12.450000 91.399675 92.584785 93.848159 93.970972 95.255050 97.266608
12.570000 92.292184 93.496452 94.856715 95.037242 96.382441 98.880742
12.650000 92.943966 94.277510 95.618974 95.787904 97.178314 99.800642
12.770000 93.839193 95.151427 96.693818 96.890038 98.443697 101.791292
12.850000 94.446041 95.847431 97.359069 97.620156 99.190854 102.821013
12.970000 95.372667 96.794651 98.399115 98.702865 100.388779 104.300901
13.050000 95.762194 97.392338 99.087701 99.431946 101.454127 105.149597
13.170000 96.447428 98.427734 100.033286 100.568997 102.936967 107.636107
13.250000 97.012319 99.113373 100.660847 101.256109 103.860590 108.304334
13.370000 97.889947 100.053954 101.557695 102.384995 105.642863 110.153351
13.450000 98.433799 100.718949 102.139719 103.089823 106.556556 111.136816
13.520000 98.926972 101.283999 102.662047 103.735110 107.478803 111.982911
13.570000 99.227949 101.732247 103.106641 104.195606 108.035816 112.514789
13.620000 99.560812 102.112320 103.558444 104.680158 108.742816 113.056028
13.650000 99.790998 102.403854 103.830173 104.967727 109.095257 113.393252
13.720000 100.335320 103.036857 104.571026 105.835969 110.229834 114.126161
13.770000 100.661550 103.549166 105.127088 106.420705 110.870432 114.578346
13.820000 101.020382 104.031927 105.700459 107.000999 111.584069 114.989056
13.850000 101.203228 104.326701 106.080041 107.329484 111.886750 115.227820
13.920000 101.707361 105.203325 108.110845 108.720849 112.811332 115.757865
13.970000 101.987066 105.745545 109.780600 109.500617 113.489667 116.104980
14.020000 102.305952 106.331293 111.362511 110.379949 114.101587 116.688771
14.050000 102.559629 106.627433 111.770688 110.698309 114.335272 116.914601
14.070000 102.716941 106.821239 112.042194 110.913353 114.564567 117.062390
14.120000 103.021051 108.238080 113.274038 112.320923 115.190847 117.441277
14.170000 103.405489 110.060351 113.969831 113.193708 115.702436 117.890576
14.220000 103.766867 111.954170 114.539795 113.906872 116.142861 118.362078
14.230000 103.857674 112.071807 114.636108 114.001167 116.251308 118.452063
14.270000 104.227921 112.885431 115.025032 114.468758 116.711486 118.880420
14.320000 104.731711 113.746934 115.652748 115.118357 117.329195 119.264599
14.410000 108.132781 115.255743 116.895926 116.586931 118.456021 120.008814
14.490000 111.760508 116.227142 117.811949 117.557998 119.360594 120.748326
14.570000 114.031359 117.192905 118.754320 118.497866 120.202655 121.299528
14.670000 117.285422 118.621370 120.080925 119.966105 121.294225 122.158652
14.770000 118.444445 119.872247 121.186226 121.048206 122.229441 122.984599
14.790000 118.659112 120.065518 121.370996 121.230179 122.381272 123.137503
14.870000 119.445516 120.767017 122.003532 121.893435 122.981832 123.710762
14.970000 120.467280 121.655697 122.700324 122.655495 123.664722 124.349675
15.070000 121.437008 122.472135 123.430801 123.367871 124.297784 124.977813
15.170000 122.432431 123.251221 124.115920 124.090248 124.934117 125.593856
15.220000 122.806743 123.671604 124.468735 124.465422 125.287949 125.915831
15.270000 123.258137 124.086476 124.836248 124.847956 125.630048 126.276637
15.320000 123.626021 124.500826 125.247261 125.239802 126.040358 126.638187
15.370000 124.122267 124.911151 125.661919 125.648146 126.430436 127.052669
15.420000 124.580659 125.341280 126.090357 126.095381 126.884968 127.495237
15.470000 125.091826 125.795089 126.592791 126.575315 127.359606 128.058932
15.520000 125.531314 126.263007 127.085321 127.083242 127.858887 128.637750
15.570000 125.916233 126.762279 127.601939 127.609178 128.427825 129.354478
15.620000 126.453788 127.252589 128.074624 128.107100 128.988643 129.929414
15.695000 127.092888 128.039469 128.962052 129.015839 130.044833 131.216477
15.770000 127.824160 128.837084 129.881747 129.981453 131.112171 132.569306
15.870000 128.927026 130.047616 131.349797 131.511588 133.044492 135.059338
15.970000 129.987737 131.230652 132.862706 132.985622 134.699478 136.653744
16.103333 131.353476 132.862721 134.647867 134.734317 136.578414 138.511028
16.236667 132.947388 134.588526 136.337709 136.453842 138.333422 140.372680
16.370000 134.732022 136.338039 138.005601 138.107874 139.928856 141.987230
16.450000 135.486619 137.117259 138.815194 138.921259 140.771739 142.693068
16.550000 136.378313 138.061330 139.711597 139.849808 141.790876 143.610266
16.650000 137.325914 138.888319 140.702544 140.755403 142.728673 144.525711
16.745000 138.105487 139.636919 141.506818 141.650674 143.916764 145.378627
16.840000 138.915532 140.393383 142.324399 142.494802 144.931583 146.153169
16.850000 138.993922 140.473108 142.396466 142.578568 144.999053 146.216535
16.950000 139.640630 141.297179 143.219551 143.361110 145.742486 146.924971
17.050000 140.419926 142.095015 144.081211 144.158769 146.457209 147.752498
17.150000 141.114127 142.892312 144.917732 144.947618 147.155086 148.538161
17.250000 141.845405 143.719693 145.801121 145.763386 147.854299 149.353477
17.350000 142.508652 144.393222 146.565961 146.524188 148.601988 149.991992
17.450000 143.199878 145.093486 147.406318 147.263422 149.319016 150.797542
17.550000 143.981487 145.801061 148.181606 147.995170 150.030000 151.774379
17.650000 144.512550 146.479406 149.014983 148.726493 150.764192 152.508745
17.750000 145.145113 147.117920 149.744918 149.449992 151.549723 153.280656
17.850000 145.690994 147.819506 150.440636 150.174878 152.292707 154.143455
17.950000 146.242302 148.541966 151.202922 150.901461 152.999951 154.917612
18.050000 147.069899 149.225256 151.934147 151.634334 153.752466 155.697083
18.150000 147.672534 149.988160 152.624047 152.360583 154.455602 156.436494
18.250000 148.431782 150.740116 153.343479 153.084167 155.142313 157.083103
18.350000 149.007705 151.507890 154.031413 153.806538 155.861422 157.740728
18.450000 149.580841 152.327474 154.769386 154.527546 156.577850 158.421256
18.550000 150.504982 153.087386 155.472861 155.224685 157.308980 159.045347
18.650000 151.301182 153.767778 156.193170 155.948622 157.954299 159.682689
18.750000 151.872336 154.503860 156.857529 156.676692 158.635857 160.488450
18.850000 152.656918 155.306964 157.533449 157.377989 159.321157 161.181610
18.950000 153.252690 156.039053 158.274846 158.054370 159.971512 161.823878
19.050000 154.062712 156.697131 158.939666 158.745151 160.624013 162.443317
19.150000 154.671487 157.433556 159.625604 159.438016 161.315130 163.049609
19.250000 155.325035 158.109086 160.282811 160.127308 162.005970 163.690694
19.350000 156.225025 158.781179 161.035381 160.834961 162.664701 164.512086
19.450000 156.869959 159.510579 161.756120 161.542874 163.376782 165.161536
19.550000 157.667701 160.242478 162.491942 162.285692 164.128831 165.819066
19.650000 158.549200 161.036245 163.205617 163.013531 164.881021 166.775773
19.750000 159.472051 161.730945 163.945741 163.754804 165.609977 167.680636
19.850000 160.237529 162.564758 164.635065 164.524805 166.349013 168.625236
19.983333 161.317974 163.455837 165.599749 165.496723 167.379321 169.617811
20.116667 162.108540 164.467344 166.505376 166.535080 168.483372 171.294682
20.250000 163.201162 165.504999 167.418711 167.599150 169.565075 173.262496
20.350000 164.087534 166.402464 168.233410 168.464999 170.426969 174.702809
20.450000 164.992715 167.244538 169.150638 169.364076 171.305522 175.845722
20.550000 165.812027 167.986815 169.993698 170.281839 172.328266 176.893578
20.650000 166.733952 168.740747 170.918510 171.171658 173.338540 178.018735
20.783333 167.657641 169.832212 172.158978 172.414581 174.998576 179.322484
20.916667 168.881404 170.915512 173.322325 173.667797 176.618698 180.499401
21.050000 170.063792 172.061266 174.473804 174.945248 178.190513 181.532904
21.150000 171.153817 172.984139 175.298575 175.876045 179.189234 182.437838
21.250000 172.203605 174.028705 176.087939 176.810078 180.440314 183.158480
21.345000 173.074057 175.045681 177.188076 177.738332 181.281799 183.868808
21.440000 174.050026 175.877563 178.218433 178.670430 182.083032 184.615197
21.545000 174.969591 176.894019 179.262072 179.667375 183.089719 185.297631
21.650000 175.917146 177.842836 180.268186 180.652450 183.917833 186.039686
21.750000 176.970873 178.766116 181.256767 181.579300 184.695035 186.685310
21.850000 177.844057 179.810797 182.331908 182.530529 185.565873 187.331622
21.983333 178.979532 181.149209 183.827541 183.848597 186.605108 188.186545
22.116667 180.482495 182.645774 185.312889 185.189573 187.694878 189.218635
22.250000 182.310474 184.136506 186.753006 186.555971 188.807955 190.360330
22.383333 183.440100 185.640473 188.082951 187.834386 189.868808 191.654202
22.516667 184.771705 187.182467 189.262551 189.113671 190.921806 193.068060
22.650000 186.259155 188.616935 190.356110 190.383187 192.064090 194.692876
22.783333 188.034083 189.797844 191.388431 191.556122 193.278173 196.568311
22.916667 189.363169 190.924600 192.426545 192.710973 194.475836 197.561915
23.050000 190.649468 192.061812 193.441887 193.840921 195.632843 199.257915
23.150000 191.694514 192.847616 194.284596 194.745675 196.846870 200.151705
23.250000 192.496784 193.641493 195.143370 195.657858 197.820186 201.262077
23.350000 193.435569 194.464120 196.060773 196.626970 198.915985 202.133673
23.450000 194.329286 195.475192 197.155900 197.610468 200.082704 203.069309
23.550000 195.034971 196.372590 198.300135 198.648721 201.071925 204.074161
23.650000 195.856753 197.289004 199.401485 199.680530 202.115276 204.941796
23.750000 196.709290 198.387856 200.633026 200.823991 203.281010 205.684269
23.850000 197.612469 199.462690 201.919798 201.958313 204.357682 206.580130
23.950000 198.593133 200.534984 203.136459 203.039225 205.423264 207.509004
24.050000 199.664828 201.750383 204.406834 204.220776 206.580114 208.282813
24.150000 200.716808 202.996570 205.566313 205.368735 207.583776 209.191563
24.250000 201.748311 204.321736 206.792231 206.516471 208.613648 209.802419
24.350000 203.114451 205.669710 207.980592 207.656044 209.600854 210.636054
24.450000 204.253087 207.054160 209.146135 208.835139 210.575061 211.606914
24.550000 205.780956 208.535130 210.280290 210.015536 211.506653 212.438672
24.650000 207.372646 209.922094 211.448906 211.181556 212.392754 213.298879
24.745000 209.018548 211.119297 212.482200 212.221480 213.275007 214.029188
24.840000 210.322250 212.359253 213.407240 213.213650 214.131630 214.975937
24.850000 210.421399 212.467470 213.505195 213.318851 214.224975 215.061705
24.950000 211.847713 213.576529 214.512754 214.431378 215.314358 216.316305
25.050000 213.565452 214.672243 215.470223 215.508493 216.414027 217.435812
25.145000 214.679166 215.483131 216.344625 216.405137 217.336730 218.469863
25.240000 215.566617 216.316138 217.301348 217.338640 218.263098 219.410860
25.250000 215.649617 216.415322 217.412454 217.442903 218.383421 219.506287
25.360000 216.786695 217.617586 218.731365 218.954358 220.086606 222.963488
25.480000 217.722530 218.935901 220.445127 220.832277 222.858760 225.387421
25.600000 218.883766 220.508196 222.546755 222.696128 224.916476 226.952227
25.720000 220.274709 222.444087 224.622880 224.546878 226.749943 228.369332
25.840000 221.647365 224.430813 226.490660 226.363289 228.371186 229.717185
25.940000 223.435605 225.807835 227.644319 227.537709 229.348619 230.539803
26.040000 224.888718 227.108017 228.685921 228.599195 230.295819 231.383995
26.135000 226.166482 228.066094 229.693969 229.571474 231.149965 232.030467
26.230000 227.498742 229.108807 230.596855 230.493086 231.937337 232.802899
26.335000 228.727270 230.226701 231.563836 231.455484 232.694067 233.470205
26.440000 229.926222 231.420518 232.518873 232.425656 233.454364 234.199675
26.580000 231.845060 232.977394 233.790583 233.729714 234.525665 235.096322
26.640000 232.636977 233.578790 234.373976 234.324877 235.048141 235.680838
26.650000 232.747358 233.695707 234.478762 234.426340 235.143402 235.818002
26.780000 234.418516 235.153170 235.840452 235.869939 236.648259 237.484714
26.840000 235.097408 235.777353 236.569537 236.594028 237.402224 238.260463
26.900000 235.824641 236.526983 237.322710 237.335506 238.098588 238.992786
27.030000 237.260851 238.103227 238.895840 238.900305 239.723108 240.534292
27.040000 237.365117 238.220626 239.005728 239.012010 239.814683 240.611426
