depth(m) lower_95(kyr) lower_68(kyr) median(kyr) mean(kyr) upper_68(kyr) upper_95(kyr)
0.540000 3.122147 3.876295 4.708284 4.689209 5.454810 6.171046
0.665000 3.610123 4.466287 5.263651 5.257385 6.026795 6.881684
0.790000 4.136643 4.994199 5.823935 5.841002 6.694589 7.543321
0.915000 4.639994 5.577770 6.443157 6.454199 7.351424 8.311172
1.040000 5.306538 6.160893 7.022258 7.091133 8.073902 9.055930
1.167500 5.903885 6.772659 7.791012 7.831753 8.926793 9.815104
1.295000 6.433398 7.495591 8.573376 8.557686 9.633333 10.610397
1.422500 7.095839 8.251009 9.350850 9.305565 10.362282 11.172836
1.550000 8.021870 9.114907 10.126937 10.069827 11.032623 11.774759
1.670000 8.925715 9.989462 10.894529 10.834751 11.701372 12.369114
1.755000 9.471369 10.493338 11.322659 11.267434 12.091140 12.722705
1.840000 10.090527 10.985192 11.747950 11.712649 12.472188 13.095574
1.945000 10.678300 11.564510 12.255207 12.236719 12.945260 13.534241
2.050000 11.320330 12.136179 12.763440 12.742055 13.382497 13.983728
2.120000 11.680143 12.440656 13.074865 13.056888 13.681237 14.274441
2.200000 12.049204 12.785918 13.418023 13.401766 14.048759 14.669108
2.280000 12.377447 13.084800 13.743957 13.726785 14.398878 15.039250
2.403333 12.812396 13.551723 14.205419 14.214386 14.875188 15.616714
2.526667 13.348314 13.973395 14.646783 14.673684 15.381195 16.143879
2.650000 13.836642 14.416937 15.079916 15.136318 15.865607 16.723256
2.778571 14.155633 14.824119 15.519221 15.578423 16.371487 17.249584
2.907143 14.551662 15.259509 15.923338 16.043087 16.904933 17.944564
3.035714 14.930039 15.628954 16.349474 16.500033 17.441278 18.737989
3.164286 15.355143 15.997713 16.768163 16.946637 17.920755 19.524699
3.292857 15.747138 16.387268 17.205018 17.406828 18.464083 20.068967
3.421429 16.151662 16.806511 17.650284 17.871593 19.040888 20.670894
3.550000 16.564205 17.185560 18.100986 18.333429 19.548808 21.253030
3.672500 16.898969 17.571453 18.494650 18.760564 20.039821 21.833450
3.795000 17.211628 17.920700 18.867413 19.177733 20.524999 22.412610
3.917500 17.559124 18.285607 19.273693 19.579311 20.968677 22.831523
4.040000 17.930866 18.629950 19.703168 19.986122 21.414391 23.289755
4.167500 18.262746 19.041453 20.134086 20.429431 21.925915 23.842224
4.295000 18.645161 19.397968 20.570741 20.860854 22.383329 24.516731
4.422500 18.967358 19.801098 20.983136 21.285088 22.853853 24.936362
4.550000 19.354241 20.175242 21.458047 21.717520 23.323271 25.340785
4.695385 19.726938 20.663720 22.031667 22.231866 23.840356 25.984791
4.840769 20.150725 21.147105 22.538923 22.750380 24.440669 26.476879
4.986154 20.508892 21.610020 23.036488 23.267689 25.001774 27.038372
5.131538 20.887926 22.094366 23.634339 23.801897 25.540756 27.607128
5.276923 21.265560 22.564317 24.154246 24.323571 26.025026 28.258914
5.422308 21.709103 23.079030 24.782433 24.890250 26.613975 28.981262
5.567692 22.163374 23.613276 25.329199 25.414164 27.198630 29.657820
5.713077 22.560621 24.079736 25.849755 25.956264 27.777581 30.340295
5.858462 22.973821 24.530559 26.434954 26.513292 28.361331 30.948125
6.003846 23.358184 25.056269 27.014897 27.071209 28.870778 31.500265
6.149231 23.859736 25.542861 27.595774 27.633166 29.410386 32.056705
6.294615 24.439592 26.045146 28.167681 28.206876 30.004660 32.651104
6.440000 24.961575 26.549908 28.738602 28.784847 30.646719 33.352626
6.567500 25.450580 27.110394 29.270206 29.347635 31.311555 34.173246
6.695000 25.979357 27.593852 29.837274 29.948135 31.868817 35.344024
6.822500 26.572494 28.215875 30.375568 30.527021 32.652463 36.149844
6.950000 27.009333 28.790026 30.922035 31.133870 33.382564 37.067834
7.090000 27.561006 29.411827 31.498690 31.785055 34.115341 37.944997
7.230000 28.137399 30.038967 32.151128 32.474690 35.017031 38.742753
7.370000 28.683678 30.662736 32.736549 33.151344 35.809980 39.625363
7.510000 29.301461 31.283652 33.349790 33.849152 36.548680 40.539304
7.650000 29.694827 31.824618 33.958261 34.479244 37.386206 41.306301
7.790000 30.244702 32.470806 34.564923 35.146276 38.273670 42.129582
7.930000 30.779835 32.989308 35.243742 35.796443 39.102659 42.913877
8.060000 31.267631 33.476435 35.891814 36.401179 39.924430 43.600774
8.190000 31.776661 34.070839 36.447008 36.996394 40.626425 44.573370
8.320000 32.147737 34.553143 37.007747 37.551015 41.173991 44.987679
8.450000 32.599758 35.038529 37.568062 38.109112 41.839200 45.423475
8.587500 32.913542 35.587377 38.260098 38.697211 42.463721 46.084914
8.725000 33.500106 36.028369 38.913053 39.306224 43.176975 46.716534
8.862500 33.865711 36.508590 39.481396 39.886426 43.765389 47.241285
9.000000 34.403871 37.064464 40.107656 40.456713 44.308865 47.571069
9.137500 34.799149 37.568749 40.758370 41.045747 44.794833 48.129383
9.275000 35.258860 38.071863 41.405102 41.645375 45.307891 48.596938
9.412500 35.561366 38.583719 42.004630 42.248905 46.024708 49.395689
9.550000 36.181220 39.167647 42.540639 42.832740 46.711542 49.889713
9.687500 36.619950 39.710176 43.200556 43.410341 47.319472 50.407643
9.825000 37.170302 40.265463 43.791925 43.965684 47.939198 51.001813
9.962500 37.468502 40.674969 44.379344 44.530777 48.632029 51.538997
10.100000 37.801963 41.170673 44.919268 45.092791 49.192193 52.105198
10.222500 38.120146 41.758962 45.431493 45.598500 49.730687 52.502218
10.345000 38.664937 42.134525 45.907453 46.095160 50.230298 52.972212
10.467500 39.046234 42.765643 46.391517 46.594138 50.714409 53.382067
10.590000 39.409879 43.278561 46.823048 47.095498 51.251709 53.840126
10.715000 39.712477 43.810237 47.345643 47.595940 51.736995 54.469633
10.840000 40.196730 44.323177 47.876258 48.097900 52.228997 54.908373
10.965000 40.676236 44.764710 48.319685 48.603862 52.721466 55.422740
11.090000 41.018123 45.343941 48.801453 49.107559 53.226441 55.847758
11.215000 41.414559 45.932748 49.209067 49.586126 53.752316 56.286649
11.340000 41.719958 46.354736 49.734489 50.069121 54.183124 56.756242
11.465000 42.230254 46.897043 50.215121 50.543292 54.565005 57.134892
11.590000 42.721365 47.442494 50.712362 51.038191 55.002308 57.567491
11.715000 43.350097 47.999762 51.274926 51.509979 55.420540 57.989608
11.840000 44.046868 48.522287 51.715105 51.981729 55.853290 58.467042
11.965000 44.631804 49.038060 52.187121 52.446121 56.287081 58.846823
12.090000 45.137270 49.494417 52.745884 52.912075 56.664131 59.184125
12.228889 45.729909 50.034162 53.329794 53.420406 57.123340 59.527812
12.367778 46.430193 50.624775 53.821277 53.943770 57.554653 59.922389
12.506667 47.185537 51.180739 54.409777 54.448812 58.038631 60.322230
12.645556 47.685985 51.731558 54.957003 54.953428 58.457517 60.713796
12.784444 48.352032 52.259793 55.451306 55.468585 58.877845 61.192448
12.923333 49.032848 52.837129 55.965682 55.976587 59.377837 61.551545
13.062222 49.747627 53.424045 56.468292 56.480506 59.800323 61.961237
13.201111 50.661634 54.005329 56.984765 56.993930 60.236029 62.421610
13.340000 51.332329 54.483642 57.418109 57.503349 60.662683 62.873486
13.478889 51.964070 55.197197 57.965548 58.022470 61.101191 63.358263
13.617778 52.608422 55.753526 58.535186 58.545799 61.559999 63.694230
13.756667 53.282472 56.354526 59.091862 59.062710 61.980077 64.074494
13.895556 53.933822 56.967271 59.614258 59.595050 62.433062 64.606454
14.034444 54.662317 57.498262 60.170905 60.125888 62.900535 65.050284
14.173333 55.125621 58.016918 60.672206 60.636490 63.394205 65.661276
14.312222 55.537085 58.538992 61.246844 61.146364 63.878107 66.066654
14.451111 56.004855 59.073746 61.727345 61.658890 64.359433 66.430808
14.590000 56.659855 59.762511 62.272948 62.200516 64.859895 66.842518
14.721250 57.102411 60.329904 62.786041 62.694371 65.283537 67.155579
14.852500 57.628623 60.817653 63.228166 63.185669 65.743224 67.546459
14.983750 58.165314 61.453032 63.678641 63.691999 66.173882 68.013652
15.115000 58.765430 62.009418 64.158056 64.181841 66.656682 68.508068
15.246250 59.335687 62.493833 64.655172 64.694369 67.139075 69.036735
15.377500 59.911526 63.097714 65.181536 65.232044 67.595269 69.446693
15.508750 61.286216 63.672300 65.755414 65.816556 68.102183 70.037785
15.640000 61.866542 64.236870 66.364642 66.383482 68.661080 70.510324
15.765000 62.390919 64.786130 66.844279 66.923212 69.218154 70.958340
15.890000 63.106227 65.391322 67.418074 67.457742 69.734000 71.447667
16.015000 63.607551 65.945067 67.980856 68.016310 70.299723 71.902677
16.140000 64.334630 66.643580 68.580257 68.594948 70.774075 72.591137
16.265000 65.142671 67.299807 69.244160 69.257052 71.360355 73.114871
16.390000 65.928383 68.006792 69.867326 69.911384 72.045208 73.614859
16.515000 66.700157 68.651705 70.569829 70.597246 72.656974 74.274979
16.640000 67.322436 69.362673 71.214587 71.283850 73.311540 74.857500
16.765000 68.229377 70.202078 72.236854 72.148786 74.149640 75.765410
16.890000 69.113563 71.002980 73.114536 73.029619 75.015710 76.812008
17.015000 69.874587 71.787117 73.955288 73.888903 75.916517 77.644544
17.140000 70.770590 72.654819 74.878441 74.768530 76.718089 78.329188
17.265000 71.328629 73.419616 75.736101 75.573248 77.568137 79.180312
17.390000 72.228543 74.370884 76.536159 76.401125 78.353234 79.955309
17.515000 73.163806 75.189889 77.326078 77.214862 79.036659 80.550663
17.640000 74.001298 76.062978 78.145171 78.024936 79.745819 81.173097
17.765000 74.715292 76.897719 78.835577 78.770032 80.455436 81.939097
17.890000 75.493442 77.677297 79.596000 79.487176 81.113310 82.608651
18.015000 76.239841 78.497725 80.286734 80.201916 81.769877 83.409012
18.140000 77.024284 79.266644 80.927267 80.905189 82.337855 84.270803
18.267500 77.612738 80.013449 81.643013 81.640380 83.045830 85.054195
18.395000 78.315478 80.781327 82.302855 82.335030 83.741806 85.745524
18.522500 79.338148 81.562823 82.908304 83.048777 84.408417 86.405903
18.650000 80.410019 82.249162 83.593786 83.744735 85.074655 87.620001
18.791429 80.826375 82.926783 84.220984 84.464587 85.776729 88.975094
18.932857 81.974268 83.587502 84.878731 85.190067 86.589507 90.204763
19.074286 82.685370 84.209574 85.538197 85.926236 87.442297 92.075406
19.215714 83.325358 84.812090 86.140607 86.616267 88.235080 93.169292
19.357143 84.105955 85.424256 86.774008 87.328991 88.972511 94.383565
19.498571 84.732092 86.083352 87.445314 88.072753 89.778768 96.281447
19.640000 85.300005 86.776361 88.094580 88.763054 90.594008 97.295696
19.767500 85.770167 87.317553 88.750742 89.413383 91.249903 98.454431
19.895000 86.498364 87.955677 89.415342 90.099074 92.040522 99.675946
20.022500 87.162186 88.553753 90.095203 90.762289 92.736138 100.694253
20.150000 87.689634 89.077370 90.753736 91.416303 93.462397 101.418306
20.275000 88.232926 89.625514 91.451867 92.108746 94.199107 102.112866
20.400000 88.717438 90.220578 92.251447 92.796793 94.925663 102.458469
20.525000 89.078017 90.740865 92.908913 93.470664 95.685321 103.262604
20.650000 89.647745 91.359002 93.624848 94.196343 96.552888 104.041116
20.791429 90.409488 92.136460 94.431688 94.968394 97.463231 104.453423
20.932857 91.013931 92.815496 95.147019 95.714827 98.272318 105.166237
21.074286 91.581175 93.498347 95.841178 96.472260 99.233218 106.266275
21.215714 92.265748 94.094230 96.510821 97.240466 100.090210 107.052694
21.357143 92.968682 94.936722 97.301226 98.007961 101.071694 107.838883
21.498571 93.605071 95.565725 97.988796 98.760899 102.080549 108.562811
21.640000 94.167749 96.253484 98.659346 99.510767 102.894315 109.326895
21.767500 94.508362 96.870726 99.352498 100.199273 103.725668 110.096385
21.895000 95.202265 97.516973 99.953272 100.902839 104.462798 111.089455
22.022500 95.685830 98.310782 100.735123 101.611706 105.391723 111.473758
22.150000 96.478281 98.963034 101.431733 102.289974 106.149171 112.131195
22.272500 97.058899 99.530969 102.099712 102.953190 106.982597 112.863067
22.395000 97.559968 100.141550 102.776932 103.622290 107.569726 113.383106
22.517500 98.385160 100.800863 103.460236 104.290897 108.328879 113.890340
22.640000 99.095850 101.377744 104.135467 104.965307 109.133004 114.369630
22.765000 99.728145 102.152613 104.979481 105.710070 109.879365 114.943944
22.890000 100.124724 102.783095 105.799062 106.425390 110.752941 115.389934
23.015000 100.651580 103.500556 106.612344 107.170284 111.496858 115.823248
23.140000 101.379501 104.296800 107.376979 107.923102 112.267590 116.361339
23.265000 102.205271 104.970341 108.322641 108.730331 112.861323 116.759838
23.390000 102.780432 105.752249 109.139712 109.533899 113.610308 117.210325
23.515000 103.348107 106.640235 110.254018 110.424589 114.393381 117.736926
23.640000 103.904222 107.511193 111.357247 111.320575 115.178164 118.173900
23.765000 104.730119 108.454198 112.336644 112.237544 116.155768 118.845924
23.890000 105.448398 109.488014 113.564634 113.270058 116.957009 119.447619
24.015000 106.271509 110.731572 114.674049 114.317950 117.860459 120.039245
24.140000 106.984077 111.696049 115.728124 115.264124 118.616905 120.678710
24.265000 108.719428 113.017463 117.008294 116.495621 119.635596 121.453580
24.390000 110.492335 114.787131 118.406313 117.783801 120.516910 122.197329
24.515000 113.209616 116.983873 119.601853 119.186619 121.409664 123.042348
24.640000 115.489671 118.511577 120.577019 120.348793 122.237989 123.808646
24.765000 116.767481 119.466958 121.436239 121.255492 123.012103 124.442368
24.890000 117.792197 120.401989 122.294288 122.080310 123.759782 125.182543
25.015000 118.984541 121.340900 123.126120 122.938553 124.505853 125.773953
25.140000 120.329972 122.340717 123.903950 123.734599 125.171151 126.360661
25.240000 120.915276 122.911807 124.529162 124.338724 125.727309 126.917152
25.340000 121.681878 123.565928 125.137926 124.965604 126.346254 127.552752
25.465000 122.443108 124.399961 125.962742 125.807764 127.208553 128.529237
25.590000 123.506853 125.309291 126.704886 126.636940 128.006745 129.270754
25.715000 124.445934 126.217638 127.469048 127.476413 128.803062 130.172410
25.840000 125.489225 127.103956 128.271948 128.281470 129.589218 130.932637
25.965000 126.202543 127.767683 128.996309 129.011636 130.344704 131.777129
26.090000 126.883681 128.487210 129.706690 129.743631 131.063473 132.480534
26.215000 127.809186 129.201580 130.410966 130.438416 131.735124 133.124413
26.340000 128.656127 129.805988 131.012961 131.098393 132.413810 133.828528
26.465000 129.234678 130.413926 131.725091 131.799194 133.247049 134.843522
26.590000 129.868837 131.030780 132.419472 132.479215 133.994700 135.416019
26.715000 130.428117 131.623706 133.052962 133.134089 134.645483 136.217886
26.840000 131.081630 132.200215 133.692817 133.770228 135.305574 136.868610
26.965000 131.690695 132.743912 134.312256 134.399039 135.962626 137.508214
27.090000 132.172864 133.341310 134.950115 135.017856 136.622603 137.998786
27.215000 132.606749 133.882527 135.579922 135.591921 137.182289 138.752341
27.340000 133.222290 134.488668 136.168699 136.177431 137.837698 139.294803
27.482857 133.757843 135.058809 136.822276 136.794499 138.571415 139.883825
27.625714 134.234379 135.591157 137.361395 137.370591 139.138790 140.484211
27.768571 134.824184 136.141112 137.958798 137.944274 139.704394 141.028898
27.911429 135.241322 136.653586 138.567633 138.500559 140.281317 141.726794
28.054286 135.797721 137.218287 139.085278 139.051601 140.840144 142.324963
28.197143 136.405930 137.744967 139.605372 139.591424 141.337604 142.925062
28.340000 136.852478 138.270622 140.179700 140.138179 141.953819 143.504313
28.465000 137.357060 138.725827 140.640402 140.609367 142.472892 143.964680
28.590000 137.754591 139.191031 141.054570 141.066473 142.980983 144.351543
28.715000 138.171614 139.714168 141.567798 141.525163 143.409875 144.758781
28.840000 138.555628 140.132206 142.043983 141.984343 143.923454 145.258104
28.965000 138.971233 140.571871 142.521548 142.447117 144.460987 145.736145
29.090000 139.312021 141.000729 142.965256 142.931980 144.954808 146.248639
29.215000 139.758213 141.431061 143.435673 143.402064 145.404752 146.810729
29.340000 140.254103 141.843462 143.935354 143.879093 145.880351 147.311032
29.465000 140.677698 142.243454 144.445390 144.366358 146.388007 147.998186
29.590000 141.189434 142.667770 144.948071 144.863634 146.929800 148.593448
29.715000 141.734338 143.072109 145.498260 145.358971 147.386336 149.268878
29.840000 142.142253 143.508397 145.972832 145.839901 147.904091 149.879056
29.965000 142.550730 143.905421 146.394576 146.302397 148.394721 150.644244
30.090000 143.018567 144.347472 146.821373 146.774738 148.878769 151.080742
30.215000 143.437279 144.808651 147.316203 147.223051 149.362204 151.638986
30.340000 143.862264 145.212753 147.760818 147.690497 149.877080 152.285275
30.482857 144.353984 145.687202 148.254874 148.215389 150.451956 152.992922
30.625714 144.702034 146.137741 148.770972 148.729011 150.994826 153.640206
30.768571 145.134341 146.605304 149.256388 149.254672 151.592055 154.141572
30.911429 145.599365 147.074624 149.771625 149.766375 152.109041 154.686204
31.054286 146.035445 147.528707 150.302484 150.285229 152.659142 155.182032
31.197143 146.484520 148.042167 150.815538 150.791053 153.294180 155.692503
31.340000 146.864113 148.524949 151.290116 151.308956 153.861598 156.190315
31.482857 147.252455 149.073974 151.799986 151.814957 154.306233 156.655280
31.625714 147.679412 149.558308 152.341943 152.330308 154.886204 157.296873
31.768571 148.110457 150.039412 152.852155 152.832985 155.446271 157.753217
31.911429 148.545986 150.503699 153.385578 153.346767 155.945043 158.182318
32.054286 148.917207 151.076429 153.880335 153.864295 156.499083 158.752626
32.197143 149.308861 151.482067 154.443798 154.376052 157.025389 159.250274
32.340000 149.743159 151.937909 155.024321 154.888218 157.521459 159.640648
32.482857 150.164635 152.484988 155.564071 155.403738 158.029948 160.271598
32.625714 150.687710 153.063794 156.121254 155.928556 158.546832 161.037236
32.768571 151.105036 153.572808 156.746167 156.469404 159.059970 161.530580
32.911429 151.600638 154.089335 157.388374 157.005149 159.582950 162.082512
33.054286 152.085199 154.640914 157.950772 157.539360 160.041028 162.650968
33.197143 152.633210 155.095978 158.468061 158.084412 160.575781 163.231296
33.340000 153.085299 155.642016 159.047969 158.636087 161.212164 163.752704
33.465000 153.611412 156.094489 159.538455 159.123003 161.682039 164.311823
33.590000 153.938309 156.575478 159.977602 159.594010 162.195766 164.864363
33.715000 154.354636 157.087724 160.486205 160.090644 162.807730 165.542894
33.840000 154.859084 157.543538 161.007072 160.588793 163.337760 166.013807
33.965000 155.378267 158.043833 161.453860 161.079928 163.781788 166.686003
34.090000 155.909088 158.498381 161.936363 161.576326 164.270146 167.209477
34.215000 156.611989 159.058825 162.369641 162.067485 164.725731 167.840035
34.340000 156.991110 159.567035 162.854332 162.561998 165.236840 168.319426
34.482857 157.856421 160.075258 163.362010 163.126661 165.812378 168.866244
34.625714 158.492514 160.625278 163.807645 163.700463 166.417679 169.616493
34.768571 159.111307 161.179387 164.317626 164.250577 167.077653 170.305370
34.911429 159.627484 161.748326 164.862053 164.813255 167.614590 170.998751
35.054286 160.056186 162.372416 165.390781 165.374131 168.205543 171.850553
35.197143 160.826509 162.843911 165.897073 165.940972 168.842309 172.359968
35.340000 161.490135 163.417011 166.439627 166.529582 169.431289 172.876017
35.470000 161.892897 163.985884 166.910264 167.061147 169.938245 173.542157
35.600000 162.280883 164.549224 167.428582 167.602563 170.522492 174.191267
35.730000 162.687928 165.050876 167.921190 168.161798 171.141887 174.912733
35.860000 163.126375 165.585860 168.482834 168.728759 171.720350 175.471720
35.990000 163.936487 166.154433 169.002325 169.305839 172.360621 176.192739
36.115000 164.508737 166.604361 169.545143 169.868400 172.995261 176.818422
36.240000 164.925025 167.117453 170.075902 170.440841 173.679564 177.453870
36.365000 165.531566 167.634702 170.602356 171.016676 174.321647 178.008242
