depth(m) lower_95(kyr) lower_68(kyr) median(kyr) mean(kyr) upper_68(kyr) upper_95(kyr)
0.120000 2.287522 3.027727 3.826489 3.823520 4.583872 5.447716
0.230000 4.306152 5.321802 6.281650 6.310606 7.342483 8.561518
0.330000 6.708621 7.938885 9.289504 9.248464 10.596475 11.646932
0.430000 9.923484 11.492136 12.642277 12.527862 13.572648 14.569484
0.530000 13.544401 14.461887 15.326421 15.336602 16.213961 17.148213
0.630000 15.757417 16.635956 17.599866 17.584249 18.531895 19.530595
0.730000 17.199795 18.164710 19.198381 19.254180 20.290079 21.518790
0.870000 19.195589 20.058094 21.240310 21.338885 22.554381 24.070562
1.000000 20.892707 21.841185 23.223542 23.304615 24.657803 26.495398
1.130000 22.603378 23.766547 25.156793 25.237949 26.702865 28.556586
1.230000 24.047878 25.105278 26.755169 26.802323 28.377461 30.390858
1.330000 25.450404 26.787023 28.360545 28.491336 30.184020 32.198974
1.450000 27.315321 28.801374 30.415339 30.579362 32.396043 34.777680
1.590000 29.798314 31.121825 32.807900 33.006254 34.828018 37.758165
1.690000 31.479911 32.757194 34.596108 34.841152 36.859378 39.563503
1.790000 32.948950 34.418124 36.442941 36.675591 38.946666 41.723501
1.870000 34.128138 35.660728 37.916496 38.140360 40.626172 43.453765
1.980000 35.770997 37.428959 39.911020 40.182978 42.878983 46.131986
2.070000 37.121892 39.064964 41.594579 41.836758 44.657364 47.995784
2.180000 38.811136 40.854012 43.670567 43.878110 46.948598 49.952494
2.280000 40.459302 42.680551 45.590413 45.754422 48.916882 51.753718
2.380000 42.133059 44.479210 47.433095 47.599475 51.045384 53.852897
2.470000 43.513742 46.036099 49.078747 49.321652 52.812959 55.666998
2.590000 45.228394 47.988935 51.250963 51.481551 55.156458 57.772728
2.670000 46.620875 49.286025 52.923315 53.023080 56.720152 59.243019
2.780000 48.888290 51.274639 55.403445 55.210533 58.893608 61.320223
2.870000 50.572577 53.420618 57.309198 57.009387 60.415579 62.750158
2.960000 52.755411 55.596945 59.149824 58.920736 61.939680 64.189083
3.090000 55.804699 58.867858 61.832111 61.664182 64.397376 66.661971
3.180000 58.532196 61.313365 63.764218 63.659313 66.116269 68.451532
3.280000 60.784177 63.440166 65.857261 65.775533 68.160141 70.336398
3.390000 63.811915 66.078823 68.142044 68.160580 70.381372 72.420746
3.480000 66.211733 68.458108 70.250416 70.340121 72.290653 74.478347
3.570000 69.215156 71.183390 72.981538 73.048520 74.989783 77.206321
3.670000 71.701385 73.594939 75.458582 75.548075 77.330158 79.621196
3.780000 74.823129 76.906142 78.591285 78.880624 80.769482 83.719331
3.880000 77.468650 79.670474 81.364422 81.797438 83.819931 88.101273
3.990000 81.079883 82.899924 84.673097 85.091786 87.016501 91.800688
4.100000 84.304591 86.509920 88.287357 88.707317 90.840499 95.385208
4.200000 87.262413 89.329899 91.302234 91.714555 93.985122 98.471451
4.280000 89.548732 91.623494 93.758134 94.205052 96.553751 103.679904
4.370000 92.272611 94.339678 96.675746 97.144913 99.624615 106.317291
4.430000 93.976063 96.397885 98.711247 99.181076 101.996667 108.062235
4.460000 94.882857 97.342282 99.662215 100.107111 102.908896 108.945823
4.550000 97.369494 100.141270 102.933938 103.389042 106.568959 111.484541
4.670000 100.785007 104.553229 108.351717 108.306911 112.059260 115.226626
4.790000 104.921769 110.605682 114.143688 113.546081 116.590144 118.545219
4.900000 113.138370 115.955947 117.941166 117.823035 119.807661 121.462808
5.020000 117.237095 119.201191 120.921464 120.807652 122.462914 123.833390
5.120000 120.119677 121.645385 123.135567 123.067297 124.474953 125.678083
5.220000 122.273374 123.819655 125.073979 125.074223 126.362217 127.457551
5.320000 124.595219 125.988033 127.168543 127.173721 128.392851 129.540159
5.420000 127.425835 128.484336 129.690787 129.703611 130.978831 132.184866
5.520000 129.670032 130.811437 132.064560 132.110090 133.415343 134.753575
5.620000 131.659342 132.935801 134.338203 134.394581 135.786229 137.627355
5.720000 133.410152 134.801447 136.264876 136.343563 137.753771 139.757165
5.820000 135.093467 136.548720 138.033562 138.126362 139.653410 142.054718
5.920000 136.904362 138.409273 139.855160 139.977031 141.583037 143.678182
6.020000 138.923124 140.289094 141.714680 141.871152 143.404224 145.618501
6.130000 140.999002 142.378918 143.878603 144.079930 145.830442 148.442866
6.230000 142.855694 144.431873 145.954858 146.217835 148.113469 150.858023
6.330000 144.679612 146.375614 148.231114 148.419219 150.481253 153.453925
6.430000 146.782435 148.419406 150.462772 150.705039 153.004285 155.579768
6.530000 148.456181 150.546350 152.925590 152.943643 155.321414 157.662076
6.630000 150.674951 153.006431 155.275393 155.236624 157.479010 159.875719
6.720000 152.584106 155.181309 157.349506 157.296593 159.471904 161.340601
6.820000 155.095020 157.541926 159.606867 159.529247 161.519976 163.166617
6.910000 157.372556 159.629748 161.756333 161.641770 163.704194 165.269633
7.000000 159.593518 161.946481 163.983033 163.905687 165.773989 167.809731
7.090000 162.353277 164.332342 166.107545 166.190551 167.944839 170.952090
7.180000 164.771215 166.487719 168.347874 168.490955 170.352639 173.366529
7.270000 166.915041 168.802260 170.699191 170.865131 172.764492 176.258393
7.360000 169.267135 171.071456 173.006123 173.243710 175.375152 179.085393
7.450000 171.534373 173.317134 175.362956 175.609710 177.905416 181.203079
7.530000 173.420927 175.389011 177.645050 177.828687 180.401886 183.413656
7.620000 175.664221 177.592572 180.221752 180.321194 183.029592 185.575729
7.710000 178.031390 180.384878 183.053513 182.967793 185.515833 187.539987
7.790000 180.145279 183.383855 185.883139 185.537966 187.619983 189.106680
7.880000 184.141195 187.047588 188.813841 188.729997 190.412449 192.611301
7.950000 187.043817 189.028657 190.698042 190.827745 192.424194 196.175255
8.030000 189.452111 190.947575 192.528211 192.987059 194.686170 200.787198
8.100000 191.399371 192.591245 194.282217 195.077551 197.495532 203.486462
8.180000 193.258228 194.743224 196.996086 197.662328 200.695923 206.004841
8.260000 194.795428 196.825679 199.958745 200.458803 204.612249 207.940227
8.340000 196.277684 199.019199 203.338478 203.251833 207.545338 209.639841
8.420000 197.946549 201.974836 206.850832 206.165623 209.802781 211.315211
8.500000 200.010552 206.198301 209.748637 208.875053 211.687153 212.985949
8.590000 203.186510 210.369952 212.308819 211.715086 213.612726 214.919861
8.680000 209.100676 213.610214 215.033806 214.812572 216.363383 218.220717
8.770000 216.311050 217.578132 219.063306 219.338094 221.080288 223.850909
8.870000 219.075533 220.897447 222.722836 222.883236 224.951075 227.206865
8.980000 222.091255 224.560930 226.748357 226.599817 228.710841 230.315088
9.080000 225.392691 227.702570 229.655705 229.513107 231.325591 232.916349
9.190000 228.940992 230.959763 232.671910 232.561188 234.146236 235.502592
9.290000 232.244844 233.876192 235.422996 235.374934 236.742931 238.479711
9.400000 235.336482 236.698892 238.299738 238.263874 239.800660 241.094416
9.490000 237.540971 239.197627 240.853398 240.673391 241.959817 243.158260
9.580000 240.512107 241.908215 243.160615 243.100554 244.243449 245.478509
9.680000 243.095525 244.110427 245.366909 245.392392 246.694700 247.899898
9.780000 245.078473 246.204400 247.561620 247.721499 249.212719 251.052154
9.870000 246.738734 247.974629 249.500146 249.737372 251.458655 254.096096
9.960000 248.177603 249.661968 251.308815 251.695368 253.855498 257.009277
10.060000 249.968618 251.523964 253.296286 253.840777 256.459342 260.259755
10.160000 251.590861 253.327188 255.473923 256.026777 258.991444 262.889818
10.270000 253.512475 255.476704 257.922325 258.523053 262.063619 265.836826
10.380000 255.490445 257.880511 260.606689 261.110577 264.782205 268.583398
10.500000 257.943160 260.354225 263.506812 263.883220 267.834487 270.971107
10.550000 259.081658 261.547387 264.802540 265.118726 269.304266 272.003633
10.610000 260.388195 263.116480 266.228502 266.597801 270.683139 273.191378
10.710000 263.035817 266.008933 269.242506 269.249512 272.871141 274.992693
10.730000 263.555306 266.588394 269.797088 269.794248 273.330003 275.291122
10.840000 268.318510 270.506686 273.345440 273.216630 275.907103 277.303920
10.910000 271.358527 273.464849 276.000283 275.656593 277.711368 278.894431
10.940000 272.391657 274.519789 276.812290 276.531141 278.356577 279.533963
11.030000 276.064446 277.798121 279.223742 279.043246 280.289695 281.108555
11.120000 278.959403 280.072488 281.090528 281.040272 281.996636 282.847005
11.200000 280.819107 281.748733 282.603614 282.618157 283.552533 284.390369
11.230000 281.331745 282.308620 283.176537 283.180232 284.137403 285.028106
11.280000 282.136429 283.158877 284.009873 284.052844 285.033887 285.983250
11.320000 282.747052 283.839569 284.718782 284.744707 285.728577 286.673755
11.360000 283.433764 284.473226 285.367552 285.419012 286.438414 287.369639
11.410000 284.332416 285.259874 286.209871 286.262147 287.298461 288.292577
11.490000 285.586118 286.563112 287.583834 287.734001 288.759559 291.004054
11.590000 287.290545 288.312817 289.587986 290.086148 291.631740 296.056194
11.710000 289.240057 290.487721 292.374606 293.165510 295.891198 301.573740
