depth(m) lower_95(kyr) lower_68(kyr) median(kyr) mean(kyr) upper_68(kyr) upper_95(kyr)
0.000000 0.020718 0.111237 0.369706 0.430426 0.744427 1.205362
0.040000 0.227464 0.377230 0.650091 0.703590 1.030090 1.472497
0.080000 0.438200 0.619112 0.922270 0.965203 1.341737 1.724411
0.120000 0.639809 0.855390 1.173925 1.217763 1.610549 2.016586
0.160000 0.884872 1.102059 1.427865 1.478586 1.873725 2.294767
0.200000 1.076230 1.342195 1.690024 1.736472 2.155171 2.542312
0.240000 1.306780 1.581822 1.946149 1.992708 2.429270 2.777827
0.280000 1.533774 1.837729 2.207765 2.244037 2.674733 3.044481
0.320000 1.760516 2.085839 2.461299 2.498635 2.935737 3.328036
0.360000 1.981213 2.336052 2.735650 2.761597 3.206196 3.589129
0.400000 2.211807 2.591244 3.003935 3.018789 3.470958 3.819499
0.440000 2.447595 2.832130 3.280323 3.283817 3.750570 4.099478
0.480000 2.682360 3.082901 3.551683 3.540379 3.998237 4.344326
0.520000 2.926647 3.338045 3.815435 3.796232 4.254921 4.599355
0.560000 3.153449 3.580335 4.085988 4.053304 4.510149 4.867149
0.600000 3.400750 3.843699 4.329028 4.315236 4.766861 5.151791
0.640000 3.662654 4.111208 4.608230 4.577851 5.044655 5.421780
0.680000 3.933696 4.391091 4.886343 4.846774 5.294169 5.715202
0.720000 4.189283 4.674877 5.151477 5.120317 5.559350 5.972864
0.760000 4.478348 4.931897 5.408595 5.398391 5.838352 6.286727
0.800000 4.751744 5.210057 5.707485 5.691563 6.119872 6.619519
0.840000 5.035015 5.540124 6.012186 6.003796 6.456197 6.984127
0.880000 5.252390 5.858775 6.338114 6.339766 6.802342 7.417707
0.920000 5.583273 6.176002 6.673437 6.692350 7.210488 7.853890
0.960000 5.915071 6.492529 7.044675 7.075947 7.647992 8.441419
1.000000 6.317470 6.891368 7.459748 7.498071 8.131462 8.882888
1.040000 6.716309 7.290604 7.943712 8.011613 8.775915 9.569040
1.080000 7.208859 7.785939 8.536353 8.561343 9.382248 10.044594
1.120000 7.690991 8.316992 9.133642 9.160086 10.029060 10.622520
1.160000 8.352566 9.116216 9.944002 9.880788 10.645451 11.281587
1.200000 8.864924 9.703375 10.519312 10.452579 11.162620 11.757711
1.240000 9.516682 10.202836 10.990857 10.917813 11.594145 12.143629
1.250000 9.589694 10.304558 11.085794 11.015987 11.697533 12.255997
1.290000 10.034058 10.707740 11.440414 11.385642 12.043075 12.574089
1.330000 10.422065 11.073722 11.770928 11.729832 12.373981 12.882185
1.370000 10.777704 11.406066 12.090194 12.059278 12.689505 13.252555
1.410000 11.161781 11.792242 12.458299 12.436854 13.039936 13.609948
1.450000 11.554384 12.271180 12.914976 12.893252 13.517250 14.122002
1.490000 12.065453 12.746966 13.395241 13.388854 14.038084 14.654043
1.530000 12.643059 13.319325 13.989911 13.998379 14.671421 15.267735
1.570000 13.198468 13.893882 14.599190 14.616348 15.359186 16.120543
1.610000 14.233210 14.965532 15.778692 15.811088 16.653859 17.627296
1.650000 15.299797 15.919475 16.708725 16.811127 17.649526 18.899265
1.690000 15.807364 16.431088 17.252022 17.339393 18.197510 19.346655
1.730000 16.246765 16.942050 17.773604 17.840583 18.706464 19.900204
1.770000 16.681640 17.330050 18.209012 18.276671 19.213040 20.392333
1.810000 17.062084 17.720027 18.631527 18.709949 19.628847 20.871284
1.850000 17.454009 18.156751 19.061181 19.136573 20.069984 21.337647
1.890000 17.815149 18.563851 19.460801 19.556959 20.523674 21.768729
1.930000 18.182721 18.953743 19.932197 19.984651 20.981100 22.278122
1.970000 18.593691 19.404912 20.343557 20.402679 21.460609 22.639948
2.010000 18.980236 19.784841 20.751835 20.824417 21.829409 23.055263
2.050000 19.410801 20.245222 21.175718 21.265977 22.268872 23.484905
2.090000 19.850605 20.710987 21.625779 21.704415 22.703608 24.034651
2.130000 20.248921 21.128679 22.080817 22.142297 23.157231 24.509938
2.170000 20.694823 21.563480 22.500491 22.583704 23.643405 24.918209
2.210000 21.151927 21.994417 22.968969 23.030187 24.097156 25.381310
2.250000 21.593776 22.426374 23.360761 23.464910 24.608242 25.731928
2.290000 22.089275 22.846872 23.824067 23.900680 25.068786 26.079249
2.330000 22.427261 23.242724 24.225757 24.309646 25.520769 26.562636
2.370000 22.838879 23.631845 24.625695 24.721642 25.977821 26.924227
2.410000 23.258217 23.968111 24.965391 25.109166 26.356273 27.284106
2.450000 23.602896 24.336822 25.366017 25.492209 26.754077 27.578013
2.490000 24.075332 24.758188 25.739467 25.886482 27.129244 27.887995
2.530000 24.501228 25.153293 26.097332 26.258223 27.513768 28.186757
2.570000 24.914953 25.562464 26.457247 26.629986 27.842272 28.493616
2.610000 25.280431 25.939807 26.853238 26.995485 28.164794 28.741373
2.650000 25.637349 26.282658 27.256044 27.366012 28.506330 29.047775
2.690000 25.910125 26.615282 27.654808 27.698812 28.821483 29.326979
2.730000 26.250425 26.945811 28.018190 28.013146 29.117773 29.636058
2.750000 26.393101 27.114486 28.155221 28.174363 29.277743 29.805018
2.790000 26.766016 27.435716 28.535432 28.502130 29.575275 30.061630
2.830000 27.129664 27.738797 28.900536 28.815488 29.846203 30.358998
2.870000 27.549618 28.061495 29.229926 29.140004 30.140693 30.677609
2.910000 27.857316 28.406455 29.609058 29.472933 30.407201 30.972093
2.950000 28.149690 28.752973 29.934346 29.799729 30.730075 31.300573
2.990000 28.401484 29.092946 30.274624 30.127040 31.015592 31.647104
3.030000 28.706385 29.433006 30.647240 30.473258 31.316242 31.990349
3.110000 29.332228 30.178811 31.286165 31.135861 31.914390 32.703134
3.150000 29.627374 30.561148 31.631914 31.491140 32.252934 33.035428
3.190000 29.913229 30.941955 31.951367 31.842381 32.608968 33.344770
3.230000 30.280372 31.311647 32.296441 32.184300 32.954117 33.658693
3.310000 30.964668 32.059463 32.906508 32.835115 33.599350 34.350507
3.390000 31.604462 32.775662 33.573464 33.528463 34.325867 35.001194
3.430000 31.966962 33.151265 33.909943 33.881426 34.655075 35.370501
3.470000 32.302248 33.573445 34.251680 34.230251 34.995156 35.661566
3.510000 32.605340 33.893134 34.627834 34.563645 35.328989 36.021329
3.590000 33.125846 34.477335 35.266882 35.195274 35.954230 36.632088
3.630000 33.441378 34.782464 35.613456 35.525284 36.294045 36.977864
3.670000 33.713226 35.110356 35.967597 35.875319 36.652342 37.287530
3.710000 33.996220 35.459843 36.330632 36.226069 37.035821 37.637360
3.750000 34.281756 35.802043 36.701138 36.589685 37.407096 38.011878
3.790000 34.515262 36.152379 37.083888 36.941272 37.719092 38.342615
3.830000 34.726471 36.502084 37.458049 37.293113 38.059420 38.642280
3.870000 34.997278 36.852329 37.821826 37.644094 38.451480 38.994529
3.910000 35.312753 37.323740 38.181425 37.998910 38.772731 39.338737
3.950000 35.556555 37.681865 38.550844 38.349546 39.120100 39.698392
3.990000 35.842291 38.074391 38.890321 38.694934 39.466555 40.004565
4.030000 36.042240 38.419461 39.240938 39.042764 39.799977 40.291430
4.070000 36.308365 38.780312 39.598211 39.388405 40.130470 40.615002
4.110000 36.573165 39.189853 39.926375 39.722993 40.465874 40.933807
4.150000 36.916832 39.559795 40.263097 40.055308 40.778064 41.229428
4.190000 37.161455 39.953748 40.603386 40.384211 41.083130 41.542575
4.230000 37.385764 40.324661 40.935767 40.719748 41.407848 41.870206
4.250000 37.528596 40.495398 41.109687 40.881922 41.552870 42.027806
4.290000 37.766245 40.818339 41.413121 41.199874 41.847437 42.321044
4.330000 38.023324 41.129767 41.727565 41.505422 42.158529 42.618992
4.370000 38.270515 41.477080 42.051854 41.823799 42.477140 42.902015
4.410000 38.534909 41.781603 42.352299 42.126427 42.778084 43.205033
4.450000 38.885083 42.071655 42.628082 42.427631 43.090971 43.495735
4.490000 39.166561 42.394313 42.930305 42.735922 43.382400 43.819720
4.530000 39.396520 42.697640 43.227484 43.037030 43.680215 44.109548
4.570000 39.678201 43.044656 43.526608 43.333827 43.962697 44.368662
4.610000 39.940199 43.352481 43.810180 43.631094 44.261942 44.669802
4.650000 40.191134 43.652000 44.092273 43.922428 44.555175 44.941817
4.690000 40.421804 43.952470 44.384587 44.209159 44.830733 45.248155
4.730000 40.642490 44.229522 44.658978 44.498026 45.102418 45.569496
4.770000 41.107221 44.504843 44.927277 44.776538 45.389353 45.830313
4.810000 41.499141 44.784013 45.204461 45.066025 45.675893 46.193206
4.850000 41.900002 45.049565 45.475145 45.348049 45.972260 46.490279
4.890000 42.250277 45.329824 45.749223 45.632270 46.235296 46.771428
4.930000 42.543913 45.592956 46.020689 45.909357 46.492929 47.083213
4.970000 42.881445 45.832623 46.288472 46.180262 46.774203 47.456565
5.010000 43.227271 46.112741 46.550068 46.458357 47.041492 47.776282
5.050000 43.543058 46.383317 46.811741 46.734156 47.301169 48.155948
5.090000 43.840562 46.642212 47.085337 47.003505 47.577931 48.488385
5.130000 44.219789 46.903662 47.362861 47.278655 47.845891 48.803540
5.170000 44.529886 47.176995 47.632768 47.552786 48.100238 49.159164
5.210000 44.875018 47.426569 47.896758 47.833019 48.411839 49.478898
5.250000 45.295721 47.664998 48.156880 48.107086 48.672704 49.827200
5.290000 45.681929 47.911756 48.433817 48.379971 48.964485 50.154994
5.330000 46.095616 48.172992 48.677501 48.651862 49.239577 50.449090
5.410000 46.774396 48.630526 49.172865 49.154891 49.727731 50.882334
5.450000 47.109055 48.898741 49.435584 49.428494 49.989754 51.183278
5.490000 47.477256 49.192443 49.691779 49.703938 50.256719 51.478006
5.530000 47.872237 49.458453 49.960424 49.979486 50.528585 51.786737
5.650000 49.059490 50.159518 50.654820 50.731821 51.319300 52.566108
5.690000 49.495477 50.420019 50.943895 51.018930 51.598090 52.918983
5.730000 49.943604 50.694148 51.230868 51.311193 51.899241 53.263360
5.750000 50.056423 50.835407 51.393412 51.466891 52.049116 53.423696
5.790000 50.370744 51.123893 51.687591 51.778245 52.400156 53.769132
5.830000 50.823602 51.396493 52.019868 52.097390 52.725992 54.064935
5.870000 51.106762 51.693994 52.324607 52.409579 53.061670 54.401268
5.910000 51.480986 52.009513 52.656254 52.737131 53.440947 54.679366
5.950000 51.757827 52.319115 52.971109 53.063430 53.789167 54.948430
5.990000 52.078266 52.639224 53.300718 53.407883 54.152298 55.311868
6.030000 52.458538 52.978756 53.631410 53.750387 54.545837 55.676348
6.070000 52.776875 53.287394 53.986235 54.099411 54.901964 55.996847
6.110000 53.046095 53.613878 54.348398 54.452030 55.332545 56.296002
6.150000 53.341346 53.935669 54.704152 54.801868 55.726427 56.604632
6.190000 53.635936 54.259665 55.056713 55.156545 56.121780 56.956323
6.230000 54.010795 54.597020 55.445665 55.522138 56.493638 57.310264
6.270000 54.296040 54.933521 55.805476 55.888420 56.921961 57.702790
6.310000 54.597424 55.254522 56.203671 56.255817 57.299618 58.004633
6.350000 54.901647 55.622011 56.578851 56.617335 57.675137 58.325349
6.390000 55.185033 55.983513 56.952950 56.973820 58.036133 58.638343
6.430000 55.505188 56.313213 57.300562 57.321838 58.361689 59.015903
6.470000 55.751631 56.620568 57.710121 57.664807 58.705228 59.277327
6.510000 56.048005 56.953611 58.077272 58.007091 59.070079 59.643320
6.550000 56.368320 57.266948 58.438212 58.347762 59.391717 59.916469
6.590000 56.687196 57.609569 58.826727 58.704104 59.732270 60.301606
6.630000 56.994094 57.937465 59.215753 59.063877 60.080450 60.592790
6.670000 57.325247 58.256111 59.604907 59.427114 60.453568 60.949109
6.710000 57.736985 58.598014 59.998143 59.803058 60.812769 61.339392
6.750000 58.100816 58.938461 60.381300 60.168178 61.179396 61.730084
6.790000 58.425955 59.316453 60.733571 60.527654 61.494885 62.091197
6.830000 58.817922 59.676752 61.088937 60.896323 61.890548 62.455387
6.870000 59.206975 60.077133 61.472597 61.289433 62.259401 62.935723
6.910000 59.554013 60.521121 61.918334 61.697453 62.629086 63.352834
6.950000 60.066109 60.998327 62.359016 62.155801 63.084561 63.771702
6.990000 60.469968 61.490615 62.831782 62.618537 63.529189 64.222130
7.030000 60.852639 62.046298 63.253674 63.074178 64.004610 64.742542
7.070000 61.314473 62.541685 63.675459 63.528618 64.441905 65.242905
7.110000 61.742980 62.981785 64.064393 63.958569 64.863596 65.682099
7.150000 62.193658 63.454777 64.438719 64.373988 65.280360 66.055562
7.190000 62.626959 63.991783 64.806257 64.782667 65.663674 66.464242
7.230000 63.089438 64.413508 65.199191 65.178639 66.030372 66.780517
7.250000 63.305722 64.623732 65.405948 65.377653 66.212372 66.982532
7.290000 63.811426 65.015201 65.775903 65.762567 66.570366 67.378452
7.370000 64.691031 65.788174 66.504396 66.500180 67.277481 68.043983
7.410000 65.162828 66.129885 66.888566 66.870669 67.638699 68.388253
7.450000 65.534142 66.492577 67.260851 67.252843 68.041476 68.793830
7.490000 66.000917 66.879754 67.670417 67.646669 68.425966 69.144142
7.530000 66.455828 67.267203 68.057001 68.049079 68.823304 69.571488
7.610000 67.364973 68.053180 68.922782 68.902715 69.662897 70.561063
7.650000 67.717933 68.509528 69.385370 69.363604 70.122919 71.112559
7.690000 68.146771 69.007328 69.865279 69.840643 70.650583 71.535558
7.730000 68.603170 69.538384 70.366461 70.363101 71.184318 72.167922
7.770000 69.001859 69.972233 70.832472 70.831994 71.669090 72.630593
7.810000 69.439802 70.468539 71.312754 71.308732 72.164802 73.202166
7.850000 69.954849 70.936670 71.805064 71.813806 72.684861 73.734877
7.890000 70.480939 71.446255 72.338744 72.339782 73.278656 74.117833
7.930000 70.969474 71.988001 72.933468 72.934773 73.895345 74.794517
7.970000 71.622949 72.572507 73.534957 73.551040 74.526839 75.574222
8.010000 72.108785 73.057469 74.168976 74.115567 75.134991 76.164022
8.050000 72.648639 73.657736 74.769472 74.728167 75.758918 76.782676
8.090000 73.157608 74.290264 75.422828 75.368120 76.409510 77.520908
8.130000 73.738448 75.032086 76.118913 76.078578 77.140214 78.263793
8.170000 74.594664 75.855534 76.936492 76.915488 78.041210 78.985851
8.210000 75.308761 76.667583 77.694782 77.658899 78.741202 79.720976
8.250000 76.102129 77.369526 78.378492 78.360109 79.365321 80.179500
8.290000 77.008716 78.055168 79.056232 78.977589 79.903331 80.653734
8.330000 77.689020 78.709381 79.627518 79.565697 80.419378 81.070679
8.370000 78.366802 79.315538 80.167309 80.108459 80.862499 81.501268
8.410000 79.015524 79.898769 80.683810 80.615351 81.319693 81.859948
8.450000 79.676397 80.508605 81.167731 81.119123 81.745693 82.201153
8.490000 80.236543 81.019182 81.647111 81.593536 82.166540 82.566251
8.530000 80.725660 81.487732 82.074350 82.029037 82.590523 83.005309
8.570000 81.293924 81.937746 82.502989 82.470997 83.011732 83.412338
8.610000 81.799882 82.393645 82.920836 82.887680 83.411789 83.804830
8.650000 82.209532 82.770840 83.319998 83.286354 83.785689 84.200212
8.690000 82.570774 83.173952 83.706552 83.661213 84.147787 84.589772
8.730000 82.881364 83.562134 84.076770 84.031377 84.521062 84.908098
8.750000 83.065674 83.745639 84.242227 84.219089 84.696266 85.117611
8.790000 83.500039 84.130213 84.607316 84.581142 85.035409 85.493397
8.830000 83.911063 84.529112 84.968488 84.954912 85.415612 85.868422
8.870000 84.312192 84.864912 85.348935 85.332235 85.823575 86.224142
8.910000 84.679920 85.271789 85.751527 85.741012 86.231351 86.704891
8.950000 85.109726 85.707489 86.200327 86.211531 86.715737 87.284920
8.990000 85.542957 86.201147 86.724074 86.794850 87.386045 88.220590
9.030000 86.034704 86.711907 87.337047 87.398376 88.050221 89.151255
9.070000 86.626929 87.232768 87.951251 88.022106 88.745685 90.117238
9.110000 87.106727 87.779949 88.609867 88.700615 89.660209 90.874652
9.190000 88.057942 88.952993 89.975950 90.040284 91.181420 92.213114
9.230000 88.461884 89.535896 90.681165 90.649532 91.758081 92.719099
9.270000 89.000892 90.076145 91.274915 91.251476 92.360323 93.357724
9.310000 89.514645 90.680343 91.869767 91.808625 92.910503 93.916591
9.350000 90.013364 91.250467 92.502356 92.398984 93.445542 94.529463
9.390000 90.496139 91.811012 93.051837 92.944716 93.954604 94.951272
9.430000 91.147129 92.400067 93.559791 93.475473 94.457538 95.428848
9.470000 91.648422 92.888398 94.058163 93.958858 94.980298 95.913532
9.510000 92.179975 93.375518 94.534772 94.456434 95.455425 96.345137
9.550000 92.764249 93.929161 95.037165 94.974786 96.016570 96.840103
9.590000 93.307748 94.507491 95.525532 95.506710 96.590679 97.357019
9.630000 93.952597 95.064289 96.060788 96.044183 97.071434 97.870141
9.670000 94.486116 95.601671 96.540921 96.545635 97.539272 98.378616
9.710000 95.106805 96.058366 96.973278 97.011439 97.989790 98.938785
9.750000 95.637231 96.494415 97.424319 97.444954 98.407480 99.389531
9.790000 96.071172 96.925271 97.876021 97.885064 98.893146 99.876898
9.830000 96.525512 97.363629 98.267365 98.315743 99.358338 100.356057
9.870000 96.989527 97.771749 98.648715 98.744189 99.794013 100.722525
9.910000 97.451032 98.210220 99.077815 99.173671 100.188704 101.242946
9.950000 97.891897 98.629406 99.497738 99.605749 100.644910 101.738301
9.990000 98.345727 99.053407 99.910855 100.038371 101.064927 102.389470
10.030000 98.743862 99.432742 100.345722 100.467194 101.517387 102.785343
10.070000 99.161345 99.814197 100.795697 100.897916 101.954821 103.290544
10.110000 99.584662 100.209710 101.201030 101.327812 102.442115 103.757769
10.150000 99.939711 100.646767 101.645203 101.767667 102.930217 104.198114
10.190000 100.309695 101.032765 102.133928 102.215677 103.427995 104.657759
10.230000 100.696733 101.441211 102.607852 102.673097 103.928655 105.185933
10.250000 100.911181 101.650706 102.877938 102.923621 104.182544 105.414231
10.290000 101.414269 102.108025 103.370863 103.411904 104.719956 105.955307
10.330000 101.820159 102.543845 103.877948 103.912119 105.243878 106.497342
10.370000 102.212570 102.969462 104.377865 104.408740 105.783420 107.027625
10.410000 102.685534 103.416923 104.856015 104.895161 106.265617 107.577539
10.450000 103.144212 103.933661 105.329570 105.380097 106.727306 108.110568
10.490000 103.580934 104.447428 105.858850 105.890625 107.222583 108.642663
10.530000 103.989417 105.004944 106.433555 106.415023 107.719068 109.193676
10.570000 104.523595 105.533959 106.957989 106.959080 108.254725 109.640082
10.610000 105.036444 106.112012 107.460554 107.505430 108.860167 110.227614
10.650000 105.584221 106.708613 108.054827 108.061605 109.379350 110.749580
10.690000 106.122904 107.339283 108.599192 108.628746 109.957864 111.273331
10.730000 106.717341 107.851823 109.155928 109.177506 110.541315 111.838430
10.770000 107.379441 108.440210 109.671503 109.713678 111.080970 112.206243
10.810000 107.833506 108.980671 110.165457 110.241294 111.628246 112.705550
10.850000 108.362010 109.491665 110.665927 110.774586 112.100728 113.251262
10.890000 108.908444 110.070159 111.242884 111.329875 112.638327 113.807860
10.930000 109.517505 110.688266 111.844965 111.916279 113.203258 114.481386
10.970000 110.114922 111.305072 112.520474 112.557274 113.851114 115.159460
11.050000 111.572086 112.743653 114.127974 114.181488 115.562646 117.263802
11.090000 112.182761 113.523260 114.948287 114.978094 116.370187 118.228120
11.130000 112.929343 114.368545 115.853074 115.861475 117.358970 118.907526
11.170000 113.641585 115.293934 116.755347 116.778696 118.286162 119.859883
11.210000 114.571195 116.345612 117.898876 117.889492 119.459738 120.987039
11.250000 115.963789 117.617175 119.132188 119.152275 120.768594 122.260609
11.290000 117.266159 118.615179 120.147479 120.161018 121.682004 123.060692
11.330000 118.318626 119.752574 121.126986 121.112491 122.522652 123.879763
11.370000 119.150760 120.627529 122.017801 121.985430 123.336347 124.633764
11.410000 120.271949 121.612794 122.831399 122.844787 124.194980 125.405601
11.450000 120.996936 122.391485 123.600124 123.621468 124.939020 125.982641
11.490000 121.788259 123.198215 124.391321 124.378497 125.681474 126.723591
11.530000 122.636598 123.949642 125.170368 125.174130 126.475711 127.378048
11.570000 123.322320 124.759241 126.137414 126.087274 127.459655 128.562844
11.610000 124.362556 126.108653 127.672617 127.669977 129.240471 130.989604
11.650000 127.305861 128.684313 130.339737 130.315758 131.900299 133.276853
11.690000 128.435319 129.983628 131.389190 131.385167 132.887130 134.122154
