depth(m) lower_95(kyr) lower_68(kyr) median(kyr) mean(kyr) upper_68(kyr) upper_95(kyr)
0.010000 2.605714 3.248834 3.842382 3.833061 4.443870 5.005484
0.060000 3.164845 3.805336 4.451494 4.419551 5.010525 5.628767
0.110000 3.693527 4.386729 5.001572 4.999611 5.587385 6.209719
0.210000 4.887018 5.478560 6.112594 6.108765 6.720250 7.435015
0.260000 5.403493 6.090524 6.697891 6.723507 7.340277 8.106757
0.310000 6.145997 6.766973 7.396527 7.418906 8.046666 8.855960
0.360000 6.915918 7.494652 8.137110 8.187578 8.871744 9.719856
0.410000 7.735057 8.316644 8.977316 9.017408 9.720666 10.478285
0.460000 8.472651 9.051843 9.846990 9.835130 10.619096 11.348750
0.510000 9.240789 10.015396 10.835355 10.836051 11.697099 12.383394
0.560000 10.220703 11.015720 11.943273 11.895059 12.780981 13.460308
0.610000 11.026430 11.954036 12.900274 12.844683 13.701853 14.424675
0.660000 12.588051 13.313463 14.073642 14.043732 14.772129 15.415613
0.710000 13.527346 14.382407 15.057397 15.033441 15.705500 16.399203
0.760000 14.699834 15.423301 16.047774 16.099316 16.761678 17.915420
0.810000 15.468300 16.267303 16.913020 17.031280 17.762602 19.077631
0.860000 16.090892 16.929942 17.649238 17.796970 18.636837 20.131962
0.910000 16.704667 17.533554 18.372564 18.547631 19.500888 21.261843
0.960000 17.212729 18.164344 19.072359 19.278490 20.409265 22.328018
1.010000 17.794847 18.793925 19.777230 19.991824 21.209346 23.244631
1.060000 18.408320 19.418110 20.438306 20.687637 21.984163 24.304243
1.110000 19.024074 20.067318 21.108911 21.382903 22.670410 25.042396
1.210000 20.247761 21.245959 22.415068 22.710269 24.193515 26.481107
1.310000 21.426300 22.489469 23.839723 24.104372 25.779270 28.093285
1.410000 22.657140 23.798087 25.288660 25.538804 27.295478 29.732269
1.510000 24.004261 25.190868 26.729807 27.017761 28.857123 31.373278
1.610000 25.423021 26.763431 28.492950 28.779724 30.863565 33.589917
1.710000 26.972485 28.665140 30.931338 31.145243 33.404751 36.977644
1.810000 28.961519 30.695946 33.685329 34.069099 37.094096 42.093191
1.954444 31.301376 33.800216 37.701527 38.515406 42.978842 50.707004
2.098889 33.827348 37.233298 42.174974 42.964374 49.058625 56.600407
2.243333 36.653674 40.936663 47.296926 47.672378 54.533193 60.880645
2.387778 40.111288 45.187930 52.403598 52.509724 59.645192 65.405430
2.532222 43.817422 50.169387 57.902758 57.380319 64.219820 68.880542
2.676667 48.024864 55.691260 63.380432 62.221911 68.594101 72.046650
2.821111 52.876627 61.283628 68.157851 66.831225 71.857133 74.366677
2.965556 59.075451 67.958577 72.273799 71.262947 74.722570 76.684825
3.110000 72.120592 73.905281 75.786450 75.652756 77.281314 78.882229
3.210000 74.007400 76.046807 77.542742 77.439184 78.879486 80.200282
3.310000 76.012315 77.666512 79.039978 78.971790 80.274195 81.539112
3.410000 77.686953 79.208005 80.439485 80.430583 81.751543 82.956368
3.510000 79.080416 80.694415 81.879199 81.863969 83.160411 84.511940
3.530000 79.455488 81.002794 82.185836 82.169824 83.433801 84.858109
3.610000 80.429827 81.930208 83.089832 83.166450 84.471676 85.912871
3.710000 81.722731 83.049493 84.270254 84.359166 85.684524 87.434219
3.810000 83.194695 84.267226 85.392124 85.542332 86.826544 88.759339
3.910000 84.287650 85.450365 86.595009 86.787882 88.086738 90.304885
4.010000 85.550207 86.672894 87.905066 88.094567 89.478822 91.818412
4.110000 86.592264 87.809927 89.062878 89.377625 91.037504 93.429878
4.210000 87.700070 88.977430 90.402273 90.666682 92.468090 95.060264
4.310000 88.835811 90.147193 91.674917 91.960185 93.856628 96.646948
4.410000 90.005542 91.241423 93.023552 93.325998 95.540782 98.356739
4.510000 91.105808 92.504250 94.306941 94.762560 97.260398 100.224374
4.610000 92.287025 93.793192 96.008418 96.350543 99.137006 102.028351
4.710000 93.492010 95.268492 97.747658 98.112011 101.204035 103.771788
4.810000 94.720868 96.943290 100.031226 100.032836 103.044594 105.025856
4.910000 96.373239 98.991381 102.264421 102.041234 104.801006 106.686665
5.010000 98.432319 101.375822 104.329824 103.957312 106.378224 108.053932
5.110000 100.895891 103.628405 106.184463 105.825415 107.834370 109.322622
5.210000 103.373672 105.599647 107.781641 107.522098 109.246521 110.772929
5.310000 105.652315 107.605085 109.419407 109.217246 110.750612 112.290663
5.410000 107.694222 109.501794 111.013187 110.909934 112.264425 113.722256
5.460000 108.669583 110.560061 111.863416 111.808391 113.092682 114.414353
5.510000 109.838301 111.497551 112.775679 112.728146 113.951901 115.283629
5.560000 110.946110 112.431298 113.658644 113.624550 114.801616 116.129342
5.610000 111.849494 113.303824 114.517963 114.494242 115.627886 117.119815
5.660000 112.767399 114.197215 115.317094 115.379939 116.557873 118.081639
5.710000 113.755260 115.125456 116.272087 116.298154 117.456604 119.049982
5.760000 114.830691 116.091604 117.145090 117.287215 118.481564 120.209808
5.810000 115.919635 117.042768 118.113970 118.336024 119.622994 121.988363
5.860000 116.931615 118.084043 119.290612 119.466050 120.724034 124.184396
5.910000 117.954022 119.131508 120.450154 120.746987 122.156648 126.197044
5.930000 118.426910 119.686029 120.944803 121.289907 122.784850 126.908819
5.960000 119.213132 120.406598 121.851968 122.219920 123.963601 127.624543
5.980000 119.741656 121.028111 122.535634 122.894147 124.713746 128.314997
6.010000 120.655104 122.009213 123.735968 124.010514 125.889598 129.056365
6.030000 121.208273 122.671062 124.595167 124.799799 126.937364 129.644388
6.060000 122.702738 125.630861 130.199396 130.953083 135.529859 143.569322
6.080000 132.500478 134.612834 137.231053 138.501501 140.861469 155.868938
6.090000 132.962294 135.055789 137.689096 138.923121 141.240455 156.234295
6.110000 133.819457 135.978979 138.688899 139.834092 141.950551 157.127705
6.130000 134.817685 137.017601 139.483472 140.688749 142.730687 157.966909
6.160000 136.056590 138.326774 140.984140 142.093890 143.982175 159.362384
6.180000 136.694251 139.158453 141.894134 142.966149 144.972845 160.105827
6.230000 138.476468 142.281187 145.119806 146.593987 150.031259 162.629252
6.260000 139.453661 143.750831 146.797356 148.362218 153.345943 164.728172
6.310000 142.110100 146.154855 149.423734 151.530215 159.001095 168.230066
6.410000 147.214973 151.061399 159.768740 160.544694 169.784586 179.974042
6.510000 152.297067 163.296684 172.440682 171.740618 180.604426 185.003511
6.610000 163.127772 172.909511 183.055550 180.883009 187.147836 189.441764
6.710000 177.792289 188.522959 191.213941 190.880807 193.597430 199.118881
6.810000 192.165639 194.406845 196.784601 197.190250 200.141482 204.268644
6.910000 196.279440 199.132719 202.799620 202.669258 206.070076 208.674185
7.010000 200.333497 204.554331 208.308709 207.668983 210.478074 212.239439
7.110000 206.032994 210.321591 212.720669 212.290139 214.319479 215.756482
7.210000 213.173328 215.339734 216.830067 216.760120 218.330726 220.154699
7.310000 217.542364 219.226155 220.789095 220.802096 222.459602 224.309900
7.410000 220.759863 222.521758 224.356359 224.309197 226.129390 227.552392
7.510000 224.225939 226.257169 228.001815 227.963562 229.692733 231.242847
7.560000 226.462108 228.433928 230.117600 229.988202 231.559672 232.966094
7.610000 228.813571 230.762898 232.408039 232.239970 233.625543 234.790382
7.630000 229.953045 231.955054 233.479088 233.328090 234.718815 235.808024
7.660000 233.448233 234.639680 235.864048 236.032971 237.412914 239.636570
7.680000 234.746144 236.076779 237.431719 237.570689 239.160886 240.868998
7.710000 236.872410 238.407422 240.170496 240.040346 241.617940 242.808675
7.730000 238.386037 240.518649 242.181408 241.983901 243.414697 244.527766
7.750000 242.469726 243.410097 244.516378 244.585911 245.762049 247.060615
7.760000 243.175231 244.071526 245.130837 245.204746 246.326069 247.679593
7.780000 244.111071 245.006574 246.043395 246.140037 247.231407 248.476125
7.810000 245.269997 246.255553 247.367439 247.439230 248.607322 250.071481
7.830000 245.957820 247.006309 248.214518 248.262976 249.473707 250.959343
7.860000 247.019397 247.998109 249.368867 249.425640 250.842920 252.274130
7.880000 247.676619 248.750654 250.094365 250.216390 251.659622 253.083605
7.910000 248.562768 249.817157 251.161792 251.336260 252.883194 254.510094
8.010000 251.279305 252.781267 254.385208 254.477358 255.931416 258.602525
8.060000 252.878759 254.407383 255.933633 256.089240 257.610391 260.339685
8.110000 254.574534 255.994612 257.542993 257.724651 259.290879 262.225115
8.160000 256.100592 257.729401 259.109102 259.359231 260.818372 263.998754
8.210000 257.729611 259.362354 260.815102 261.052058 262.542783 265.642854
8.310000 260.727538 262.608433 264.353272 264.505225 266.044064 268.892971
8.410000 264.334241 266.270348 267.864989 268.070489 269.657157 272.800282
8.510000 267.860438 270.036618 271.613329 271.961232 273.803878 277.259978
8.610000 271.275910 273.407303 275.352429 276.381960 278.368737 290.986223
8.710000 275.020997 277.205618 279.376945 281.363648 288.585483 296.217333
