depth(m) lower_95(kyr) lower_68(kyr) median(kyr) mean(kyr) upper_68(kyr) upper_95(kyr)
0.045000 2.665256 3.472259 4.205415 4.185782 4.904432 5.568683
0.167500 3.103810 3.943781 4.660814 4.647300 5.375574 6.030499
0.290000 3.489396 4.397096 5.144915 5.116194 5.852010 6.642357
0.412500 3.946766 4.847306 5.596315 5.575460 6.350800 7.047217
0.535000 4.384858 5.291629 6.044695 6.052268 6.836914 7.609670
0.660000 4.787174 5.752572 6.542304 6.566276 7.426493 8.235102
0.785000 5.312016 6.213265 7.061235 7.076887 7.960543 8.871245
0.910000 5.782034 6.701239 7.614781 7.596836 8.448572 9.372218
1.035000 6.346964 7.256905 8.150367 8.125250 8.997539 9.864625
1.162500 6.943238 7.830829 8.779134 8.731465 9.606181 10.462547
1.290000 7.544270 8.442370 9.354589 9.331035 10.217605 10.947957
1.417500 8.006851 9.063676 10.001282 9.939442 10.808519 11.494616
1.545000 8.737774 9.768932 10.643453 10.569524 11.389662 11.957497
1.670000 9.443740 10.464048 11.280869 11.204568 11.978434 12.487377
1.755000 9.901174 10.904752 11.677856 11.617032 12.332238 12.914845
1.840000 10.260868 11.321053 12.096805 12.007567 12.663264 13.182835
1.942500 10.909477 11.832967 12.550538 12.471657 13.079699 13.657940
2.045000 11.534782 12.305126 12.979166 12.924366 13.503338 14.085390
2.120000 11.903273 12.651203 13.304766 13.251736 13.827288 14.403622
2.200000 12.206760 12.998193 13.633381 13.580401 14.153220 14.774045
2.280000 12.549365 13.319958 13.950910 13.917625 14.534359 15.168445
2.403333 13.003711 13.802865 14.464991 14.429253 15.067122 15.690794
2.526667 13.456469 14.261576 14.939842 14.926480 15.584346 16.292255
2.650000 13.882651 14.689025 15.429898 15.415648 16.130017 16.859490
2.777857 14.314081 15.168537 15.930208 15.919436 16.673426 17.524461
2.905714 14.774785 15.601739 16.431310 16.444637 17.281716 18.465429
3.033571 15.251754 15.987757 16.885217 16.945781 17.863100 19.185992
3.161429 15.649886 16.413017 17.341219 17.445445 18.443851 19.882023
3.289286 16.058814 16.857066 17.815177 17.938035 18.983059 20.557411
3.417143 16.488758 17.296617 18.244207 18.416571 19.504273 21.350526
3.545000 16.904990 17.707148 18.674410 18.890027 20.086868 21.854607
3.667500 17.270342 18.101771 19.130004 19.339267 20.549213 22.651218
3.790000 17.623222 18.516284 19.560331 19.791831 21.021553 23.224904
3.912500 18.026347 18.881343 19.993487 20.232106 21.604213 23.726413
4.035000 18.357010 19.264398 20.385537 20.671356 22.137100 24.210977
4.162500 18.738712 19.655000 20.868001 21.128183 22.721212 24.786201
4.290000 19.149748 20.045066 21.298159 21.566926 23.180465 25.413813
4.417500 19.533219 20.458048 21.700486 22.000726 23.672475 25.786902
4.545000 19.908375 20.900186 22.176317 22.461055 24.144906 26.326509
4.690385 20.309046 21.352807 22.681535 22.989331 24.776856 26.896571
4.835769 20.703777 21.814691 23.211359 23.494753 25.338984 27.433923
4.981154 21.091031 22.264575 23.717018 24.012552 25.920393 28.122309
5.126538 21.411500 22.747611 24.226940 24.538672 26.599555 28.774541
5.271923 21.779213 23.238441 24.768077 25.066425 27.128716 29.390512
5.417308 22.239626 23.667038 25.316814 25.577258 27.681753 29.892801
5.562692 22.732770 24.127762 25.804173 26.092929 28.228134 30.533844
5.708077 23.197750 24.628000 26.445266 26.625166 28.779990 31.084480
5.853462 23.522644 25.098432 26.960484 27.142032 29.299672 31.678216
5.998846 23.961509 25.612201 27.504583 27.693505 29.848604 32.249053
6.144231 24.380464 26.115973 28.107975 28.245963 30.397176 32.829365
6.289615 24.775436 26.601145 28.682303 28.784602 31.011037 33.396312
6.435000 25.273698 27.166198 29.247086 29.345047 31.539873 34.109978
6.562500 25.762597 27.678728 29.866952 29.883168 32.089966 34.856382
6.690000 26.079290 28.106483 30.339497 30.430737 32.664668 35.479182
6.817500 26.594741 28.593227 30.937128 31.004896 33.321640 36.046869
6.945000 26.955388 29.119262 31.533016 31.584710 33.848649 37.438314
7.085714 27.385501 29.707682 32.147458 32.208166 34.511811 38.425603
7.226429 27.988201 30.277751 32.753659 32.882076 35.306439 39.212129
7.367143 28.725146 30.903887 33.326866 33.513782 36.000165 39.923888
7.507857 29.053940 31.495313 33.908889 34.142379 36.781620 40.782046
7.648571 29.982755 32.198199 34.466188 34.822843 37.609620 41.496775
7.789286 30.528461 32.875698 34.999758 35.496520 38.317243 42.158236
7.930000 31.302417 33.449304 35.665714 36.161210 39.093145 42.849657
8.058750 31.839464 33.921229 36.168783 36.718691 39.772005 43.391984
8.187500 32.314096 34.455931 36.695861 37.297791 40.541336 44.154292
8.316250 32.806478 34.942240 37.238181 37.848124 41.153398 44.901979
8.445000 33.292785 35.439640 37.761129 38.418888 41.889697 45.552752
8.582500 33.762766 35.944375 38.315193 39.009162 42.637574 46.119932
8.720000 34.340946 36.486065 38.936043 39.605048 43.367237 46.637554
8.857500 34.778581 36.920798 39.587806 40.180242 43.901831 47.230154
8.995000 35.280077 37.388695 40.204789 40.759945 44.584793 48.002671
9.132500 35.859359 37.929538 40.778683 41.337220 45.221964 48.299381
9.270000 36.281556 38.439033 41.338320 41.905628 45.894399 48.765475
9.407500 36.634360 38.982368 42.039020 42.467534 46.531086 49.257190
9.545000 37.041989 39.427580 42.697301 43.020981 47.146426 49.744590
9.682500 37.489362 39.902616 43.255365 43.562600 47.761154 50.200551
9.820000 37.972977 40.391268 43.781794 44.113817 48.460359 50.690242
9.957500 38.312905 40.843530 44.396836 44.669388 49.044523 51.182034
10.095000 38.731631 41.293749 44.971791 45.218165 49.675394 51.801414
10.217500 39.113878 41.728377 45.413954 45.696660 50.140081 52.235594
10.340000 39.505189 42.178621 45.928264 46.178755 50.582651 52.971888
10.462500 40.141955 42.552841 46.487136 46.689989 51.014066 53.445149
10.585000 40.627659 42.939512 47.015889 47.202602 51.539974 53.882262
10.710000 41.089322 43.397618 47.653658 47.727728 51.998129 54.346235
10.835000 41.466523 43.773288 48.196013 48.228808 52.512735 54.781899
10.960000 41.921944 44.184374 48.687852 48.716828 52.978477 55.438885
11.085000 42.377466 44.630441 49.252859 49.221273 53.369456 55.836171
11.210000 42.874469 45.160666 49.760059 49.715860 53.808500 56.260885
11.335000 43.198034 45.664542 50.276327 50.194372 54.280167 56.905296
11.460000 43.603949 46.164246 50.837163 50.677534 54.703527 57.338307
11.585000 44.118879 46.590831 51.328743 51.156151 55.094828 57.725861
11.710000 44.742646 47.096162 51.896769 51.652642 55.547877 58.126872
11.835000 45.139224 47.646625 52.485809 52.146843 55.984201 58.545021
11.960000 45.761721 48.172734 53.083768 52.624271 56.367944 58.965049
12.085000 46.348615 48.670328 53.524038 53.104740 56.753117 59.373118
12.223889 47.152344 49.387979 54.131398 53.648506 57.164367 59.929694
12.362778 47.770536 50.033515 54.660186 54.175573 57.571882 60.235504
12.501667 48.318479 50.757300 55.280910 54.700473 58.017159 60.682972
12.640556 49.044468 51.371770 55.796340 55.220470 58.406216 61.080982
12.779444 49.682778 51.970323 56.289539 55.735784 58.817516 61.467523
12.918333 50.175024 52.696872 56.822947 56.265179 59.316494 61.836073
13.057222 50.587140 53.246662 57.264451 56.786017 59.778151 62.307720
13.196111 51.372428 53.901665 57.849755 57.321689 60.240394 62.670244
13.335000 51.933917 54.569750 58.331281 57.847224 60.696973 63.064020
13.473889 52.442115 55.177283 58.828747 58.357451 61.159212 63.427716
13.612778 53.010580 55.930984 59.281013 58.874289 61.558800 63.852432
13.751667 53.796770 56.556134 59.767948 59.414775 62.048132 64.226183
13.890556 54.345019 57.159459 60.267155 59.931135 62.479080 64.669322
14.029444 54.805672 57.771618 60.780494 60.451697 62.974847 65.173949
14.168333 55.318505 58.432982 61.261135 60.975058 63.466311 65.621133
14.307222 55.785306 59.019610 61.696159 61.494414 63.881382 66.035532
14.446111 56.232511 59.668605 62.208038 62.015090 64.342691 66.525411
14.585000 57.195476 60.330946 62.732150 62.564639 64.819418 66.885665
14.716250 57.937771 60.963179 63.148788 63.076698 65.246165 67.330345
14.847500 58.728403 61.504839 63.604036 63.593658 65.788332 67.789357
14.978750 59.381034 62.014659 64.089495 64.091869 66.265624 68.280292
15.110000 59.969561 62.608036 64.623911 64.604740 66.742426 68.703382
15.241250 60.554776 63.131241 65.084560 65.088939 67.183399 69.162320
15.372500 61.276535 63.706171 65.551975 65.592213 67.626852 69.575837
15.503750 61.951442 64.274584 66.064087 66.105533 68.098806 70.137368
15.635000 62.627411 64.850412 66.560795 66.646267 68.621582 70.694421
15.760000 63.169283 65.395482 67.111872 67.167845 69.076536 71.212958
15.885000 63.797099 65.993496 67.651736 67.707292 69.555952 71.728218
16.010000 64.289090 66.490031 68.210909 68.240082 70.071552 72.241192
16.135000 65.138441 67.056423 68.742268 68.802549 70.580107 72.745268
16.260000 65.824639 67.618992 69.328692 69.394709 71.127174 73.347199
16.385000 66.385620 68.167924 69.913959 69.969849 71.698779 73.910549
16.510000 67.135773 68.947371 70.527313 70.615938 72.340828 74.448057
16.635000 67.905915 69.703257 71.173672 71.288174 72.991262 75.237519
16.760000 68.698042 70.365307 71.885823 72.044212 73.819577 76.058273
16.885000 69.455909 70.990408 72.601498 72.754904 74.598753 76.856003
17.010000 70.207753 71.748929 73.378914 73.511170 75.304806 77.536241
17.135000 71.176215 72.539113 74.124954 74.256337 76.009260 78.321779
17.260000 71.868710 73.178994 74.868168 75.012808 76.869386 79.029367
17.385000 72.468004 73.904622 75.659658 75.784513 77.673016 79.717110
17.510000 73.087083 74.662524 76.443705 76.535078 78.430936 80.379929
17.635000 73.864279 75.451369 77.300086 77.327109 79.183941 80.960097
17.760000 74.579734 76.204035 78.013102 78.025882 79.850428 81.486534
17.885000 75.260067 76.919403 78.745054 78.738767 80.480955 81.969783
18.010000 75.877386 77.735523 79.494724 79.447051 81.124585 82.681536
18.135000 76.615538 78.441727 80.253284 80.177630 81.714985 83.313239
18.262500 77.451760 79.210966 81.010132 80.931024 82.495164 84.085316
18.390000 78.127611 80.125150 81.743061 81.694549 83.172340 84.865860
18.517500 79.058760 80.901816 82.459658 82.410989 83.893058 85.544702
18.645000 80.106330 81.686789 83.116516 83.179283 84.649954 86.362672
18.786429 80.784876 82.394511 83.858227 83.950031 85.408290 87.589031
18.927857 81.512962 83.086999 84.606698 84.713206 86.296706 88.657341
19.069286 82.142664 83.758019 85.302290 85.464750 87.235046 89.679999
19.210714 82.834922 84.447226 86.076058 86.244213 88.025705 90.509253
19.352143 83.439114 85.159978 86.745692 86.975732 88.801224 91.466094
19.493571 84.167663 85.880361 87.476206 87.743284 89.755110 92.295259
19.635000 85.228788 86.668764 88.236795 88.517294 90.443835 93.297600
19.762500 85.788454 87.278353 88.877999 89.197409 91.153373 94.035051
19.890000 86.669300 87.922691 89.658136 89.916998 91.787147 94.785164
20.017500 87.303431 88.586682 90.401667 90.623855 92.491734 95.773297
20.145000 87.955698 89.282843 91.112800 91.321780 93.245118 96.321544
20.270000 88.526273 89.951947 91.795257 92.045768 93.929728 97.013208
20.395000 89.179372 90.666765 92.652158 92.852079 94.865150 98.438028
20.520000 89.799850 91.412192 93.344271 93.611505 95.660085 99.285308
20.645000 90.399253 92.104836 94.104326 94.324389 96.294578 100.020691
20.786429 91.160012 92.850759 94.895166 95.116842 96.978544 101.310814
20.927857 91.918057 93.581789 95.621680 95.880154 97.882240 102.217664
21.069286 92.398910 94.272227 96.388539 96.682816 98.805320 103.383424
21.210714 93.218476 95.047594 97.120729 97.477371 99.655054 104.622693
21.352143 93.850809 95.787180 97.869330 98.237950 100.548162 105.333214
21.493571 94.432881 96.515242 98.633057 98.988410 101.285400 106.228517
21.635000 95.016674 97.253706 99.343985 99.738134 102.001088 106.903132
21.762500 95.524176 97.790262 100.024871 100.390381 102.665214 108.113460
21.890000 96.192798 98.388799 100.709548 101.060393 103.460381 108.840032
22.017500 96.835681 99.083389 101.388951 101.753739 104.046841 110.154928
22.145000 97.422140 99.677597 102.116495 102.408251 104.820915 110.850278
22.267500 97.904600 100.292292 102.792746 103.071575 105.553880 111.430362
22.390000 98.475928 100.788697 103.481311 103.703855 106.393762 112.063079
22.512500 99.016312 101.375416 104.096285 104.357446 107.152895 113.041398
22.635000 99.563847 101.983713 104.779454 105.011481 107.987172 113.518862
22.760000 100.090424 102.558277 105.462047 105.729306 108.810452 114.050273
22.885000 100.644625 103.270898 106.159240 106.460332 109.652595 114.468484
23.010000 101.425829 103.976507 106.912335 107.190999 110.463492 114.929749
23.135000 101.870402 104.714178 107.585758 107.898802 111.201297 115.335861
23.260000 102.435373 105.521682 108.449688 108.732121 112.077867 116.517312
23.385000 103.256917 106.289692 109.271220 109.535360 112.906408 117.116988
23.510000 103.840559 107.095976 110.120445 110.374120 113.836571 117.858440
23.635000 104.641335 107.961317 111.100847 111.215376 114.593519 118.093037
23.760000 105.413226 108.900146 112.136368 112.166627 115.645968 118.789991
23.885000 106.291289 109.703934 113.173085 113.115359 116.619740 119.533370
24.010000 107.176667 110.609093 114.264524 114.071558 117.340730 120.040449
24.135000 108.289302 111.785616 115.486666 115.175097 118.333943 120.799753
24.260000 109.453967 113.165155 116.716198 116.401394 119.562042 121.658449
24.385000 111.470317 114.940422 118.180349 117.839607 120.767657 122.596213
24.510000 112.958069 116.703145 119.430663 119.122821 121.652887 123.449048
24.635000 115.288343 118.196244 120.677248 120.413454 122.515147 124.199364
24.760000 115.998262 119.208408 121.536712 121.297458 123.427711 124.849377
24.885000 117.475029 120.259513 122.378072 122.188796 124.091794 125.517831
25.010000 118.987896 121.382595 123.182716 123.054694 124.779825 126.114477
25.135000 120.284063 122.460600 124.056515 123.922256 125.511243 126.732394
25.235000 121.157125 123.061428 124.652979 124.522559 126.048576 127.211298
25.335000 121.833465 123.693722 125.276216 125.120400 126.606382 127.654957
25.460000 122.593639 124.600423 126.103738 125.964981 127.363887 128.572459
25.585000 123.495633 125.402394 126.911120 126.783603 128.180477 129.469439
25.710000 124.350892 126.264784 127.682488 127.616108 128.961879 130.253613
25.835000 125.123970 127.119991 128.453600 128.391947 129.698213 130.923077
25.960000 126.038639 127.881024 129.179761 129.124860 130.445667 131.787308
26.085000 127.019484 128.597075 129.870859 129.839605 131.150002 132.516928
26.210000 127.877901 129.200933 130.544175 130.512830 131.791357 133.214008
26.335000 128.656431 129.836591 131.227790 131.192395 132.475080 133.887468
26.460000 129.364100 130.491404 131.845025 131.857459 133.201654 134.597479
26.585000 129.909736 131.176317 132.489482 132.534135 133.929400 135.251740
26.710000 130.557946 131.771887 133.147183 133.176705 134.571837 136.004280
26.835000 131.106018 132.419039 133.829843 133.838112 135.263200 136.768786
26.960000 131.648603 132.991190 134.445291 134.454638 135.910391 137.436480
27.085000 132.142880 133.531313 135.030525 135.050614 136.524660 138.118300
27.210000 132.722136 134.060376 135.629455 135.624456 137.185104 138.779166
27.335000 133.194085 134.612216 136.190411 136.189367 137.705279 139.370460
27.477857 133.720209 135.139543 136.842979 136.797489 138.313654 140.230126
27.620714 134.158825 135.665019 137.396553 137.362238 138.840868 140.920013
27.763571 134.678044 136.207359 137.977928 137.925814 139.467219 141.509055
27.906429 135.151542 136.782979 138.520342 138.480590 140.041520 142.073670
28.049286 135.662902 137.337820 139.046087 139.028021 140.615178 142.741460
28.192143 136.093769 137.898724 139.557509 139.577475 141.187272 143.524011
28.335000 136.636729 138.468982 140.116433 140.125913 141.701910 144.173483
28.460000 137.151981 138.948631 140.548766 140.594239 142.138884 144.599374
28.585000 137.604188 139.447970 140.998958 141.079055 142.640438 145.306622
28.710000 138.054142 139.915655 141.490335 141.560182 143.121367 145.679339
28.835000 138.484650 140.417978 141.979609 142.053214 143.676991 146.315594
28.960000 138.877773 140.887690 142.478715 142.545248 144.241133 146.885274
29.085000 139.347642 141.329250 142.970651 143.052929 144.864578 147.511607
29.210000 139.795362 141.803282 143.491031 143.582081 145.361793 148.107516
29.335000 140.250543 142.213372 144.069049 144.097949 145.943841 148.664613
29.460000 140.622419 142.652533 144.573545 144.618250 146.567356 149.256680
29.585000 141.153912 143.084138 145.105613 145.142756 147.169358 149.849225
29.710000 141.620266 143.470183 145.610767 145.642313 147.718413 150.353408
29.835000 142.013754 143.887788 146.089440 146.161290 148.309381 150.836467
29.960000 142.418104 144.305646 146.609634 146.671762 148.872308 151.607586
30.085000 142.992528 144.706055 147.099694 147.172677 149.466039 152.092760
30.210000 143.323282 145.157352 147.616676 147.664083 150.015170 152.678057
30.335000 143.748694 145.548609 148.117061 148.156703 150.548347 153.214755
30.477857 144.291043 146.073805 148.694881 148.726401 151.168095 153.959465
30.620714 144.838782 146.581973 149.308975 149.294010 151.791389 154.499806
30.763571 145.328004 147.111797 149.856964 149.846330 152.380874 154.893868
30.906429 145.784651 147.592088 150.431454 150.410140 152.992404 155.609034
31.049286 146.187639 148.103879 150.972702 150.959732 153.576457 156.221189
31.192143 146.546945 148.553235 151.650692 151.519979 154.225959 156.624337
31.335000 147.000806 149.010209 152.213572 152.061507 154.795246 157.230469
31.477857 147.447996 149.506034 152.732926 152.596908 155.430299 157.708062
31.620714 147.755866 150.019135 153.383648 153.141890 156.003819 158.299143
31.763571 148.219665 150.462841 153.900371 153.696863 156.610763 158.815063
31.906429 148.636684 150.929347 154.459381 154.251089 157.307882 159.499302
32.049286 148.977848 151.468010 155.031010 154.787072 157.905128 159.983265
32.192143 149.472482 151.989916 155.554180 155.332005 158.414359 160.488927
32.335000 149.838086 152.587380 156.137251 155.875814 158.979175 160.956749
32.477857 150.280397 153.184162 156.633572 156.419703 159.552640 161.581827
32.620714 150.690518 153.744282 157.153900 156.963288 160.146262 162.080132
32.763571 151.061110 154.347167 157.684659 157.501916 160.678259 162.490839
32.906429 151.513652 155.074314 158.282658 158.066820 161.199489 163.035483
33.049286 152.116431 155.626512 158.771002 158.606838 161.784483 163.509643
33.192143 152.554708 156.171511 159.321196 159.154022 162.321681 163.878228
33.335000 152.999631 156.683452 159.859332 159.697482 162.935544 164.452196
33.460000 153.484220 157.136358 160.316191 160.167434 163.412089 164.830341
33.585000 153.939926 157.580837 160.776626 160.657905 163.889796 165.408019
33.710000 154.261363 158.091045 161.316778 161.157940 164.386463 166.094632
33.835000 154.887388 158.660626 161.842101 161.658525 164.834130 166.621849
33.960000 155.300825 159.137910 162.279831 162.159471 165.270879 167.189709
34.085000 155.772506 159.626212 162.803162 162.669227 165.743413 167.673039
34.210000 156.532390 160.153578 163.250669 163.168231 166.168797 168.183312
34.335000 157.138509 160.691299 163.760125 163.681960 166.680624 168.875598
34.477857 157.928157 161.302112 164.359074 164.250194 167.197989 169.487266
34.620714 158.669680 161.885945 164.961521 164.829619 167.736900 170.107288
34.763571 159.378540 162.402646 165.504044 165.390354 168.278237 170.853036
34.906429 160.048785 162.964382 166.096667 165.977775 168.830828 171.545714
35.049286 160.781429 163.479035 166.647678 166.547546 169.411122 172.150913
35.192143 161.269523 164.043536 167.269705 167.113693 169.972421 172.778394
35.335000 161.832471 164.626584 167.821323 167.665938 170.482434 173.327384
35.465000 162.543712 165.094463 168.384853 168.206064 171.121921 173.964321
35.595000 163.113910 165.594152 168.928150 168.734743 171.639325 174.504948
35.725000 163.789479 166.103291 169.467674 169.298325 172.269948 175.229524
35.855000 164.474693 166.642939 170.048738 169.860909 172.789031 175.840816
35.985000 165.031244 167.180532 170.519959 170.415400 173.328116 176.390818
