depth(m) lower_95(kyr) lower_68(kyr) median(kyr) mean(kyr) upper_68(kyr) upper_95(kyr)
0.000000 0.017730 0.132312 0.435579 0.532712 0.931310 1.563922
0.050000 1.077160 1.649218 2.320524 2.338392 2.995162 3.812070
0.060000 1.428900 2.030602 2.690456 2.728154 3.440497 4.252147
0.100000 2.647024 3.382175 4.118238 4.169825 4.981463 5.962978
0.150000 4.140822 5.068200 5.960858 6.014644 6.929696 8.367136
0.200000 6.059517 7.024050 8.244658 8.310857 9.539946 10.891907
0.250000 8.757194 10.188648 11.815096 11.735359 13.140817 14.396610
0.300000 13.476343 15.281449 16.819302 17.140873 19.122915 22.307081
0.350000 16.222647 18.013206 20.089175 20.240853 22.552059 25.353830
0.400000 18.495612 20.545700 22.942406 22.941462 25.228059 27.557546
0.450000 20.739385 23.129343 25.476830 25.486646 27.850282 30.209590
0.500000 23.190787 25.574981 28.019878 28.058542 30.692020 32.960863
0.532000 24.988870 27.283833 29.883846 29.935121 32.552578 35.037239
0.550000 26.085724 28.148539 30.950701 30.949155 33.670474 36.002861
0.600000 28.752443 30.955955 33.779624 33.909805 36.663439 40.240732
0.650000 30.968170 33.428252 36.321086 36.456242 39.405387 42.798211
0.700000 33.072901 35.807979 38.995295 39.092467 42.214802 45.809186
0.750000 35.320948 38.315035 41.606895 41.852965 45.491977 49.269676
0.800000 37.234494 40.978616 44.830494 44.928703 48.883093 53.391342
0.850000 39.802094 43.769893 48.485600 48.501105 53.249905 57.994189
0.900000 42.575974 47.548990 52.663543 52.461775 57.650383 60.971538
0.950000 45.660034 51.621827 57.291578 56.543784 61.093286 63.527591
1.000000 49.318680 57.299081 61.318684 60.499659 63.746452 65.628877
1.050000 56.518611 61.414400 64.142921 63.687183 66.107108 67.681991
1.100000 61.410833 64.386022 66.586749 66.339895 68.325447 70.021938
1.150000 64.384003 67.088026 68.901768 68.756232 70.555221 72.100767
1.200000 67.790389 69.673314 71.389538 71.320849 73.124289 75.176897
1.250000 70.538100 72.268058 74.054602 74.234743 76.101100 78.562796
1.300000 72.887701 75.048970 77.076503 77.569931 79.553716 89.916133
1.400000 78.258574 81.304077 84.555323 86.928458 95.575511 105.850875
1.450000 80.523807 85.199174 87.906934 90.700951 100.208658 109.252696
1.460000 81.083875 86.042099 88.598831 91.381524 100.824014 109.701353
1.510000 84.115894 89.583951 92.432117 95.647342 107.334472 112.761841
1.560000 86.678171 93.398632 97.885287 100.419362 111.528007 115.981578
1.610000 91.177800 97.175403 103.108449 104.940926 115.341201 118.750573
1.700000 111.704004 118.721838 121.704890 120.882813 123.599219 125.018402
1.750000 114.415055 121.770810 124.108981 123.352838 125.624033 126.702589
1.800000 116.413174 124.239259 126.179951 125.442604 127.470964 128.438909
1.850000 118.645468 126.260652 127.857278 127.212914 128.993411 129.990010
1.900000 120.716083 127.640867 129.096112 128.627573 130.359188 131.290147
1.950000 124.465794 128.864208 130.344913 129.994902 131.510499 132.513003
2.000000 128.200849 130.356016 131.640882 131.502270 132.841147 133.904187
2.050000 130.462666 131.985165 133.144784 133.104909 134.356540 135.433359
2.100000 132.297526 133.547897 134.732178 134.697272 135.839163 137.103094
2.150000 134.229835 135.340414 136.549945 136.604674 137.845579 139.246134
2.200000 135.715277 137.010915 138.259506 138.308036 139.623674 141.037353
2.250000 137.284408 138.539993 139.864371 139.893755 141.320138 142.590315
2.300000 138.729746 139.998095 141.366590 141.422803 142.865967 144.298928
2.350000 140.218187 141.583096 142.880880 143.038041 144.606215 146.550500
2.400000 141.678103 143.141149 144.561934 144.734884 146.372226 148.771781
2.450000 143.195184 144.815179 146.437733 146.607548 148.423128 150.955803
2.500000 144.982013 146.566897 148.457800 148.610674 150.616787 153.237368
2.550000 146.526054 148.310324 150.460742 150.582516 152.867935 155.131175
2.600000 147.947583 150.043310 152.461042 152.450056 154.825490 157.030087
2.650000 149.254131 151.648510 154.267190 154.241287 156.701082 159.134421
2.700000 150.764748 153.241099 156.165067 155.978492 158.477033 160.808156
2.750000 152.616344 154.933247 157.781554 157.681242 160.251779 162.542044
2.800000 154.246932 156.571015 159.485773 159.405558 161.973301 164.954620
2.850000 155.823565 158.450762 161.080749 161.118619 163.601584 166.626698
2.950000 160.253195 162.389136 164.701839 164.930972 167.388533 171.584969
3.000000 161.945631 164.437024 166.778122 167.184587 170.016322 174.359952
3.050000 163.881690 166.166899 168.979141 169.306513 172.353105 177.019304
3.100000 165.491462 167.964688 171.143706 171.406233 175.084999 178.595836
3.200000 168.763046 171.147622 176.148098 175.720772 179.693277 182.156552
3.250000 170.639983 173.044981 178.599083 177.900782 181.700815 184.355117
3.300000 172.669941 174.934666 180.913715 180.007706 183.844569 185.987159
3.350000 174.641752 177.718343 182.972460 182.085324 185.447289 187.331165
3.450000 179.740281 184.238191 187.138943 186.592097 188.870246 190.371401
3.500000 183.963246 187.787767 189.575988 189.395967 191.161897 192.556925
3.550000 187.963036 189.962248 191.758311 191.717852 193.400714 195.601731
3.650000 191.040700 192.851987 195.043049 195.228239 197.459008 200.664667
3.700000 192.377403 194.092994 196.639393 196.966241 199.805009 202.908818
3.750000 193.864311 195.590065 198.416267 198.660996 201.616763 204.799229
3.800000 195.215635 197.119589 200.304552 200.402036 203.467232 206.193127
3.900000 197.644888 200.382088 204.433006 203.983008 207.248245 208.915161
3.950000 198.840859 202.274967 206.459396 205.770538 208.815911 210.125418
4.000000 200.025831 204.135976 208.283304 207.449449 210.153592 211.371030
4.050000 201.573589 206.141278 209.696790 208.954410 211.382840 212.487084
4.150000 207.169581 209.902386 212.076333 211.709638 213.447380 214.325759
4.200000 209.322589 211.684501 213.345664 213.092050 214.509063 215.313096
4.250000 211.528244 213.494019 214.670141 214.530231 215.652464 216.635946
4.300000 214.421274 215.265940 216.120624 216.129932 217.024896 217.985581
4.350000 215.911449 216.755406 217.535974 217.668489 218.599470 219.961286
4.400000 217.026833 217.892016 218.855299 218.971999 220.060922 221.589586
4.450000 218.067794 219.055177 220.147959 220.267245 221.437990 223.099502
4.500000 219.313877 220.265964 221.445909 221.554963 222.808238 224.545582
4.600000 221.324076 222.463452 223.926102 223.986516 225.467714 227.058227
4.650000 222.525573 223.713348 225.251462 225.295060 226.789510 228.452734
4.700000 224.042795 225.119540 226.596231 226.714506 228.430823 229.992755
4.750000 225.308623 226.651761 228.153570 228.238683 229.914147 231.255329
4.800000 226.845629 228.306231 229.862532 229.855468 231.473067 232.692337
4.850000 228.621545 230.070851 231.623035 231.515101 232.891595 233.877204
4.900000 230.753217 232.022202 233.408840 233.297542 234.470570 235.286651
4.950000 232.998475 234.194095 235.138253 235.089371 236.048964 236.810775
5.000000 234.809500 235.828040 236.656027 236.657431 237.522878 238.278946
5.050000 236.281341 237.069463 237.976262 237.942203 238.777873 239.494436
5.100000 237.415939 238.194157 239.125586 239.070102 239.896528 240.523376
5.150000 238.433535 239.335935 240.213109 240.172918 240.983787 241.620630
5.200000 239.696543 240.546906 241.343302 241.302085 242.041848 242.715442
5.250000 240.982107 241.738546 242.470573 242.474800 243.222333 243.957424
5.300000 242.140990 242.869580 243.712787 243.723693 244.556111 245.518934
5.400000 244.102623 244.907689 245.879877 246.130931 247.349308 249.471431
5.500000 246.108688 247.101909 248.588413 249.059005 251.402851 253.778079
5.550000 247.215974 248.245450 250.169134 250.585430 253.255670 255.260635
5.600000 248.237413 249.502033 251.770682 252.046170 254.696584 256.405241
5.650000 249.516740 251.042756 253.386743 253.526504 256.008135 257.721686
5.700000 251.072620 252.672847 254.975768 254.990928 257.288778 259.361292
5.750000 252.569314 254.218693 256.623120 256.521142 258.594975 260.610550
5.800000 253.859447 255.691774 258.092333 257.941669 259.949664 261.710471
5.850000 255.154731 257.157892 259.512921 259.345006 261.343544 263.065602
5.900000 256.540009 258.591759 260.953439 260.797212 262.901162 264.337133
5.950000 257.969807 259.990053 262.489973 262.270083 264.258043 265.882870
6.000000 259.206161 261.692055 264.007195 263.771262 265.589388 267.601270
6.050000 260.624416 263.662702 265.573415 265.363278 267.019480 269.140868
6.100000 262.123777 265.646359 267.286442 267.112217 268.737828 270.717142
6.200000 265.277867 268.850457 270.452716 270.301055 271.957408 273.809625
6.250000 266.433369 270.446872 272.091564 271.913075 273.535977 275.128417
6.300000 268.748167 271.895939 273.550080 273.388171 274.976617 276.481620
6.400000 272.729137 274.570172 276.301562 276.113189 277.643453 278.915664
6.450000 274.410727 276.111706 277.754840 277.664691 279.095525 280.611867
6.500000 276.090941 278.126743 279.556082 279.700328 281.166799 283.831466
6.550000 278.424207 280.489345 282.537184 282.791469 285.386983 287.570351
6.600000 279.998370 282.908940 286.237480 285.779845 288.164841 290.310015
6.650000 281.717630 286.688799 288.722132 288.511541 290.566574 293.180254
6.700000 284.900172 288.714567 290.498273 290.536440 292.692632 295.099584
6.750000 287.135748 290.214787 292.213406 292.264120 294.647039 296.856795
6.800000 288.667510 291.638169 293.859424 293.937641 296.577824 298.837940
6.850000 289.417044 292.995599 295.539715 295.496377 298.219996 300.421149
6.900000 291.255730 294.408163 297.018659 296.996848 299.737725 301.985203
6.950000 292.495299 295.853308 298.648819 298.516909 301.268359 303.649939
7.000000 294.166698 297.347453 300.018796 300.045727 302.982912 305.124085
7.050000 295.577388 298.847849 301.690308 301.629726 304.549421 306.888630
