depth(m) lower_95(kyr) lower_68(kyr) median(kyr) mean(kyr) upper_68(kyr) upper_95(kyr)
0.010000 5.201362 5.856542 6.606308 6.611309 7.335389 8.101459
0.123333 5.512888 6.165441 6.887398 6.908662 7.626467 8.403425
0.236667 5.744763 6.496105 7.179603 7.202343 7.924187 8.676462
0.350000 6.057324 6.773782 7.458103 7.491590 8.234414 9.018035
0.470000 6.368179 7.079126 7.784274 7.810170 8.564081 9.383474
0.590000 6.684294 7.394399 8.110801 8.144194 8.899710 9.739559
0.710000 6.975540 7.713050 8.416209 8.480548 9.245095 10.066591
0.830000 7.325387 8.050442 8.748640 8.833131 9.583422 10.437490
0.940000 7.624232 8.375164 9.073362 9.136722 9.901306 10.746678
1.050000 7.949461 8.678759 9.425255 9.452911 10.210621 11.085789
1.160000 8.231546 8.988622 9.780736 9.789164 10.589351 11.440454
1.230000 8.477260 9.199885 10.000397 10.022736 10.823465 11.712134
1.371333 8.855078 9.652461 10.476968 10.501684 11.317551 12.206818
1.512667 9.257130 10.071950 10.946955 10.988824 11.870687 12.915132
1.654000 9.622183 10.525880 11.441487 11.487040 12.387949 13.534238
1.795333 10.038706 11.033797 11.962199 12.012166 12.998190 14.305353
1.936667 10.458750 11.490332 12.491708 12.537425 13.555713 14.996247
2.078000 10.947299 11.949801 13.011626 13.059491 14.157817 15.589467
2.219333 11.339733 12.404238 13.502000 13.576421 14.729647 16.221076
2.360667 11.864834 12.852619 14.010402 14.083887 15.284815 16.796494
2.502000 12.271942 13.349152 14.502219 14.602776 15.914351 17.496230
2.643333 12.774190 13.843157 15.000377 15.138021 16.480479 18.172671
2.784667 13.195255 14.262609 15.514674 15.646403 17.066821 18.807594
2.926000 13.656797 14.665968 15.993972 16.145742 17.577122 19.306116
3.067333 14.198701 15.106243 16.493219 16.649377 18.104549 19.998880
3.208667 14.671330 15.551400 16.947747 17.137261 18.773876 20.519127
3.350000 15.070338 16.016627 17.451529 17.614324 19.263338 21.036780
3.470000 15.452115 16.380598 17.885385 18.006134 19.661018 21.389155
3.590000 15.788493 16.744467 18.319744 18.396269 20.066837 21.836566
3.710000 16.102284 17.056037 18.684042 18.773377 20.435947 22.244296
3.830000 16.405122 17.358011 19.058602 19.144132 20.845618 22.688517
3.963333 16.743305 17.773070 19.422636 19.550571 21.240362 23.133830
4.096667 17.090800 18.086195 19.869368 19.941027 21.581642 23.495515
4.230000 17.424092 18.469161 20.322384 20.316359 21.950320 23.936078
4.367500 17.725060 18.804006 20.834187 20.719670 22.335800 24.285267
4.505000 18.050519 19.158920 21.317583 21.107765 22.743267 24.664088
4.642500 18.375235 19.443017 21.754418 21.505958 23.219253 25.106999
4.780000 18.776042 19.719928 22.124949 21.893663 23.670268 25.538114
4.917500 19.147412 20.012300 22.493905 22.254127 23.997090 25.966435
5.055000 19.438738 20.294661 22.864620 22.624287 24.346976 26.375717
5.192500 19.789567 20.594017 23.189285 22.986790 24.655235 26.688056
5.330000 20.144373 20.921983 23.488243 23.336262 24.935881 27.026154
5.338000 20.167584 20.939760 23.523617 23.358575 24.963586 27.049734
5.468667 20.463511 21.388246 23.848363 23.704245 25.329787 27.369264
5.599333 20.711960 21.975363 24.160501 24.066973 25.740094 27.743405
5.730000 20.971511 22.371535 24.464977 24.415159 26.042792 28.066560
5.850000 21.268896 22.704805 24.744435 24.721139 26.340789 28.367850
5.970000 21.537625 23.131584 25.040348 25.032336 26.588787 28.604093
6.090000 21.803258 23.502750 25.339879 25.354925 26.915090 28.915783
6.210000 22.080815 23.909788 25.659845 25.672442 27.222229 29.368651
6.330000 22.328126 24.296032 25.978702 25.997481 27.593490 29.654920
6.450000 22.736536 24.622413 26.269223 26.319237 27.922909 30.142663
6.565000 22.943636 24.962898 26.561771 26.632515 28.320690 30.453870
6.680000 23.227084 25.292310 26.875028 26.949050 28.677700 30.939201
6.795000 23.507141 25.640895 27.186349 27.267785 29.029870 31.357158
6.830000 23.599107 25.786272 27.297180 27.365165 29.136163 31.449279
6.941667 23.961691 26.181967 27.632338 27.736059 29.527961 31.790054
7.053333 24.359630 26.558289 28.002941 28.102504 29.890558 31.997520
7.165000 24.720300 26.918530 28.378638 28.485970 30.265918 32.325732
7.310000 25.236484 27.573077 28.979777 29.072493 30.916083 32.888823
7.443333 25.743548 27.983082 29.528441 29.637669 31.516606 33.518949
7.576667 26.212562 28.447568 30.110732 30.229200 32.129317 34.187665
7.710000 26.552173 28.994892 30.707199 30.816797 32.744179 35.059356
7.830000 27.074766 29.537702 31.279942 31.409236 33.441886 35.720317
7.950000 27.533947 30.042260 31.810348 31.978507 34.061134 36.645533
8.010000 27.720929 30.286736 32.071943 32.221542 34.352245 36.948932
8.140000 28.479116 30.968640 32.945439 33.157725 35.191424 40.377576
8.270000 29.301106 31.748550 33.804533 34.219352 36.146137 43.322805
8.400000 29.915096 32.505289 34.822002 35.436003 37.704281 45.598822
8.530000 30.668646 33.346813 35.646973 36.359087 39.207429 46.214386
8.666000 31.483328 34.037237 36.387660 37.222595 41.000974 46.753290
8.802000 32.336404 34.830344 37.102866 38.168169 42.711560 47.416014
8.938000 32.984646 35.667690 37.936444 39.218683 44.667553 48.511927
9.074000 33.950972 36.634909 38.666513 40.190644 45.878421 49.199783
9.210000 34.586467 37.254485 39.515299 41.015102 46.696799 49.690946
9.330000 35.297279 37.800025 39.969993 41.545332 47.166083 49.944499
9.450000 35.737208 38.287621 40.511013 42.036968 47.629635 50.305211
9.545000 36.136962 38.657192 40.808342 42.377672 47.919192 50.701050
9.640000 36.415159 38.982669 41.152053 42.721453 48.256220 50.966693
9.770000 36.994996 39.576445 41.871584 43.457727 48.898122 51.499464
9.900000 37.704645 40.189751 42.551532 44.206243 49.640850 52.223097
10.030000 38.220975 40.692754 43.183450 44.838396 50.303199 52.804110
10.170000 38.811966 41.216537 43.797933 45.474528 50.803260 53.463297
10.310000 39.461752 41.796777 44.483914 46.064270 51.286169 53.940406
10.407500 39.864519 42.126616 44.858009 46.411109 51.658623 54.546402
10.505000 40.191006 42.465378 45.175506 46.770246 52.004182 54.815762
10.607500 40.419261 42.786705 45.599500 47.129177 52.352676 55.247391
10.710000 41.100498 43.110865 46.174210 47.483678 52.611095 55.509262
10.830000 41.564309 43.591460 46.755335 47.945570 53.018387 55.971665
10.950000 41.961464 44.086737 47.382354 48.398816 53.370334 56.211350
11.087000 42.519460 44.541035 48.526719 48.966752 53.804750 56.610895
11.224000 43.014105 45.107465 49.595408 49.614454 54.275386 56.927889
11.361000 43.583068 45.646234 50.449404 50.245342 54.733585 57.279689
11.498000 44.035074 46.214514 51.129123 50.793321 55.117554 57.647484
11.635000 44.577038 46.834489 51.854143 51.375680 55.456686 57.915504
11.776217 45.260568 47.503835 52.551028 51.952324 55.878143 58.230917
11.917435 45.788418 48.081317 53.088098 52.477129 56.345502 58.489437
12.058652 46.593604 48.874502 53.571898 52.999320 56.714282 58.751903
12.199870 47.341236 49.641492 54.043399 53.528478 57.043180 59.128759
12.341087 48.019724 50.438894 54.469519 54.046822 57.409704 59.511742
12.482304 48.594278 51.122721 54.941170 54.565243 57.708118 59.836379
12.623522 49.254205 51.711746 55.462111 55.078825 58.024014 60.083060
12.764739 49.812281 52.479326 55.934263 55.568119 58.418712 60.346263
12.905957 50.397250 53.185903 56.408158 56.054796 58.757573 60.632211
13.047174 51.001473 53.818432 56.866829 56.567331 59.162173 60.971528
13.188391 51.762690 54.393398 57.353290 57.058259 59.464047 61.255835
13.329609 52.662786 55.146220 57.801702 57.558097 59.823392 61.568130
13.470826 53.595609 55.776537 58.269121 58.060403 60.229064 61.803228
13.612043 54.308502 56.460425 58.743063 58.560547 60.645302 62.172036
13.753261 55.005347 57.071527 59.219199 59.093369 61.103035 62.476066
13.894478 55.778475 57.739194 59.715373 59.619999 61.562647 62.775474
14.035696 56.380756 58.398723 60.227673 60.135259 61.991619 63.094450
14.176913 57.154331 59.018352 60.730822 60.670735 62.356334 63.387230
14.318130 57.959978 59.670865 61.220791 61.185910 62.805080 63.668552
14.459348 58.725640 60.153889 61.698348 61.678075 63.201892 64.008659
14.600565 59.298008 60.704898 62.300174 62.164708 63.595874 64.385053
14.741783 60.078018 61.309876 62.818893 62.665611 64.002944 64.797029
14.883000 60.662196 61.842881 63.481028 63.159641 64.388824 65.227677
14.893000 60.683335 61.880893 63.505968 63.188830 64.420437 65.273631
15.033000 61.101486 62.225510 63.852284 63.567450 64.755906 65.581342
15.173000 61.587129 62.602723 64.224853 63.959673 65.054003 65.877268
15.258000 61.910078 62.852813 64.438947 64.197744 65.291187 66.124095
15.343000 62.130350 63.107283 64.684174 64.431567 65.528644 66.302192
15.453000 62.433560 63.424735 64.966240 64.725688 65.793044 66.618322
15.583000 62.738826 63.778926 65.284891 65.081503 66.123703 66.998468
15.713000 63.221378 64.196626 65.615929 65.424020 66.426037 67.364716
15.843000 63.567984 64.568781 65.934115 65.760428 66.761166 67.724849
15.973000 63.961986 65.004695 66.247742 66.115578 67.082769 67.981080
16.073000 64.158054 65.277478 66.480495 66.380340 67.343292 68.306333
16.173000 64.419152 65.576829 66.738860 66.651180 67.589749 68.548146
16.273000 64.721178 65.902227 66.989432 66.921074 67.863561 68.860768
16.410000 65.203592 66.311287 67.361428 67.303707 68.198335 69.134250
16.550000 65.713270 66.780012 67.745974 67.701419 68.591139 69.520364
16.630000 65.907702 67.023694 67.963493 67.934957 68.823082 69.782146
16.770333 66.442286 67.444276 68.433843 68.370056 69.228612 70.160244
16.910667 66.824751 67.919551 68.858049 68.801159 69.684051 70.547483
17.051000 67.365243 68.340297 69.265202 69.236182 70.067194 71.004271
17.191333 67.824521 68.791292 69.735270 69.676571 70.523023 71.425835
17.331667 68.253779 69.269627 70.129993 70.112469 71.002565 71.925138
17.472000 68.670308 69.739074 70.568141 70.557610 71.392519 72.292895
17.612333 69.098951 70.228866 70.999554 71.002415 71.829188 72.659789
17.752667 69.665966 70.653675 71.398079 71.419115 72.280851 73.042122
17.893000 70.038986 71.048962 71.786378 71.838483 72.701334 73.495057
17.953000 70.216375 71.227854 71.985403 72.018559 72.874549 73.636490
18.073000 70.754538 71.599148 72.436802 72.425702 73.286760 73.969322
18.173000 70.973382 71.913889 72.758955 72.751879 73.637672 74.299796
18.273000 71.454295 72.193149 73.121388 73.085972 73.948733 74.706594
18.353000 71.711754 72.435929 73.370247 73.322502 74.179287 74.906930
18.473000 71.999467 72.758448 73.774095 73.658164 74.482307 75.240091
18.573000 72.306122 73.002741 74.082154 73.932063 74.767377 75.468511
18.673000 72.593363 73.258344 74.348432 74.201189 75.005548 75.696814
18.773000 72.866370 73.477146 74.593246 74.453098 75.286082 76.013409
18.873000 73.083752 73.719666 74.837201 74.698952 75.521488 76.226821
18.973000 73.329345 73.946722 75.080638 74.934143 75.764126 76.520832
19.115333 73.641844 74.245970 75.368812 75.242944 76.070754 76.870324
19.257667 73.897644 74.559164 75.657672 75.554187 76.394104 77.153600
19.400000 74.144201 74.888216 75.964055 75.857852 76.696887 77.482237
19.544000 74.497103 75.183824 76.247631 76.174193 77.007774 77.773970
19.688000 74.781462 75.511923 76.561910 76.487105 77.323743 78.108109
19.824364 75.066806 75.865063 76.847548 76.788768 77.618617 78.392690
19.960727 75.324144 76.152488 77.140316 77.096151 77.942454 78.689250
20.097091 75.633956 76.458299 77.455483 77.398694 78.229979 79.012095
20.233455 75.968854 76.753582 77.734848 77.700681 78.533610 79.389220
20.369818 76.244612 77.110265 78.029704 78.004283 78.853900 79.819215
20.506182 76.521771 77.397210 78.329408 78.301170 79.157679 80.194437
20.642545 76.781880 77.702087 78.614026 78.603046 79.465395 80.438862
20.778909 77.157549 78.048238 78.909085 78.914751 79.774322 80.776004
20.915273 77.488044 78.359526 79.226189 79.224562 80.068239 81.090719
21.051636 77.772834 78.698362 79.525923 79.535205 80.352265 81.307596
21.188000 78.123079 79.049454 79.837408 79.863382 80.708122 81.627560
21.330500 78.448750 79.386388 80.189528 80.223678 81.078873 81.986142
21.473000 78.863820 79.733993 80.558429 80.598999 81.493201 82.334566
21.608000 79.169074 80.100994 80.958899 80.997017 81.935059 82.857767
21.743000 79.585133 80.508105 81.364400 81.416844 82.366666 83.308234
21.878000 79.896407 80.916648 81.764563 81.835621 82.779520 83.785444
22.013000 80.381288 81.319678 82.238920 82.258566 83.169984 84.187787
22.148000 80.870127 81.772528 82.717319 82.710877 83.640840 84.661409
22.283000 81.181995 82.231369 83.183184 83.175656 84.119547 85.172875
22.418000 81.630876 82.693440 83.654727 83.652309 84.614036 85.669008
22.553000 82.141792 83.152724 84.141424 84.132222 85.094275 86.026808
22.688000 82.541327 83.649972 84.606740 84.608510 85.564273 86.583736
22.808000 82.860130 84.061263 85.060353 85.022766 85.997462 87.003932
22.928000 83.154013 84.456055 85.466939 85.436740 86.426732 87.402351
23.048000 83.493487 84.931139 85.926337 85.882602 86.888428 87.810164
23.168000 83.902200 85.356883 86.350020 86.311869 87.300491 88.284883
23.266000 84.276951 85.663754 86.714314 86.654437 87.627911 88.759610
23.391000 84.809575 86.101350 87.153234 87.125022 88.033854 89.589498
23.516000 85.353888 86.579588 87.603499 87.591804 88.501195 90.168754
23.641000 86.097084 87.081511 88.043479 88.103694 88.986057 90.764111
23.766000 86.682729 87.572264 88.515036 88.573985 89.492363 91.336416
23.796000 86.807916 87.671456 88.598417 88.666794 89.558582 91.451474
23.908500 87.222876 87.984952 88.942039 89.033759 90.036768 91.914000
24.021000 87.629969 88.298974 89.285577 89.377260 90.414832 92.238040
24.133500 87.987152 88.667437 89.556102 89.720297 90.850009 92.612457
24.246000 88.326987 88.992113 89.861281 90.069308 91.305543 92.930695
24.366000 88.663375 89.389293 90.146402 90.416355 91.666893 93.355231
24.486000 89.026107 89.737748 90.438754 90.769902 92.087716 93.751427
24.503000 89.065402 89.783484 90.477624 90.816202 92.151653 93.811868
24.629750 89.438222 90.132067 90.839001 91.163965 92.524377 94.032954
24.756500 89.749136 90.466972 91.191672 91.508147 92.891719 94.288301
24.883250 90.079926 90.778423 91.542560 91.857093 93.245867 94.544681
25.010000 90.308071 91.107786 91.934205 92.187802 93.532049 94.810591
25.150000 90.658828 91.425367 92.331238 92.555063 93.864843 95.052605
25.290000 90.948362 91.737530 92.764810 92.930022 94.287373 95.356014
25.430000 91.244009 92.070823 93.177212 93.296355 94.606313 95.670650
25.570000 91.519220 92.462403 93.594360 93.664912 94.959661 96.024293
25.710000 91.856545 92.799372 93.979924 94.029052 95.317925 96.383827
25.850000 92.140784 93.162498 94.373106 94.384783 95.667082 96.732587
25.990000 92.400150 93.502643 94.719871 94.743376 96.010713 97.014500
26.115667 92.728803 93.783998 95.040920 95.042731 96.310969 97.350536
26.241333 92.967436 94.068582 95.344098 95.335913 96.587270 97.678585
26.367000 93.231667 94.339576 95.661417 95.618938 96.855522 98.037998
26.477000 93.438054 94.602039 95.909574 95.877319 97.090409 98.417193
26.587000 93.630173 94.845941 96.172444 96.127195 97.302393 98.675296
26.697000 93.848595 95.131028 96.458265 96.377096 97.530563 98.926580
26.807000 94.111368 95.404452 96.695332 96.621508 97.787954 99.227899
26.943364 94.315506 95.696299 96.971086 96.913007 98.065743 99.445789
27.079727 94.553448 95.953512 97.276831 97.197573 98.319548 99.895587
27.216091 94.804623 96.254490 97.514100 97.480045 98.608306 100.310065
27.352455 95.079673 96.516186 97.800431 97.766330 98.884123 100.546683
27.488818 95.329752 96.806613 98.061603 98.051359 99.137160 100.858510
27.625182 95.600649 97.095045 98.325567 98.336834 99.471485 101.223955
27.761545 95.805194 97.393455 98.604907 98.624170 99.754953 101.670648
27.897909 96.083152 97.663985 98.884238 98.910632 100.043536 102.097677
28.034273 96.309948 97.934509 99.155828 99.194209 100.340612 102.617831
28.170636 96.540277 98.210368 99.423862 99.468389 100.590532 102.896738
28.307000 96.827528 98.490795 99.684565 99.746407 100.883513 103.241760
28.443600 97.092134 98.743226 99.945953 100.023518 101.167646 103.545572
28.580200 97.339157 99.024644 100.206043 100.315971 101.456053 103.963580
28.716800 97.695103 99.293825 100.467960 100.600691 101.816862 104.306954
28.853400 97.928317 99.551283 100.728381 100.886448 102.120243 104.638195
28.990000 98.209853 99.855530 100.997260 101.180567 102.453038 104.949063
29.095667 98.433749 100.084333 101.211276 101.413679 102.715227 105.233680
29.201333 98.712455 100.329971 101.422592 101.649108 102.964446 105.615745
29.307000 98.977287 100.554463 101.664628 101.892298 103.217870 105.862169
29.432000 99.194792 100.802823 101.922283 102.179045 103.536525 106.244821
29.557000 99.486149 101.067094 102.183429 102.450308 103.858981 106.506997
29.682000 99.784779 101.353805 102.448228 102.728059 104.120474 106.817466
29.807000 99.998505 101.598754 102.701804 103.006113 104.444149 107.173097
29.910000 100.225392 101.807204 102.933761 103.239350 104.749334 107.398586
30.013000 100.419817 102.045818 103.152397 103.479441 105.018785 107.703867
30.116000 100.685259 102.258317 103.373540 103.714462 105.318217 107.977009
30.249444 101.079576 102.533528 103.654271 104.006239 105.652982 108.270786
30.382889 101.413460 102.812958 103.961875 104.296412 106.005909 108.568002
30.516333 101.756017 103.048440 104.277053 104.583147 106.357347 108.790931
30.649778 102.128809 103.334311 104.564633 104.875924 106.635605 109.036160
30.783222 102.430629 103.608119 104.843422 105.162522 106.936621 109.408830
30.916667 102.780021 103.921713 105.150952 105.459331 107.308240 109.714339
31.050111 102.977753 104.181068 105.438111 105.751094 107.605610 109.885717
31.183556 103.331919 104.461674 105.693683 106.044150 107.850512 110.246116
31.317000 103.586543 104.756610 105.975145 106.334596 108.147657 110.517704
31.460625 103.914420 105.086025 106.295666 106.655811 108.457813 110.879543
31.604250 104.267977 105.440805 106.640739 106.985256 108.801594 111.235453
31.747875 104.524381 105.734028 106.947888 107.309807 109.104754 111.551355
31.891500 104.754079 106.057300 107.302824 107.636970 109.376837 111.825603
32.035125 105.119063 106.357139 107.639256 107.979712 109.723780 112.159868
32.178750 105.543432 106.734700 107.977431 108.328711 110.072059 112.516492
32.322375 105.856913 107.069464 108.292824 108.670939 110.424821 112.894015
32.466000 106.166910 107.445991 108.712720 109.030616 110.759048 113.214947
32.579667 106.441581 107.749324 109.000891 109.320428 111.044415 113.502538
32.693333 106.722256 108.041176 109.326805 109.618549 111.327601 113.761853
32.807000 107.006528 108.326773 109.652109 109.913265 111.599564 113.993510
32.946500 107.350534 108.711689 110.058174 110.287586 111.986841 114.283513
33.086000 107.679858 109.040460 110.433698 110.676109 112.387908 114.600480
33.226000 108.058010 109.489379 110.943508 111.081509 112.767245 114.903092
33.366000 108.518703 109.870499 111.334821 111.489938 113.178114 115.304610
33.506000 108.901228 110.282615 111.775798 111.918332 113.613229 115.952963
33.646000 109.205687 110.656450 112.189267 112.328628 114.019601 116.315002
33.786000 109.577249 111.026625 112.646579 112.768307 114.391821 116.723155
33.906000 110.015024 111.405290 113.029357 113.166796 114.824886 117.127821
34.026000 110.386142 111.770307 113.476155 113.563127 115.248657 117.402147
34.146000 110.642097 112.160222 113.875965 113.976880 115.728454 117.800042
34.266000 111.163006 112.569435 114.343084 114.384230 116.126626 118.125641
34.391000 111.712829 113.023730 114.773029 114.839764 116.590253 118.694452
34.516000 112.069991 113.492650 115.217918 115.320638 117.157708 119.266203
34.641000 112.491227 113.943876 115.722123 115.795338 117.665647 119.782146
34.766000 112.886870 114.352435 116.216650 116.270197 118.150317 120.152929
34.891500 113.237656 114.762293 116.718381 116.779692 118.752523 120.856376
35.017000 113.669399 115.242643 117.254445 117.294433 119.272572 121.345379
35.143333 114.005763 115.795435 117.919423 117.949831 120.024769 122.269654
35.269667 114.766816 116.399896 118.648892 118.655233 120.850370 123.101981
