depth(m) lower_95(kyr) lower_68(kyr) median(kyr) mean(kyr) upper_68(kyr) upper_95(kyr)
0.000000 0.004602 0.033601 0.123506 0.198245 0.292188 1.078601
0.050000 0.053043 0.093159 0.184786 0.261440 0.361180 1.188124
0.100000 0.096156 0.151468 0.246891 0.320102 0.419258 1.266766
0.150000 0.135614 0.208939 0.310400 0.379244 0.472989 1.321090
0.200000 0.184974 0.261766 0.369967 0.437285 0.543073 1.375725
0.250000 0.231337 0.309605 0.426939 0.495175 0.604906 1.426734
0.300000 0.277702 0.362579 0.487330 0.552547 0.663781 1.465270
0.350000 0.327594 0.416622 0.543022 0.608895 0.724977 1.505717
0.400000 0.372875 0.470795 0.594489 0.664050 0.784290 1.573151
0.450000 0.423394 0.527243 0.652470 0.719488 0.843943 1.625295
0.550000 0.501339 0.625454 0.748965 0.817952 0.946320 1.747142
0.600000 0.539628 0.677734 0.797318 0.871430 0.998814 1.787268
0.650000 0.599426 0.730842 0.849276 0.925894 1.067665 1.830239
0.700000 0.646911 0.783503 0.905248 0.980376 1.120410 1.893383
0.750000 0.703163 0.838706 0.957478 1.035569 1.183478 1.942407
0.800000 0.749936 0.896678 1.013392 1.090739 1.239452 1.999358
0.850000 0.791469 0.949359 1.071390 1.147118 1.296800 2.054577
0.900000 0.846741 1.001248 1.126046 1.203048 1.354637 2.101267
0.950000 0.888884 1.054480 1.181946 1.258293 1.420715 2.158136
1.050000 0.993975 1.148059 1.284796 1.359468 1.541382 2.262212
1.150000 1.097364 1.244641 1.382351 1.461599 1.650539 2.338353
1.200000 1.145341 1.296734 1.438255 1.517354 1.704795 2.419462
1.250000 1.193149 1.346054 1.495560 1.573898 1.767703 2.493715
1.300000 1.245002 1.398492 1.552339 1.630986 1.832363 2.548069
1.350000 1.289449 1.442796 1.610848 1.688132 1.899324 2.615568
1.400000 1.346802 1.501078 1.656897 1.744312 1.962653 2.706647
1.533333 1.471924 1.619383 1.788471 1.876182 2.099120 2.857971
1.666667 1.571500 1.740227 1.920092 2.009315 2.264587 3.014300
1.800000 1.675500 1.853384 2.046579 2.141021 2.420546 3.139446
1.850000 1.718174 1.901754 2.101895 2.196713 2.489834 3.189807
1.950000 1.790309 1.993663 2.211243 2.300806 2.602196 3.312344
2.000000 1.838922 2.047919 2.266854 2.356902 2.665570 3.413263
2.050000 1.891655 2.102874 2.330040 2.416966 2.728134 3.453438
2.100000 1.937452 2.151002 2.392453 2.475033 2.783518 3.534526
2.150000 1.986439 2.205292 2.453437 2.533985 2.843532 3.586659
2.200000 2.040986 2.256768 2.514904 2.590547 2.900557 3.624919
2.250000 2.085638 2.314977 2.575621 2.648375 2.959663 3.684892
2.300000 2.136215 2.367834 2.634588 2.706405 3.022464 3.745909
2.350000 2.186812 2.424056 2.698209 2.766065 3.074151 3.814712
2.400000 2.232609 2.482761 2.757639 2.824094 3.136231 3.857496
2.450000 2.282795 2.530958 2.817996 2.880770 3.191159 3.911758
2.550000 2.395899 2.634255 2.937140 2.989095 3.293432 4.016492
2.650000 2.491531 2.735753 3.047388 3.094653 3.405062 4.111109
2.766667 2.625722 2.844452 3.173284 3.217579 3.515253 4.237072
2.883333 2.716481 2.952222 3.300434 3.338417 3.644332 4.394485
3.000000 2.854094 3.063730 3.421865 3.460938 3.763024 4.516611
3.050000 2.926239 3.117001 3.480326 3.518486 3.831991 4.577768
3.100000 2.973373 3.177274 3.543684 3.578633 3.888900 4.714182
3.150000 3.025143 3.229245 3.601813 3.638307 3.948577 4.771280
3.200000 3.085457 3.281639 3.659757 3.698263 4.024819 4.831165
3.250000 3.147776 3.338068 3.714132 3.757857 4.085607 4.896540
3.300000 3.196280 3.397238 3.776112 3.818613 4.153907 4.954852
3.350000 3.232124 3.445936 3.831986 3.878381 4.213490 5.004052
3.400000 3.288527 3.501014 3.891326 3.939112 4.281494 5.086444
3.450000 3.341330 3.556560 3.957744 3.999818 4.337145 5.165052
3.500000 3.385698 3.619688 4.019408 4.059852 4.396437 5.219238
3.550000 3.431036 3.674627 4.073675 4.119906 4.451020 5.281931
3.600000 3.483090 3.734816 4.141717 4.179348 4.514049 5.330865
3.650000 3.535420 3.791544 4.201901 4.238815 4.568513 5.405942
3.700000 3.591190 3.855364 4.258433 4.299291 4.619788 5.489546
3.750000 3.632435 3.912020 4.319183 4.358411 4.679125 5.551929
3.850000 3.732411 4.031369 4.426441 4.473714 4.841003 5.668428
3.900000 3.776696 4.091691 4.489056 4.532827 4.906404 5.741806
3.950000 3.816850 4.155703 4.546020 4.592667 4.952759 5.793305
4.000000 3.878693 4.213154 4.605939 4.650696 5.002238 5.868065
4.050000 3.931495 4.288874 4.661145 4.710365 5.061923 5.915561
4.100000 3.980284 4.357432 4.721050 4.770917 5.140646 5.973562
4.150000 4.035200 4.420173 4.780983 4.831291 5.206210 6.022818
4.225000 4.114620 4.518685 4.865978 4.916976 5.308924 6.112587
4.300000 4.187036 4.621386 4.947385 5.002457 5.406469 6.174307
4.400000 4.290494 4.741547 5.057476 5.112321 5.510322 6.268308
4.450000 4.345122 4.811720 5.114050 5.170029 5.549037 6.327762
4.500000 4.394081 4.877827 5.172382 5.227711 5.601184 6.397821
4.550000 4.440552 4.942304 5.234530 5.287439 5.667879 6.455574
4.600000 4.492571 4.997372 5.290005 5.347188 5.718751 6.503831
4.650000 4.554189 5.057930 5.354093 5.406375 5.775861 6.578045
4.700000 4.612686 5.110570 5.404164 5.463850 5.828963 6.645092
4.750000 4.659330 5.161130 5.463264 5.520839 5.884868 6.687675
4.800000 4.709958 5.224956 5.524047 5.579573 5.940076 6.760064
4.850000 4.770266 5.283765 5.584584 5.638117 5.990983 6.821739
4.900000 4.845414 5.340459 5.639478 5.696590 6.040887 6.874189
4.950000 4.888617 5.404029 5.700796 5.755997 6.092514 6.925154
5.000000 4.954542 5.454608 5.749246 5.815295 6.155572 7.006501
5.100000 5.093993 5.555718 5.856772 5.927154 6.277471 7.134340
5.200000 5.204989 5.656997 5.969407 6.035581 6.384471 7.227802
5.300000 5.354971 5.733308 6.074025 6.144721 6.508289 7.352648
5.350000 5.435811 5.784882 6.133635 6.202082 6.572698 7.395788
5.450000 5.560060 5.895945 6.240057 6.312402 6.696851 7.560708
5.550000 5.689651 5.986718 6.348809 6.421991 6.806719 7.684386
5.675000 5.844953 6.111963 6.479728 6.554961 6.987395 7.783393
5.800000 5.954246 6.234457 6.605791 6.685196 7.123728 7.934062
5.925000 6.120505 6.360896 6.730810 6.816058 7.259614 8.064102
6.050000 6.255996 6.475656 6.875910 6.949934 7.402442 8.234013
6.100000 6.314873 6.528813 6.933098 7.008500 7.453806 8.284897
6.150000 6.379862 6.577170 6.987498 7.066776 7.519337 8.338471
6.225000 6.473701 6.649620 7.078329 7.153664 7.602726 8.416753
6.300000 6.552514 6.733244 7.170882 7.240840 7.710191 8.489566
6.350000 6.596702 6.793239 7.226152 7.301434 7.768487 8.541893
6.400000 6.662295 6.850931 7.279837 7.361957 7.839331 8.594981
6.450000 6.720230 6.898768 7.339507 7.422166 7.926167 8.651953
6.500000 6.777241 6.962702 7.396153 7.483864 7.996109 8.707509
6.550000 6.838530 7.018523 7.457569 7.545863 8.057562 8.764474
6.600000 6.888682 7.089474 7.515874 7.609299 8.128322 8.830932
6.650000 6.944225 7.150732 7.573998 7.671529 8.187072 8.880863
6.750000 7.051352 7.250197 7.693317 7.791352 8.306659 9.004254
6.800000 7.096449 7.302342 7.752346 7.855208 8.370934 9.075368
6.850000 7.145064 7.375222 7.822914 7.918623 8.431342 9.151879
6.900000 7.198380 7.434438 7.895329 7.981332 8.520245 9.206285
6.950000 7.254273 7.516458 7.960445 8.044752 8.581745 9.266618
7.000000 7.309007 7.582877 8.025103 8.109695 8.647409 9.329377
7.050000 7.374546 7.654264 8.082017 8.171950 8.723854 9.370228
7.150000 7.484884 7.786275 8.207086 8.293665 8.844571 9.512461
7.200000 7.548783 7.848796 8.270867 8.355597 8.908615 9.591480
7.330000 7.662752 8.002759 8.415663 8.509183 9.070895 9.725953
7.350000 7.689505 8.023223 8.444098 8.536474 9.106719 9.749983
7.380000 7.734490 8.073615 8.487410 8.579014 9.147154 9.788341
7.400000 7.763272 8.104575 8.513666 8.607694 9.180342 9.809449
7.430000 7.796966 8.152490 8.552754 8.648855 9.212607 9.847498
7.480000 7.846162 8.239119 8.620269 8.716765 9.275042 9.915655
7.530000 7.904559 8.318688 8.688567 8.786275 9.344557 9.968648
7.605000 8.002778 8.424448 8.782734 8.882900 9.429339 10.059877
7.680000 8.079621 8.524859 8.875166 8.977114 9.514061 10.161981
7.813333 8.211748 8.703233 9.029213 9.135181 9.657962 10.292035
7.946667 8.366057 8.850681 9.189930 9.295495 9.819609 10.454490
8.080000 8.504648 9.020333 9.365556 9.459895 9.967408 10.590702
8.180000 8.627395 9.145568 9.489522 9.586900 10.088651 10.715316
8.230000 8.684799 9.206958 9.576766 9.654570 10.159728 10.806148
8.280000 8.758363 9.275122 9.658853 9.724872 10.212609 10.866000
8.380000 8.898022 9.411792 9.801527 9.858031 10.339954 10.985910
8.480000 9.040000 9.532618 9.946432 9.989093 10.469926 11.107451
8.530000 9.118650 9.608181 10.017739 10.060062 10.537848 11.156191
8.580000 9.184990 9.679175 10.093227 10.130362 10.619074 11.213345
8.630000 9.268716 9.751436 10.165972 10.200238 10.682508 11.265789
8.730000 9.414288 9.889937 10.321361 10.341167 10.822224 11.379537
8.830000 9.513871 10.035531 10.466381 10.479478 10.961603 11.514476
8.930000 9.656679 10.177834 10.609598 10.626414 11.105580 11.653173
9.030000 9.877377 10.315372 10.755318 10.782339 11.266389 11.810881
9.130000 10.062894 10.476899 10.889503 10.947192 11.469983 12.084828
9.180000 10.142588 10.563583 10.962224 11.034184 11.558062 12.171465
9.280000 10.300628 10.743668 11.123319 11.226418 11.801527 12.385777
9.355000 10.449768 10.884035 11.267850 11.395350 11.993000 12.721388
9.430000 10.570120 11.028105 11.422621 11.558867 12.174155 12.945038
9.480000 10.695671 11.115296 11.534574 11.671734 12.283243 13.066953
9.555000 10.958727 11.325163 11.868354 11.995752 12.634810 13.923451
9.630000 11.192924 11.550690 12.182622 12.316690 13.148694 14.442097
9.680000 11.306909 11.681980 12.353876 12.487796 13.360327 14.560755
9.730000 11.433696 11.852190 12.556549 12.694999 13.632003 14.719578
9.780000 11.587884 12.107009 12.761798 12.953232 13.939110 15.118688
9.830000 11.699403 12.322363 13.001930 13.240434 14.318408 15.361199
9.880000 11.790074 12.522301 13.239742 13.474343 14.641999 15.509176
9.930000 11.899516 12.706591 13.475679 13.700181 14.921128 15.675675
9.980000 11.983515 12.826218 13.742885 13.918612 15.181882 15.953841
10.030000 12.108000 12.990809 14.112275 14.166554 15.473036 16.286341
10.080000 12.219020 13.140339 14.468507 14.450030 15.736353 16.671304
10.120000 12.298543 13.241122 14.633679 14.596867 15.882387 16.900536
10.130000 12.322802 13.255333 14.662153 14.620619 15.900596 16.923993
10.180000 13.056265 13.873169 15.098293 15.064010 16.143151 17.095752
10.220000 13.549116 14.243149 15.373217 15.375287 16.451804 17.298662
10.230000 13.564627 14.270535 15.397623 15.400581 16.473077 17.317476
10.270000 14.426167 15.132565 15.941281 15.973987 16.822689 17.520047
10.280000 14.448697 15.166608 15.971849 15.999557 16.856417 17.544224
10.320000 15.193934 15.896172 16.551656 16.593965 17.303785 18.353757
10.330000 15.227898 15.925487 16.576861 16.620106 17.330213 18.390724
10.370000 15.831246 16.547447 17.171531 17.234508 17.819467 19.687712
10.380000 15.871669 16.575074 17.198572 17.262441 17.851726 19.705170
10.420000 16.043751 16.872277 17.673606 17.763936 18.322381 21.064624
10.430000 16.058803 16.896416 17.701861 17.789249 18.348333 21.080549
10.470000 16.272829 17.044362 17.814217 17.921485 18.473020 21.155771
10.480000 16.290403 17.065961 17.840749 17.943924 18.493516 21.222554
10.520000 16.507829 17.301323 17.943635 18.079351 18.604598 21.372803
10.570000 16.709763 17.500538 18.044747 18.228629 18.711400 21.491875
10.670000 17.331402 17.877001 18.292608 18.549494 18.989167 21.789571
10.720000 17.494889 18.008118 18.394952 18.664045 19.116260 21.898228
10.770000 17.589627 18.110465 18.497090 18.778099 19.251274 22.006038
10.820000 17.719830 18.206259 18.599415 18.899456 19.391007 22.137952
10.870000 17.831079 18.305368 18.703608 19.028455 19.517462 22.315572
10.920000 17.908462 18.406398 18.810163 19.143140 19.693546 22.458141
10.970000 18.004375 18.507160 18.935632 19.279376 19.867585 22.612096
11.020000 18.066246 18.632591 19.047598 19.419330 20.056807 22.897038
11.070000 18.170693 18.738117 19.184387 19.573088 20.271972 23.164844
11.120000 18.332668 18.858525 19.332130 19.751015 20.653690 23.435578
11.170000 18.488742 18.994234 19.580693 20.019109 21.209183 23.756828
11.220000 18.633417 19.216797 20.071275 20.546459 22.017761 24.168747
11.270000 18.933715 19.571298 20.986531 21.156080 22.630113 24.945801
11.320000 19.045676 19.698769 21.168148 21.338442 22.830127 25.598456
11.445000 19.392592 20.348367 22.706048 24.601005 30.038352 36.339116
11.570000 19.804814 21.785951 28.510661 28.447398 35.007627 38.658459
11.695000 20.321770 25.043942 31.335713 31.169394 37.174638 39.684962
11.820000 20.818792 27.881741 33.091881 32.690334 38.049679 40.263696
11.870000 20.904204 27.998446 33.193995 32.834494 38.193514 40.386852
11.920000 20.979385 28.150068 33.409474 32.986542 38.317832 40.515008
11.970000 21.062518 28.330915 33.546218 33.157503 38.435193 40.660319
12.020000 21.201693 28.471802 33.669998 33.305768 38.551004 40.779916
12.070000 21.446080 28.590063 33.825430 33.460669 38.714458 40.920157
12.120000 21.950403 28.717604 33.933259 33.618965 38.843914 41.032456
12.170000 22.055450 28.854200 34.116144 33.753605 39.001983 41.124208
12.295000 22.917569 30.229274 35.050487 34.551357 39.283796 41.387183
12.420000 25.258987 30.920125 35.889945 35.161555 39.668293 41.725447
12.470000 25.331282 31.040628 36.035427 35.301921 39.803006 41.865746
12.520000 25.450690 31.220158 36.195758 35.448109 39.929338 41.983542
12.636667 26.471527 31.821214 36.784539 36.056089 40.172087 42.243287
12.753333 28.150956 32.566129 37.399007 36.624614 40.386948 42.782125
12.870000 28.686106 33.025237 38.073869 37.098297 40.643533 43.751182
12.920000 28.916651 33.160057 38.203081 37.235277 40.735641 43.890580
12.970000 29.136784 33.333990 38.321152 37.384363 40.820550 44.038987
13.020000 29.332192 33.503107 38.461819 37.536789 40.921587 44.194262
13.070000 29.499024 33.653714 38.626227 37.681091 41.030302 44.335278
13.120000 29.635916 33.793825 38.787447 37.825076 41.131062 44.413733
13.195000 30.183822 33.982336 38.982965 38.066302 41.301153 44.558122
13.270000 30.499070 34.339472 39.183803 38.310542 41.433491 44.672495
13.386667 31.074744 35.154075 39.656721 38.921107 41.703129 45.026837
13.503333 31.952782 35.766651 40.032505 39.486783 42.049519 45.332704
13.620000 32.606247 36.304186 40.350464 39.982729 42.396833 45.782877
13.670000 32.783466 36.438689 40.479631 40.113706 42.606438 45.934044
13.770000 33.083000 36.823602 40.748724 40.447973 43.147619 46.233785
13.820000 33.239446 37.052664 40.872941 40.583757 43.262543 46.493562
13.870000 33.393809 37.348182 40.989999 40.721864 43.557711 46.632527
13.920000 33.688307 37.614696 41.090484 40.860287 43.693368 46.887620
13.970000 33.973936 37.845941 41.240083 41.025954 43.818337 47.113642
14.020000 34.352538 37.950508 41.365653 41.178437 44.034640 47.222893
14.070000 34.510216 38.097756 41.487422 41.334402 44.260532 47.421411
14.120000 34.703757 38.228776 41.606021 41.477338 44.406175 47.526320
14.195000 35.332549 38.751913 41.795036 41.730063 44.666587 47.953664
14.270000 35.556921 39.478758 42.009361 41.996025 44.913255 48.264193
14.320000 35.713384 39.626032 42.134916 42.134827 45.078667 48.366130
14.370000 35.926450 39.808840 42.285279 42.283336 45.210443 48.590348
14.420000 36.192693 40.042777 42.464386 42.439902 45.324207 48.704189
14.470000 36.347243 40.243122 42.625594 42.605899 45.556023 48.874427
14.520000 36.496042 40.450085 42.771522 42.762607 45.695902 48.990891
14.570000 36.650351 40.609651 42.923465 42.904323 45.864697 49.098203
14.620000 36.771211 40.735786 43.058917 43.054944 46.019797 49.199016
14.670000 36.939803 40.859544 43.186915 43.204844 46.191036 49.330618
14.770000 37.306021 41.238880 43.456109 43.530054 46.659912 49.912267
14.870000 37.697196 41.567321 43.700651 43.904230 47.272187 50.263386
14.920000 37.818532 41.732077 43.839738 44.054878 47.435142 50.392369
14.970000 38.026569 41.879951 43.965688 44.213773 47.583555 50.532452
15.020000 38.345726 42.044987 44.120002 44.390605 47.733491 50.636009
15.070000 38.511783 42.240828 44.243603 44.559804 47.943584 50.739745
15.120000 38.644805 42.348522 44.363483 44.705730 48.152038 50.815162
15.170000 38.751517 42.582492 44.508406 44.853070 48.402208 50.966467
15.220000 38.930700 42.747723 44.653300 45.013498 48.490128 51.269524
15.270000 39.136022 42.953761 44.769791 45.153753 48.566534 51.391094
15.345000 39.740225 43.355003 44.949972 45.416195 48.810004 51.865809
15.420000 40.328967 43.609529 45.127566 45.655514 49.187821 52.117269
15.470000 40.744549 43.786652 45.245160 45.804597 49.505120 52.267346
15.520000 41.271218 43.966825 45.367664 45.961325 49.770545 52.334551
15.570000 41.472719 44.125156 45.487398 46.110487 49.968167 52.505411
15.645000 42.002703 44.467425 45.662598 46.359659 50.330820 52.666663
15.720000 42.464506 44.726844 45.818032 46.598381 50.684730 53.010191
15.770000 42.691103 44.891541 45.929009 46.747764 50.917671 53.276114
15.820000 42.851012 45.030483 46.047833 46.888155 51.078208 53.524408
15.870000 43.019064 45.205879 46.156625 47.020672 51.240924 53.624494
15.920000 43.116791 45.322757 46.255411 47.161329 51.449706 53.710602
15.970000 43.285803 45.452206 46.365220 47.301246 51.603494 53.846775
16.020000 43.406869 45.610136 46.477582 47.439882 51.800132 54.053422
16.070000 43.531010 45.721419 46.585573 47.568911 51.916693 54.194616
16.120000 43.751653 45.832625 46.688088 47.695735 52.067519 54.398874
16.170000 43.942529 45.909612 46.789720 47.825512 52.164145 54.634108
16.220000 44.271905 46.007665 46.891824 47.960761 52.309744 54.777681
16.270000 44.604442 46.113695 47.002967 48.099817 52.460331 54.922234
16.320000 44.740666 46.203437 47.114554 48.230359 52.619186 55.069620
16.370000 45.013607 46.323978 47.208712 48.359143 52.753585 55.218146
16.420000 45.210232 46.428817 47.318131 48.480994 52.858825 55.375105
16.470000 45.399673 46.519528 47.440146 48.614730 52.974708 55.475711
16.520000 45.640334 46.614120 47.573684 48.745885 53.126732 55.577087
16.570000 45.860377 46.721983 47.698761 48.878210 53.239044 55.705421
16.620000 46.084666 46.829951 47.818910 49.009257 53.346933 55.835574
16.670000 46.237880 46.952294 47.943642 49.139428 53.469694 56.002063
16.720000 46.410108 47.092974 48.087145 49.272061 53.585318 56.185313
16.770000 46.581103 47.200908 48.217651 49.409669 53.710603 56.382218
16.820000 46.742107 47.327881 48.378529 49.549352 53.824655 56.637997
16.870000 46.843843 47.506726 48.525685 49.697793 53.939894 56.760039
16.920000 46.966943 47.696357 48.677748 49.854196 54.030188 56.846797
16.970000 47.081201 47.918262 48.870848 50.013592 54.200869 56.940798
17.020000 47.181768 48.146431 49.026512 50.184446 54.454079 57.017414
17.070000 47.313050 48.320552 49.179946 50.345692 54.575357 57.083434
17.120000 47.419235 48.503464 49.311928 50.502160 54.705420 57.216948
17.170000 47.528792 48.654638 49.460984 50.656919 54.838346 57.346189
17.220000 47.599843 48.782543 49.613239 50.805223 54.953929 57.552310
17.270000 47.738536 48.928041 49.768832 50.958488 55.050741 57.935093
17.320000 47.874581 49.082423 49.944791 51.114308 55.164744 58.405995
17.370000 47.991334 49.215612 50.104326 51.271603 55.316373 58.637393
17.420000 48.091773 49.348510 50.267293 51.423285 55.439540 58.922380
17.470000 48.225425 49.493332 50.409224 51.573079 55.560606 59.167452
17.520000 48.328761 49.615898 50.548237 51.735483 55.743314 59.450255
17.570000 48.430637 49.765378 50.737727 51.904876 55.906247 59.655326
17.620000 48.573274 49.950008 50.916894 52.072308 56.067007 59.870768
17.670000 48.691327 50.113268 51.135358 52.238109 56.203200 59.946380
17.720000 48.810368 50.251116 51.315546 52.405451 56.338818 60.032246
17.770000 48.938062 50.429780 51.511430 52.580116 56.544126 60.299452
17.820000 49.019829 50.589489 51.721094 52.780509 56.714477 60.477829
17.870000 49.200294 50.706768 51.930448 52.945748 56.846159 60.584809
17.920000 49.376440 50.867899 52.101006 53.118167 57.032652 60.747259
17.970000 49.498243 51.017267 52.306361 53.305384 57.200086 60.881866
18.020000 49.654224 51.162422 52.512020 53.479989 57.349559 60.959237
18.070000 49.848574 51.297252 52.723836 53.656587 57.501357 61.195355
18.120000 49.953284 51.463564 52.927982 53.839988 57.610007 61.335343
