depth(m) lower_95(kyr) lower_68(kyr) median(kyr) mean(kyr) upper_68(kyr) upper_95(kyr)
57.790000 318.209833 320.316380 321.781186 321.649141 323.024997 324.293995
57.890000 318.998105 321.011619 322.343875 322.266195 323.579061 324.852571
57.990000 320.051398 321.670936 322.947118 322.876677 324.116179 325.441805
58.090000 320.778406 322.331641 323.588875 323.529511 324.692983 325.979420
58.190000 321.789465 323.101644 324.213935 324.220310 325.330454 326.553758
58.290000 322.884516 323.846666 324.948579 324.953007 326.052630 327.135950
58.390000 323.543330 324.627404 325.591666 325.635123 326.701090 327.709742
58.490000 324.068344 325.237647 326.188359 326.240431 327.286912 328.403817
58.590000 324.925894 325.815811 326.814021 326.838800 327.897274 328.927626
58.690000 325.499891 326.368460 327.363004 327.400108 328.454964 329.411163
58.790000 326.063928 326.968388 327.979456 327.985357 328.998195 329.960573
58.890000 326.610125 327.566404 328.659490 328.601507 329.629006 330.556110
58.990000 327.217939 328.188556 329.266232 329.245233 330.279152 331.389649
59.090000 327.912205 328.849251 329.917043 329.918229 330.903414 332.085036
59.190000 328.696854 329.686695 330.673702 330.723610 331.737055 332.904995
59.290000 329.566079 330.547067 331.552901 331.587626 332.631561 333.809470
59.390000 330.372707 331.367503 332.456973 332.476616 333.573939 334.888910
59.490000 331.257187 332.262789 333.344205 333.402544 334.521283 335.828550
59.623333 332.255667 333.437170 334.617525 334.713447 336.108128 337.576654
59.756667 333.425938 334.680194 336.071388 336.098427 337.545404 338.815166
59.890000 334.656854 335.990849 337.494109 337.395984 338.715255 339.885062
59.990000 335.371146 336.949110 338.363031 338.275733 339.526856 340.792785
60.090000 336.210563 337.831398 339.197750 339.077049 340.298778 341.420692
60.190000 337.166008 338.639414 339.896649 339.798821 341.065003 342.085319
60.290000 337.734482 339.270218 340.503375 340.456054 341.655353 342.786027
60.415000 338.630850 340.044166 341.241721 341.216048 342.348698 343.611560
60.540000 339.305782 340.717023 341.983099 341.911561 343.017321 344.177915
60.640000 339.882469 341.303853 342.515735 342.452042 343.521185 344.818122
60.740000 340.475837 341.875199 343.029491 342.994342 344.080073 345.288073
60.840000 340.973891 342.427586 343.576512 343.529455 344.609111 345.960714
60.940000 341.550459 342.939238 344.115527 344.073980 345.164891 346.523147
61.040000 342.055199 343.477766 344.676606 344.616948 345.723479 347.075986
61.140000 342.621734 343.999179 345.197650 345.173983 346.250357 347.751250
61.240000 343.193253 344.479843 345.761528 345.743566 346.839865 348.611165
61.340000 343.789667 345.098727 346.283720 346.325660 347.483946 349.411070
61.465000 344.417172 345.689923 346.949740 347.020547 348.289410 350.199007
61.590000 345.032332 346.389500 347.579418 347.718629 349.031832 351.086637
61.715000 345.742604 347.063448 348.248190 348.406167 349.729701 351.821727
61.840000 346.486359 347.700403 348.895596 349.071367 350.506770 352.508684
61.940000 346.979998 348.261005 349.442377 349.616346 351.019827 353.002000
62.040000 347.486466 348.784251 349.986904 350.173886 351.694599 353.506038
62.140000 347.969607 349.306051 350.554920 350.720375 352.315851 353.987947
62.240000 348.549994 349.861650 351.089225 351.267159 352.852179 354.481949
62.340000 349.039598 350.338573 351.638247 351.815256 353.406296 354.995326
62.440000 349.508331 350.803362 352.217167 352.360830 353.998604 355.510361
62.540000 350.017853 351.357121 352.802383 352.900856 354.635278 356.013990
62.640000 350.472529 351.847857 353.424724 353.450264 355.166436 356.497048
62.740000 351.036083 352.405161 353.940820 353.985422 355.702253 356.989854
62.840000 351.687314 352.866882 354.514117 354.516530 356.195882 357.493855
62.940000 352.135788 353.339583 355.043198 355.035892 356.738896 358.009048
63.040000 352.642121 353.873288 355.558844 355.547364 357.285358 358.474156
63.140000 353.196420 354.366437 356.060038 356.060971 357.787604 358.950206
63.240000 353.791942 354.927525 356.569215 356.581858 358.340566 359.420547
63.340000 354.239306 355.461158 357.085124 357.100863 358.834198 359.938947
63.440000 354.750400 356.013361 357.632152 357.611917 359.324874 360.384590
63.540000 355.261393 356.509367 358.133976 358.122947 359.811664 360.933869
63.640000 355.744938 356.999324 358.666718 358.629149 360.334785 361.373554
63.740000 356.238602 357.490486 359.225930 359.151555 360.840477 361.813796
63.840000 356.683860 358.008567 359.766127 359.674604 361.345318 362.365394
63.940000 357.192633 358.560325 360.337623 360.225418 361.835857 362.982194
64.040000 357.699270 359.091220 360.875453 360.773475 362.393346 363.542463
64.140000 358.329636 359.634047 361.406681 361.323647 362.950071 364.112355
64.240000 358.958141 360.264946 361.948134 361.874827 363.499443 364.694936
64.340000 359.542923 360.795527 362.511100 362.444967 364.035934 365.241179
64.440000 360.072100 361.333238 363.080304 363.028133 364.614117 366.002152
64.540000 360.659927 362.061604 363.632856 363.608589 365.198846 366.536413
64.640000 361.203829 362.646909 364.227409 364.221127 365.768902 367.262112
64.740000 361.728001 363.249610 364.799663 364.846897 366.422018 367.953954
64.840000 362.229221 363.825362 365.441094 365.485618 367.101726 368.755381
64.940000 362.866965 364.450957 366.149336 366.132316 367.777383 369.541941
65.040000 363.445800 365.023811 366.761108 366.787867 368.457693 370.286689
65.140000 364.009705 365.633938 367.404667 367.426924 369.162470 371.082330
65.240000 364.620824 366.202695 368.119369 368.095738 369.958914 371.770793
65.340000 365.123007 366.834964 368.732476 368.761732 370.634928 372.931485
65.440000 365.653020 367.463360 369.481510 369.470528 371.371295 373.704372
65.540000 366.316820 368.081435 370.136320 370.149366 372.099518 374.431308
65.640000 366.914925 368.759204 370.769771 370.839872 372.840800 375.351743
65.740000 367.588190 369.352422 371.528544 371.552834 373.609321 375.991274
65.840000 368.321002 369.982317 372.202265 372.271731 374.492576 376.662242
65.940000 368.867247 370.808940 373.010567 373.041476 375.474587 377.502623
66.040000 369.624502 371.584577 373.798663 373.824582 376.132049 378.294430
66.140000 370.142861 372.270473 374.611992 374.640878 376.994987 379.456758
66.240000 370.681306 372.993286 375.374467 375.426271 377.893207 380.239675
66.340000 371.323905 373.732984 376.171373 376.210242 378.718460 381.185445
66.465000 372.349435 374.579628 377.040301 377.146188 379.731539 382.092871
66.590000 373.220450 375.642802 377.998471 378.110484 380.677087 383.233595
66.690000 374.182829 376.353300 378.705333 378.841667 381.467967 384.014663
66.790000 374.795746 377.018072 379.407735 379.533555 382.202165 384.677106
66.890000 375.609337 377.734343 380.092167 380.242225 382.830249 385.446624
66.990000 376.229758 378.506406 380.737071 380.952516 383.562793 385.889821
67.090000 376.950733 379.225061 381.506685 381.674196 384.313202 386.605497
67.190000 378.059057 380.099769 382.262126 382.494077 385.007196 387.462931
67.290000 378.760693 380.919683 382.992819 383.289238 385.839852 388.328269
67.390000 379.441746 381.636950 383.914850 384.102602 386.639079 389.106775
67.490000 380.129768 382.566580 384.839476 384.947903 387.490998 389.844059
67.590000 380.956582 383.524736 385.801127 385.860994 388.350823 390.757762
67.690000 381.785470 384.450517 386.811145 386.800155 389.263350 391.685758
67.815000 383.105612 385.717856 388.079986 388.064455 390.363699 392.614039
67.940000 384.500990 386.965638 389.418529 389.292553 391.545862 393.617724
68.065000 385.926057 388.188340 390.517496 390.490792 392.752789 394.728800
68.190000 387.036300 389.505091 391.790337 391.699448 393.955006 395.827185
68.290000 388.048997 390.508867 392.667566 392.633790 394.879651 396.589540
68.390000 389.219879 391.429712 393.585818 393.525027 395.707323 397.327127
68.490000 390.236240 392.332929 394.593288 394.435737 396.502898 398.135188
68.590000 391.166293 393.328169 395.525091 395.343832 397.347527 398.968324
68.690000 392.198943 394.522597 396.665046 396.465062 398.405902 399.771195
68.790000 393.448478 395.653702 397.762586 397.626164 399.473863 400.820862
68.923333 395.165894 397.378919 399.293881 399.176010 400.920815 402.549178
69.056667 397.120981 399.046740 400.765964 400.733166 402.493126 404.140969
69.190000 399.041404 400.729846 402.201030 402.233307 403.862817 405.418489
69.290000 400.107491 401.631209 403.109705 403.115303 404.692052 406.186601
69.390000 401.076661 402.428335 403.925266 403.956730 405.528747 407.030553
69.490000 401.832500 403.152244 404.741508 404.715729 406.304116 407.641835
69.590000 402.593950 403.891157 405.470574 405.476308 407.009169 408.444555
69.720000 403.470040 404.826385 406.465789 406.484617 408.139609 409.684717
69.850000 404.248691 405.817492 407.455551 407.488867 409.158978 410.874316
69.980000 405.111070 406.785239 408.407056 408.476305 410.221508 412.192589
70.110000 405.902103 407.752848 409.394389 409.467902 411.217389 413.302139
70.240000 407.099746 408.727454 410.410064 410.467936 412.217939 414.161416
70.340000 407.903211 409.682646 411.313855 411.372998 413.130383 415.078353
70.440000 409.037870 410.594081 412.188939 412.336640 414.114883 416.105885
70.540000 409.721827 411.567600 413.221408 413.318650 415.140629 417.048224
70.640000 410.848891 412.527504 414.192088 414.288559 416.002734 418.466479
70.740000 411.749733 413.492159 415.258871 415.333356 417.183054 419.398174
70.840000 412.749270 414.549515 416.312740 416.372146 418.220698 420.262488
70.940000 413.591841 415.411979 417.348305 417.331523 419.272817 421.048684
71.040000 414.425257 416.442157 418.380394 418.357836 420.312553 422.132237
71.140000 415.479092 417.391298 419.340596 419.365342 421.291784 423.050219
71.240000 416.437766 418.381458 420.424168 420.335926 422.175804 424.022151
71.340000 417.355373 419.368932 421.331659 421.273852 423.121048 424.811916
71.440000 418.252092 420.341769 422.278843 422.220264 424.111774 425.803268
71.540000 419.279671 421.491671 423.379029 423.293742 425.150773 426.720502
71.673333 421.343244 423.243144 425.158097 425.168164 427.085677 428.741116
71.806667 423.222072 425.216879 427.298548 427.202591 429.093839 430.915642
71.940000 425.420512 427.284750 429.008473 429.078968 430.921067 432.652892
72.040000 426.570930 428.309948 429.987486 430.045527 431.875589 433.512711
72.140000 427.492203 429.140875 430.897956 430.906655 432.716566 434.152033
72.240000 428.483470 429.933213 431.730590 431.701801 433.465795 434.821656
72.340000 429.208797 430.652066 432.494088 432.439127 434.130130 435.598647
72.440000 429.844345 431.248331 433.169036 433.090728 434.809323 436.181679
72.540000 430.376221 431.885165 433.820534 433.721590 435.413448 436.855303
72.640000 430.912443 432.465434 434.338069 434.279659 435.976656 437.364033
72.740000 431.465813 433.016056 434.926916 434.826132 436.490290 437.977831
72.840000 432.021878 433.528824 435.472800 435.339382 436.995332 438.439659
72.940000 432.556758 434.039485 435.984741 435.849561 437.525000 438.842926
73.040000 433.110194 434.526837 436.474824 436.347327 437.971872 439.364815
73.182857 433.661634 435.238432 437.111206 437.023169 438.657911 440.155937
73.325714 434.312394 435.928121 437.723923 437.677102 439.280981 440.758780
73.468571 435.060103 436.595393 438.375488 438.334147 439.956621 441.353026
73.611429 435.696392 437.226942 439.032032 438.976439 440.593333 442.068050
73.754286 436.254977 437.895358 439.661714 439.606217 441.173414 442.715748
73.897143 436.884612 438.466978 440.306315 440.250724 441.821798 443.471407
74.040000 437.493499 439.126749 440.885410 440.902482 442.516005 444.069521
74.173333 438.109447 439.752371 441.551841 441.525296 443.166516 445.009412
74.306667 438.837662 440.384581 442.137806 442.155278 443.788246 445.691934
74.440000 439.464651 441.091455 442.747275 442.804837 444.495517 446.418917
74.515000 439.800854 441.517698 443.166690 443.209629 444.958554 446.899983
74.590000 440.263616 441.880628 443.591661 443.637026 445.408227 447.362569
74.710000 440.974251 442.530121 444.274712 444.340995 446.108860 448.176261
74.830000 441.583322 443.162705 444.946618 445.041806 446.855248 449.115261
74.950000 442.151154 443.826944 445.591109 445.724446 447.654211 450.248020
75.070000 442.808368 444.393975 446.229030 446.433870 448.473128 451.161445
75.190000 443.506108 445.044140 446.973423 447.208733 449.368879 452.192961
75.290000 444.083356 445.565928 447.578944 447.846330 450.115068 452.833467
75.390000 444.657368 446.262332 448.247163 448.514219 450.856890 453.752976
75.490000 445.369606 446.968917 448.955511 449.243548 451.622203 454.578117
75.590000 445.813712 447.596439 449.621105 449.954096 452.292576 455.628975
75.690000 446.468930 448.255615 450.410070 450.699734 453.181004 456.644704
75.790000 447.100288 448.888009 451.192970 451.497362 454.168683 457.378930
75.890000 447.738599 449.619613 451.909476 452.252806 455.003805 458.025655
75.990000 448.467798 450.267140 452.772367 453.010271 455.709218 458.707895
76.090000 449.005743 451.042368 453.630882 453.785704 456.441186 459.455350
76.223333 449.748616 452.039159 454.757927 454.825623 457.473768 460.373157
76.356667 450.558173 452.889782 455.794717 455.823026 458.667662 461.284484
76.490000 451.385650 453.750392 456.779875 456.790441 459.766829 462.205730
76.623333 452.027643 454.535413 457.847939 457.738315 460.766394 462.988303
76.756667 452.750564 455.428108 458.811179 458.666935 461.799860 464.110905
76.890000 453.428619 456.315196 459.664169 459.577026 462.639570 465.172698
76.990000 453.868366 456.987362 460.348351 460.242816 463.181787 465.891565
77.090000 454.780429 457.769930 461.033338 460.884599 463.774917 466.631794
77.190000 455.728132 458.392672 461.662605 461.545120 464.425607 467.097686
77.290000 456.370096 459.055519 462.290156 462.166553 464.935715 467.656729
77.390000 456.867086 459.633644 462.903144 462.767279 465.504210 468.392713
77.523333 457.738903 460.556322 463.856123 463.579894 466.216636 469.227758
77.656667 458.629127 461.520969 464.622867 464.382495 466.979585 469.862886
77.790000 459.515248 462.349844 465.431410 465.185987 467.753741 470.674350
77.890000 460.043753 463.019541 466.022027 465.787705 468.397477 471.287451
77.990000 460.601022 463.617303 466.617709 466.371414 468.948380 471.802788
78.090000 461.224336 464.231127 467.209479 466.977876 469.547798 472.356414
78.190000 461.866365 464.891249 467.753691 467.584002 470.080589 473.004071
78.290000 462.424567 465.562260 468.375336 468.176162 470.618844 473.499992
78.390000 463.179079 466.168963 468.923436 468.774359 471.272821 474.016183
78.490000 463.881339 466.790281 469.439870 469.357556 471.788100 474.596758
78.590000 464.509825 467.469834 469.992891 469.931711 472.377039 475.146554
78.690000 465.037296 468.116759 470.524427 470.528297 473.080625 475.786247
78.790000 465.782113 468.748589 471.052536 471.131988 473.745265 476.387517
78.890000 466.247168 469.215999 471.601549 471.723780 474.416214 476.926005
78.990000 466.913322 469.859496 472.246726 472.340814 475.070822 477.536525
79.090000 467.397657 470.499888 472.859644 472.963529 475.652217 478.193903
79.190000 467.955270 471.064429 473.478787 473.592401 476.448994 478.866909
79.290000 468.528502 471.826822 474.144043 474.262436 477.184684 479.450847
79.390000 469.111998 472.379382 474.765276 474.921681 477.795106 480.259795
79.490000 469.703867 472.947214 475.506461 475.584007 478.422840 480.850365
