depth(m) lower_95(kyr) lower_68(kyr) median(kyr) mean(kyr) upper_68(kyr) upper_95(kyr)
3361.250000 294.887150 295.822893 297.046413 297.031738 298.237597 299.299990
3361.392857 294.908447 295.842907 297.076480 297.051297 298.252975 299.311678
3361.535714 294.924479 295.853096 297.088035 297.070491 298.271784 299.334791
3361.678571 294.944040 295.875905 297.108177 297.089260 298.284127 299.344954
3361.821429 294.957402 295.892259 297.127449 297.108554 298.303685 299.363766
3361.964286 294.968299 295.910473 297.144990 297.127296 298.317730 299.377056
3362.107143 294.985161 295.927265 297.167424 297.146060 298.347851 299.388035
3362.250000 295.057009 295.944789 297.196634 297.165019 298.358474 299.398888
3362.392857 295.116081 295.958409 297.211535 297.184181 298.374878 299.432201
3362.535714 295.149765 295.975063 297.235732 297.202566 298.393204 299.441579
3362.678571 295.177192 295.988314 297.247343 297.221617 298.409523 299.453982
3362.821429 295.202871 296.010346 297.267684 297.240174 298.430423 299.463851
3362.964286 295.221342 296.029919 297.287118 297.258805 298.455792 299.475559
3363.107143 295.232839 296.050969 297.309838 297.278296 298.478143 299.489486
3363.250000 295.241469 296.070472 297.328760 297.296776 298.490486 299.505646
3363.392857 295.269308 296.093745 297.349059 297.315955 298.506666 299.519964
3363.535714 295.302316 296.118315 297.366569 297.335160 298.520260 299.541807
3363.678571 295.334895 296.135355 297.388570 297.353471 298.546073 299.571232
3363.821429 295.361499 296.148550 297.405006 297.372105 298.562420 299.587320
3363.964286 295.378944 296.168107 297.417624 297.390588 298.583071 299.615782
3364.107143 295.413166 296.183990 297.430372 297.408720 298.595290 299.627950
3364.250000 295.426178 296.200405 297.452657 297.427453 298.609613 299.640174
3364.392857 295.455408 296.214816 297.482913 297.446834 298.625184 299.662611
3364.535714 295.505134 296.229904 297.496524 297.465300 298.644885 299.690280
3364.678571 295.520913 296.250128 297.509943 297.483475 298.655597 299.701838
3364.821429 295.534930 296.266746 297.527540 297.501886 298.666670 299.718682
3364.964286 295.553207 296.293786 297.546483 297.519878 298.679910 299.734679
3365.107143 295.571325 296.309948 297.564765 297.539036 298.697236 299.753755
3365.250000 295.640588 296.336339 297.575354 297.557979 298.713446 299.766809
3365.392857 295.669506 296.352611 297.596231 297.576790 298.749195 299.774203
3365.535714 295.698094 296.370372 297.609791 297.595746 298.779990 299.782056
3365.678571 295.735610 296.386965 297.622916 297.615007 298.791669 299.792743
3365.821429 295.747750 296.401451 297.649922 297.633318 298.804817 299.804254
3365.964286 295.776086 296.423781 297.670796 297.652034 298.815776 299.815360
3366.107143 295.794047 296.451244 297.696629 297.671422 298.838121 299.832813
3366.250000 295.817420 296.485391 297.708983 297.690246 298.854017 299.841546
3366.392857 295.841571 296.508669 297.725585 297.710325 298.867642 299.858152
3366.535714 295.857882 296.536220 297.741130 297.728657 298.880056 299.866081
3366.678571 295.871892 296.551956 297.752253 297.747543 298.901022 299.882521
3366.821429 295.883334 296.582927 297.766620 297.766111 298.915556 299.901474
3366.964286 295.891371 296.592169 297.790339 297.785016 298.926049 299.914352
3367.107143 295.900660 296.612174 297.805576 297.803741 298.934697 299.928494
3367.250000 295.911253 296.623923 297.825293 297.822971 298.951562 299.943422
3367.392857 295.921690 296.646572 297.849158 297.842108 298.964730 299.960088
3367.535714 295.943190 296.677622 297.858828 297.861402 298.982713 299.971199
3367.678571 295.959786 296.694388 297.887761 297.880487 298.996502 299.990048
3367.821429 295.970717 296.725004 297.901934 297.899780 299.019995 300.004167
3367.964286 295.980949 296.749010 297.917587 297.918196 299.034772 300.012006
3368.107143 295.997248 296.767048 297.932429 297.937481 299.044446 300.022335
3368.250000 296.004479 296.790138 297.949245 297.956664 299.058922 300.034042
3368.392857 296.022062 296.810248 297.973845 297.976245 299.085178 300.046880
3368.535714 296.036338 296.830939 297.992101 297.995990 299.093892 300.065392
3368.678571 296.074645 296.856660 298.009141 298.014948 299.104532 300.079503
3368.821429 296.111757 296.889736 298.030872 298.033700 299.115529 300.094036
3368.964286 296.125286 296.905844 298.050787 298.052889 299.139342 300.129782
3369.107143 296.202413 296.920777 298.075364 298.072450 299.156185 300.142645
3369.250000 296.218850 296.964626 298.098467 298.091372 299.168837 300.156405
3369.392857 296.263599 296.995730 298.115035 298.111037 299.205344 300.171687
3369.535714 296.279766 297.021951 298.138813 298.131755 299.248206 300.186543
3369.678571 296.307034 297.041440 298.152473 298.151491 299.284056 300.201577
3369.821429 296.315613 297.071963 298.171440 298.171207 299.297540 300.227921
3369.964286 296.324863 297.104864 298.192237 298.191203 299.309618 300.251817
3370.107143 296.336799 297.116142 298.210731 298.211811 299.326684 300.273833
3370.250000 296.347375 297.153401 298.222669 298.231437 299.342723 300.292196
3370.392857 296.357583 297.181242 298.258277 298.251637 299.361922 300.305798
3370.535714 296.364844 297.208268 298.280398 298.271976 299.386080 300.318973
3370.678571 296.375674 297.236193 298.300246 298.291540 299.416185 300.330096
3370.821429 296.398383 297.262191 298.322243 298.311568 299.429823 300.341559
3370.964286 296.415027 297.282046 298.337998 298.332043 299.442520 300.354366
3371.107143 296.434234 297.306354 298.366945 298.351955 299.459514 300.363778
3371.250000 296.447627 297.320864 298.381494 298.371697 299.468271 300.371951
3371.392857 296.457463 297.339408 298.398990 298.391327 299.491924 300.392195
3371.535714 296.490619 297.354811 298.414659 298.411171 299.516474 300.403674
3371.678571 296.501767 297.380023 298.428653 298.431317 299.549667 300.435788
3371.821429 296.514206 297.400589 298.444458 298.451654 299.561419 300.449555
3371.964286 296.539230 297.408690 298.463489 298.471244 299.589336 300.470177
3372.107143 296.566202 297.426715 298.481760 298.491324 299.616759 300.482624
3372.250000 296.624522 297.446499 298.497064 298.511255 299.629945 300.497717
3372.392857 296.641978 297.467551 298.513018 298.529813 299.645467 300.514198
3372.535714 296.667913 297.479091 298.530074 298.549094 299.674281 300.545462
3372.678571 296.689628 297.502327 298.546724 298.569092 299.703987 300.577158
3372.821429 296.701050 297.524502 298.560825 298.588882 299.713584 300.589903
3372.964286 296.708989 297.546695 298.573832 298.608734 299.728500 300.603597
3373.107143 296.757583 297.582184 298.588071 298.628436 299.750292 300.615755
3373.250000 296.791025 297.609524 298.601177 298.648871 299.764925 300.631162
3373.392857 296.807595 297.644440 298.615209 298.669191 299.780776 300.644380
3373.535714 296.820545 297.660849 298.631213 298.689235 299.797927 300.663430
3373.678571 296.844837 297.680342 298.645820 298.709088 299.827633 300.679586
3373.821429 296.859934 297.737565 298.663518 298.729416 299.836118 300.694770
3373.964286 296.880672 297.757885 298.688497 298.749311 299.858185 300.709270
3374.107143 296.926278 297.785967 298.705112 298.769049 299.868652 300.720740
3374.250000 296.943461 297.803870 298.720393 298.788080 299.889870 300.732150
3374.392857 296.963080 297.817764 298.734176 298.807753 299.909676 300.754599
3374.535714 296.989937 297.837274 298.749751 298.827273 299.922619 300.761586
3374.678571 297.028283 297.864671 298.768267 298.846361 299.936572 300.783376
3374.821429 297.070785 297.891744 298.787704 298.865716 299.959258 300.804554
3374.964286 297.091504 297.921128 298.804532 298.885772 299.978059 300.821542
3375.107143 297.118140 297.944499 298.822498 298.905832 299.992264 300.835303
3375.250000 297.133481 297.968992 298.836973 298.925109 300.003576 300.848152
3375.392857 297.150369 297.986680 298.851744 298.945166 300.015576 300.877928
3375.535714 297.166824 298.019429 298.868057 298.966043 300.024767 300.894817
3375.678571 297.185404 298.039873 298.882503 298.986021 300.046812 300.907210
3375.821429 297.202279 298.069785 298.897915 299.006182 300.070389 300.935345
3375.964286 297.235787 298.092995 298.932648 299.025409 300.080877 300.955028
3376.107143 297.264198 298.111592 298.948362 299.045443 300.104423 301.004919
3376.250000 297.287759 298.130270 298.964019 299.065672 300.115199 301.017224
3376.392857 297.299323 298.150426 298.979930 299.085600 300.138600 301.039367
3376.535714 297.307398 298.172545 298.996869 299.105535 300.151926 301.054439
3376.678571 297.320436 298.195126 299.024775 299.126187 300.164540 301.077787
3376.821429 297.332959 298.213461 299.042327 299.146435 300.180158 301.104889
3376.964286 297.363514 298.239465 299.059590 299.167168 300.193791 301.121913
3377.107143 297.379812 298.260308 299.069818 299.188153 300.208259 301.160977
3377.250000 297.391428 298.277649 299.088094 299.208471 300.220150 301.176027
3377.392857 297.428531 298.297424 299.110375 299.228002 300.237231 301.186443
3377.535714 297.445104 298.318676 299.130348 299.248367 300.259976 301.195080
3377.678571 297.468874 298.339354 299.151677 299.269260 300.289558 301.214070
3377.821429 297.523993 298.355415 299.171330 299.290161 300.307457 301.231181
3377.964286 297.541976 298.372577 299.188435 299.311064 300.332323 301.244777
3378.107143 297.564062 298.399923 299.202320 299.332886 300.361079 301.258912
3378.250000 297.583623 298.417377 299.218218 299.354088 300.377924 301.280687
3378.392857 297.622384 298.444112 299.236062 299.375465 300.388074 301.308779
3378.535714 297.647395 298.465575 299.257565 299.396746 300.405986 301.331327
3378.678571 297.669139 298.494873 299.281009 299.418161 300.423971 301.352795
3378.821429 297.704399 298.511962 299.306698 299.439365 300.450058 301.365754
3378.964286 297.724853 298.531501 299.333701 299.460620 300.470195 301.380182
3379.107143 297.742210 298.558868 299.356709 299.481957 300.492695 301.391721
3379.250000 297.759793 298.574508 299.380045 299.502521 300.505476 301.452616
3379.392857 297.779096 298.596307 299.402884 299.524869 300.541268 301.513319
3379.535714 297.798852 298.626776 299.426284 299.546932 300.563311 301.533293
3379.678571 297.813317 298.663860 299.454418 299.567856 300.582344 301.552286
3379.821429 297.821047 298.685747 299.483267 299.589742 300.607756 301.561947
3379.964286 297.831729 298.702622 299.502871 299.612209 300.628792 301.576155
3380.107143 297.843545 298.724544 299.541777 299.634666 300.663531 301.609811
3380.250000 297.861437 298.746868 299.564690 299.657362 300.686600 301.627169
3380.392857 297.892884 298.766492 299.591940 299.679073 300.701346 301.642873
3380.535714 297.920614 298.784600 299.620720 299.700131 300.717423 301.668826
3380.678571 297.943722 298.804194 299.649244 299.721396 300.740048 301.687122
3380.821429 297.965553 298.822158 299.678014 299.742536 300.773156 301.715713
3380.964286 297.982375 298.860978 299.707615 299.764710 300.792279 301.730410
3381.107143 297.994159 298.874733 299.722917 299.786604 300.856469 301.767776
3381.250000 298.012789 298.888102 299.749511 299.808842 300.886223 301.789441
3381.392857 298.023311 298.904846 299.771123 299.830108 300.911123 301.803353
3381.535714 298.043447 298.932900 299.802052 299.851690 300.940743 301.831566
3381.678571 298.055153 298.949284 299.816447 299.872475 300.964318 301.856106
3381.821429 298.080486 298.967724 299.833565 299.893424 300.979380 301.867097
3381.964286 298.114858 298.979161 299.851589 299.914406 301.012510 301.885279
3382.107143 298.142544 298.998774 299.880118 299.935691 301.032609 301.902471
3382.250000 298.160370 299.022713 299.901967 299.956595 301.051404 301.918051
3382.392857 298.201881 299.049384 299.931217 299.978941 301.068766 301.933135
3382.535714 298.244657 299.069904 299.950030 300.001495 301.089391 301.948212
3382.678571 298.271917 299.091152 299.967597 300.023035 301.130346 301.978167
3382.821429 298.294617 299.115070 299.981166 300.044329 301.148894 302.001411
3382.964286 298.306059 299.132203 299.996560 300.066059 301.160411 302.020592
3383.107143 298.326281 299.147755 300.009676 300.087891 301.182365 302.037403
3383.250000 298.346401 299.163506 300.026649 300.109638 301.207491 302.056915
3383.392857 298.363955 299.181843 300.045136 300.131559 301.222491 302.088677
3383.535714 298.415360 299.192548 300.065123 300.153522 301.235998 302.110907
3383.678571 298.428948 299.211771 300.081532 300.174710 301.274536 302.140866
3383.821429 298.452487 299.236868 300.097410 300.197002 301.285922 302.155114
3383.964286 298.470981 299.265544 300.111637 300.218138 301.306785 302.178164
3384.107143 298.481407 299.287827 300.134491 300.239662 301.334595 302.209890
3384.250000 298.495630 299.309093 300.164226 300.261710 301.348092 302.232375
3384.392857 298.515540 299.338998 300.178106 300.283398 301.370923 302.245415
3384.535714 298.542463 299.365520 300.199151 300.306091 301.393023 302.261171
3384.678571 298.553848 299.403446 300.221169 300.328480 301.414505 302.289456
3384.821429 298.560395 299.439379 300.241715 300.350978 301.441251 302.313002
3384.964286 298.577971 299.459605 300.273913 300.374006 301.461250 302.332136
3385.107143 298.591410 299.490041 300.298576 300.396315 301.477073 302.382995
3385.250000 298.602123 299.514811 300.313590 300.418249 301.495272 302.392521
3385.392857 298.622269 299.530309 300.335026 300.439974 301.513976 302.399561
3385.535714 298.667661 299.554665 300.351529 300.462361 301.536173 302.413655
3385.678571 298.682396 299.571098 300.372055 300.484920 301.557827 302.422674
3385.821429 298.699897 299.594455 300.397395 300.506808 301.573433 302.441758
3385.964286 298.717495 299.616347 300.415169 300.529352 301.600471 302.456981
3386.107143 298.742240 299.632291 300.431969 300.550847 301.620846 302.478118
3386.250000 298.765692 299.649632 300.448489 300.571680 301.639546 302.495067
3386.392857 298.779138 299.664323 300.461732 300.593785 301.665806 302.524996
3386.535714 298.801550 299.679182 300.482805 300.615944 301.682233 302.556095
3386.678571 298.828919 299.699051 300.498501 300.637957 301.697671 302.579844
3386.821429 298.841773 299.721774 300.529042 300.660008 301.709490 302.593304
3386.964286 298.863806 299.749054 300.549465 300.682001 301.756245 302.616003
3387.107143 298.877500 299.770277 300.577039 300.704323 301.789656 302.638635
3387.250000 298.913098 299.792881 300.591875 300.727600 301.808180 302.658358
3387.392857 298.931047 299.814815 300.609113 300.750416 301.834153 302.673456
3387.535714 298.946537 299.844038 300.636021 300.772595 301.856806 302.717982
3387.678571 298.965071 299.865712 300.653312 300.794857 301.879486 302.731646
3387.821429 299.026842 299.887044 300.672986 300.818384 301.913954 302.742977
3387.964286 299.065286 299.911047 300.693550 300.841596 301.936660 302.779935
3388.107143 299.101936 299.929421 300.725899 300.864428 301.954906 302.794984
3388.250000 299.122002 299.956761 300.744075 300.887872 301.981330 302.822637
3388.392857 299.139214 299.983500 300.768641 300.911979 301.999558 302.853454
3388.535714 299.178797 300.014035 300.791219 300.935804 302.017469 302.867469
3388.678571 299.218309 300.031242 300.817753 300.960254 302.038792 302.886919
3388.821429 299.230690 300.058907 300.844105 300.983726 302.057812 302.898034
3388.964286 299.247690 300.082012 300.871240 301.007337 302.078471 302.916090
3389.107143 299.269660 300.108265 300.904200 301.031830 302.118243 302.932285
3389.250000 299.283217 300.140276 300.924936 301.056348 302.155801 302.956447
3389.392857 299.292322 300.160612 300.948113 301.080526 302.178367 302.972309
3389.535714 299.299986 300.179799 300.966790 301.104848 302.215405 302.989965
3389.678571 299.308694 300.200602 300.988466 301.129133 302.232526 303.016254
3389.821429 299.327448 300.233858 301.015233 301.153296 302.259729 303.036131
3389.964286 299.354945 300.258120 301.051745 301.178539 302.288198 303.054632
3390.107143 299.378271 300.280984 301.077836 301.203130 302.303628 303.076383
3390.250000 299.391593 300.291920 301.099826 301.228999 302.331496 303.096905
3390.392857 299.411091 300.323578 301.126692 301.253158 302.349646 303.112217
3390.535714 299.428167 300.337463 301.145882 301.276597 302.372186 303.126320
3390.678571 299.453325 300.361416 301.180923 301.301448 302.400878 303.138751
3390.821429 299.465141 300.383438 301.213443 301.326308 302.424553 303.163730
3390.964286 299.483240 300.411033 301.236891 301.350624 302.437268 303.188144
3391.107143 299.521312 300.433273 301.269525 301.374908 302.460363 303.200864
3391.250000 299.553177 300.450200 301.291853 301.398757 302.478346 303.222593
3391.392857 299.566381 300.469669 301.314153 301.423180 302.500396 303.262222
3391.535714 299.597996 300.492478 301.330125 301.447924 302.521491 303.287080
3391.678571 299.636124 300.513136 301.366147 301.471804 302.551272 303.306713
3391.821429 299.657957 300.534424 301.388060 301.496600 302.581905 303.323454
3391.964286 299.676491 300.551073 301.419690 301.521713 302.602634 303.344566
3392.107143 299.695252 300.575510 301.456996 301.546427 302.623412 303.363158
3392.250000 299.729859 300.597679 301.476081 301.571495 302.641283 303.389094
3392.392857 299.791615 300.615264 301.500030 301.596126 302.654545 303.418550
3392.535714 299.806146 300.639819 301.527739 301.621386 302.684149 303.454245
3392.678571 299.853758 300.669625 301.564089 301.645942 302.713305 303.475400
3392.821429 299.873242 300.707775 301.593615 301.670603 302.745127 303.531958
3392.964286 299.882141 300.727399 301.619159 301.696103 302.772010 303.566273
3393.107143 299.903910 300.748470 301.638323 301.719737 302.788588 303.595738
3393.250000 299.920482 300.768810 301.671013 301.743761 302.817421 303.618455
3393.392857 299.933384 300.789222 301.696134 301.768438 302.826413 303.632804
3393.535714 299.957792 300.810341 301.718211 301.792276 302.846778 303.653148
3393.678571 299.976866 300.831920 301.744909 301.817224 302.863246 303.684158
3393.821429 299.994668 300.865362 301.763088 301.841066 302.878096 303.705277
3393.964286 300.006236 300.893713 301.781215 301.866155 302.907321 303.718931
3394.107143 300.045416 300.922705 301.800921 301.890172 302.935133 303.739381
3394.250000 300.060444 300.956930 301.827328 301.914066 302.949819 303.757005
3394.392857 300.122049 300.972991 301.848059 301.937595 302.969016 303.794721
3394.535714 300.138363 300.995071 301.877091 301.960649 303.009919 303.811393
3394.678571 300.174013 301.026536 301.897888 301.983679 303.037503 303.832111
3394.821429 300.234220 301.053880 301.929618 302.007420 303.066726 303.865929
3394.964286 300.288883 301.076574 301.957573 302.031718 303.090163 303.891792
3395.107143 300.312926 301.105186 301.981242 302.055696 303.105866 303.903946
3395.250000 300.338530 301.137509 302.000790 302.079642 303.127579 303.935053
3395.392857 300.385491 301.162402 302.027980 302.102269 303.158793 303.969618
3395.535714 300.405710 301.184651 302.046186 302.125634 303.169871 304.010301
3395.678571 300.438031 301.207359 302.063704 302.147793 303.198102 304.042046
3395.821429 300.484457 301.226910 302.079673 302.171682 303.225327 304.069219
3395.964286 300.523749 301.246351 302.098791 302.196082 303.245363 304.116215
3396.107143 300.559624 301.285997 302.116020 302.220121 303.277595 304.129710
3396.250000 300.597633 301.307713 302.139142 302.243451 303.300146 304.146101
3396.392857 300.615785 301.329112 302.163669 302.266606 303.326421 304.160486
3396.535714 300.671292 301.349097 302.193190 302.290062 303.361045 304.183836
3396.678571 300.685247 301.361963 302.217447 302.311988 303.385456 304.205317
3396.821429 300.698960 301.377141 302.245173 302.335107 303.408741 304.255678
3396.964286 300.719044 301.398220 302.270194 302.358354 303.429258 304.264849
3397.107143 300.755178 301.428394 302.297732 302.382621 303.450470 304.276936
3397.250000 300.770322 301.449000 302.324113 302.405602 303.464728 304.285211
3397.392857 300.792181 301.483803 302.352808 302.429960 303.491616 304.301205
3397.535714 300.815079 301.509756 302.384144 302.453845 303.516761 304.335392
