depth(m) lower_95(kyr) lower_68(kyr) median(kyr) mean(kyr) upper_68(kyr) upper_95(kyr)
3.160000 296.071326 301.211152 304.429058 304.056266 307.115813 309.527409
3.190000 299.818591 303.693969 306.815416 306.524708 309.358329 311.650350
3.220000 302.881506 305.972651 308.949294 308.761279 311.503678 314.013087
3.250000 305.606639 308.039841 311.127477 310.951909 313.664220 316.174586
3.280000 308.400003 310.516131 313.328853 313.318191 316.129451 318.377376
3.310000 310.650712 313.134464 315.825710 315.738367 318.471384 320.458621
3.340000 313.165139 315.886471 318.508580 318.330354 320.742956 322.422160
3.370000 316.603359 319.219341 321.521756 321.380218 323.477638 325.451444
3.400000 321.606425 324.031681 325.503289 325.437960 326.986166 328.321530
3.430000 325.046200 326.555298 327.890785 327.816031 329.071232 330.342047
3.490000 329.432081 330.616144 331.716254 331.668773 332.719995 333.844541
3.520000 331.070968 332.340756 333.375476 333.320456 334.385888 335.351797
3.550000 332.481206 333.782846 334.867721 334.832747 335.930170 336.965692
3.580000 334.391859 335.387236 336.603023 336.602145 337.685296 339.030363
3.610000 335.818930 337.009986 338.171765 338.273367 339.440344 341.483148
3.640000 337.775768 338.951858 340.212754 340.448509 341.859781 344.895473
3.670000 339.733489 341.057632 342.543446 342.898780 344.825234 348.073909
3.700000 341.671080 343.244778 344.985892 345.379615 347.574316 351.318802
3.730000 343.755713 345.558040 347.680850 348.003826 350.318243 354.258410
3.760000 345.906155 347.929861 350.423872 350.653342 353.166433 356.949035
3.790000 347.777444 349.946064 352.936369 353.103855 356.049640 359.513141
3.820000 349.523909 352.160941 355.137875 355.391345 358.541800 362.386568
3.850000 351.523354 354.266230 357.470997 357.759014 361.229578 366.065144
3.880000 353.750737 356.803863 359.920727 360.148169 363.364284 368.755722
3.910000 356.270214 359.453167 362.490196 362.822136 366.148577 371.596395
3.940000 359.123629 362.323866 365.489501 365.907038 369.569415 374.231144
3.970000 361.911100 365.453949 369.042581 369.270397 373.323958 377.253399
4.000000 365.451895 368.807186 372.928316 372.998704 377.075469 381.394202
4.030000 368.164126 371.728149 376.165438 375.996894 380.052556 383.662054
4.060000 371.315633 374.793408 379.153999 379.006754 383.141172 386.427692
4.090000 374.960267 378.693915 382.810767 382.711891 386.598469 389.640886
4.120000 377.807872 382.278324 386.013166 385.825543 389.575633 392.286549
4.150000 381.249268 385.136012 388.749563 388.526655 392.052198 394.234544
4.180000 384.677440 388.603573 391.798164 391.554562 394.720730 396.983400
4.210000 389.578809 392.826318 395.619556 395.385380 397.865360 399.952921
4.240000 395.618105 397.967799 400.088918 400.253275 402.414985 406.711123
4.270000 400.426137 402.377966 404.627880 404.894218 407.459297 410.405345
4.330000 407.301148 409.711530 412.331673 412.526094 415.541485 418.637002
4.360000 409.648539 412.458903 415.097987 415.433406 418.790134 421.594224
4.390000 412.577817 415.424455 418.374728 418.488105 421.694704 424.185366
4.420000 416.244196 419.161875 422.293708 422.202975 425.000456 428.074077
4.450000 419.669133 422.194233 425.187051 425.104827 427.467495 431.690903
4.480000 423.481189 425.880730 428.327458 428.613760 430.960159 437.018189
4.510000 428.311212 431.026127 434.602783 434.830196 438.356383 442.961396
4.540000 432.236486 437.408872 441.806560 441.383368 445.244273 448.651995
4.570000 437.639282 442.734680 446.087033 445.927715 449.315367 452.502231
4.600000 441.714317 445.458642 448.806152 448.822737 452.380819 455.732208
4.630000 444.196558 447.761502 451.281274 451.300800 455.028815 458.806675
4.660000 446.823224 450.089552 453.739008 453.734775 457.412117 461.036035
4.690000 449.223345 452.180229 456.205378 456.104123 459.897083 463.428906
4.720000 451.566833 454.435246 458.482170 458.429829 462.346101 465.631664
4.750000 453.370444 456.730507 460.945346 460.766016 464.587550 467.816802
4.780000 455.971778 459.201774 463.454430 463.364899 467.360003 470.184517
4.810000 458.452984 461.988576 466.131331 465.955816 469.679671 472.913441
4.840000 461.111484 465.145781 468.902790 468.659959 472.104279 475.008213
4.870000 464.828264 468.279047 472.080911 471.773419 474.982889 477.657457
4.900000 468.945962 472.601684 475.916973 475.673264 478.688722 481.369472
4.930000 474.154816 477.416915 480.342893 480.161312 482.926249 485.667737
4.960000 479.889398 482.431466 485.353618 485.234414 488.019918 490.528562
4.990000 482.667309 485.190115 488.055043 487.963246 490.719387 492.806544
5.020000 485.535092 487.782608 490.566718 490.385608 492.957714 495.167120
5.050000 487.955505 490.573843 492.902095 492.776529 495.026837 496.938338
5.080000 490.392218 493.056010 495.337794 495.195874 497.338868 499.185445
5.110000 492.800405 495.338710 497.516198 497.353974 499.334444 501.125569
5.140000 495.053174 497.436315 499.493883 499.361589 501.258961 502.971549
5.170000 497.118536 499.529580 501.514472 501.370073 503.161016 504.881488
5.200000 499.242732 501.612486 503.456997 503.424972 505.255875 507.072587
5.230000 501.537509 503.543920 505.296827 505.428685 507.246452 509.717251
5.260000 503.712818 505.585647 507.215602 507.509036 509.492708 513.346751
5.290000 505.909311 507.565527 509.414450 509.734650 511.824532 515.629914
5.320000 507.836004 509.466809 511.619939 511.993788 514.536373 518.374326
5.350000 509.170078 511.376674 513.857547 514.368206 517.700740 521.748354
5.380000 511.177053 513.266990 515.995243 516.613367 520.266143 524.429911
5.410000 512.869543 515.287260 518.241848 518.949884 523.172698 526.693047
5.440000 515.048252 517.536139 520.807125 521.333328 525.631753 529.166882
5.470000 517.443944 520.197147 523.505699 523.902705 527.932966 531.235927
5.500000 519.817560 522.869511 526.663647 526.676008 530.264882 533.552830
5.530000 522.175852 525.890415 529.759070 529.522190 532.851470 536.070676
5.560000 524.905707 529.373292 533.370668 533.176976 536.383159 541.718408
5.590000 527.574760 532.500446 536.310358 536.350097 539.940546 546.365256
