depth(m) lower_95(kyr) lower_68(kyr) median(kyr) mean(kyr) upper_68(kyr) upper_95(kyr)
5.420000 296.047921 300.991140 304.460332 304.139129 307.260001 311.824621
5.470000 300.688596 304.424364 307.510962 307.451979 310.337741 314.915167
5.500000 303.293059 306.747146 309.513391 309.714848 313.086591 316.771537
5.630000 313.418593 317.568763 320.597440 320.155913 322.722964 324.177246
5.670000 317.040916 320.861033 323.109792 322.747454 324.757151 326.106985
5.730000 321.434722 323.710109 325.751770 325.511099 327.306107 328.680940
5.770000 323.808823 325.495244 327.396309 327.205448 328.864595 330.028976
5.830000 326.014652 328.066229 329.770219 329.550167 330.971878 331.983221
5.870000 327.750991 329.807339 331.349872 331.155747 332.515892 333.468051
5.970000 331.515905 332.695693 334.009055 333.956147 335.147855 336.300907
6.030000 333.509183 334.566114 335.942777 335.886852 337.128283 338.331281
6.080000 335.388519 336.464007 337.782837 337.788565 338.979937 340.532283
6.130000 337.351074 338.749907 340.266025 340.419937 342.066356 344.460440
6.170000 338.818077 340.482418 342.232582 342.540444 344.562074 347.410411
6.230000 341.477411 342.949148 345.093433 345.569003 348.166261 352.363459
6.270000 343.266714 344.953329 347.383556 347.837640 350.888590 354.983355
6.330000 346.068023 348.112019 351.232669 351.524848 355.022562 358.520309
6.370000 347.884028 350.233873 353.691286 353.829262 357.499421 361.024899
6.430000 350.805094 353.465551 357.126504 357.034617 360.336940 363.486622
6.470000 352.845642 355.829135 359.255052 359.173630 362.307890 365.809083
6.530000 356.340664 359.362585 362.506853 362.498085 365.468493 369.326446
6.570000 358.896021 361.929627 364.710354 364.855324 367.901772 371.425208
6.630000 361.828002 365.100329 368.134366 368.185284 371.458278 374.556804
6.670000 363.752343 366.914876 370.223171 370.195888 373.371977 376.514522
6.730000 366.637479 369.898099 373.140863 373.168170 376.427073 379.469236
6.770000 368.740027 371.998964 375.475525 375.375931 378.547344 381.561418
6.830000 371.958999 375.368760 378.879135 378.708683 381.975908 384.652062
6.870000 374.228716 377.691876 380.961474 380.895349 384.135177 386.594659
6.930000 377.803526 380.961168 384.216390 384.027942 387.224389 389.634973
6.970000 380.153940 383.227095 386.610496 386.408114 389.443236 392.067350
7.010000 382.386215 385.733675 388.836973 388.660800 391.627674 394.014576
7.070000 386.710562 389.854441 392.523170 392.496058 395.192792 397.620866
7.160000 392.460760 394.975603 397.329756 397.651895 399.930298 407.307771
7.210000 395.150477 397.577132 399.960183 400.503498 403.183872 409.707654
7.260000 399.946152 402.105279 404.544903 404.936255 408.069018 411.948449
7.310000 403.221064 406.828292 409.743074 409.693433 412.589359 415.448762
7.360000 408.726756 411.290544 413.860531 413.848317 416.567040 419.083174
7.410000 413.255723 415.374364 417.959434 417.913279 420.439213 422.446258
7.460000 416.578324 419.089250 421.496433 421.337008 423.449385 424.924258
7.510000 419.775467 422.093666 424.068979 423.896265 425.620131 426.948857
7.560000 422.426805 424.561273 426.109770 426.048950 427.548542 428.937588
7.610000 424.986901 426.635772 427.967528 427.920501 429.212096 430.514815
7.660000 427.051456 428.449149 429.786793 429.784732 431.078805 432.776341
7.710000 428.804303 430.086078 431.512949 431.526911 432.892204 434.402548
7.760000 430.426647 431.689530 433.085561 433.137030 434.510141 436.320564
7.860000 432.852153 434.409805 435.943567 435.952516 437.518012 439.059482
7.960000 435.538540 437.293637 438.997684 438.982128 440.650057 442.442312
8.010000 437.186865 438.886334 440.529714 440.562009 442.250600 443.942519
8.110000 439.932592 441.840141 443.618130 443.725177 445.568020 448.085619
8.160000 441.515577 443.589542 445.378921 445.533158 447.502672 450.579425
8.210000 443.280786 445.261499 447.214384 447.490588 449.648158 453.481332
8.260000 445.322906 447.166758 449.272946 449.645240 452.210696 455.996296
8.310000 446.984767 449.055690 451.622052 451.885559 454.701676 458.720737
8.360000 448.805713 451.122785 454.010256 454.270960 457.518731 461.308754
8.410000 451.054792 453.398825 456.546007 456.800600 460.350555 464.137378
8.460000 453.046734 455.741030 459.058827 459.311779 462.929946 466.691854
8.510000 455.418387 458.324744 461.854525 462.069278 465.903137 469.316953
8.560000 458.006967 461.056156 464.810961 464.809456 468.673833 471.869817
8.610000 460.184697 463.876584 467.811620 467.647816 471.431191 474.126677
8.660000 463.275589 467.178953 470.934004 470.606158 473.988188 476.342269
8.710000 467.084968 470.550016 474.011819 473.637194 476.507712 478.528914
8.760000 470.955047 474.293557 477.007024 476.772912 479.236231 481.269379
8.810000 474.587773 477.152810 479.426016 479.384922 481.602503 483.724037
8.860000 477.097338 479.658052 481.735443 481.744929 483.912040 486.600932
8.910000 480.163435 482.337776 484.522972 484.662883 486.906583 490.375018
9.010000 484.116530 487.927357 491.462016 491.491572 494.760718 499.527644
9.060000 486.533908 490.707124 496.133604 495.607499 500.051450 503.987894
9.110000 489.608499 493.971910 500.108139 499.219744 503.475219 506.858860
9.210000 502.983909 506.405605 508.986701 508.967917 511.713585 514.731528
9.260000 506.728451 509.496666 512.180946 512.193088 514.837308 517.632193
9.310000 509.561079 512.636519 515.040135 515.100784 517.635344 520.422966
9.360000 512.486873 515.332914 517.907663 517.984612 520.654440 523.455143
9.410000 515.577303 517.965941 520.485475 520.492021 523.173220 525.789848
9.460000 517.742538 520.187812 522.865325 522.884065 525.580720 528.636495
9.560000 521.513790 524.657314 527.345978 527.663972 530.741053 535.288665
9.610000 524.339874 527.027791 530.040954 530.941309 534.901223 542.629058
9.660000 526.770654 529.441525 532.476008 534.001172 539.766445 546.396581
9.710000 529.388036 532.686732 536.490854 538.006217 545.244178 550.091745
9.760000 531.973103 535.970530 542.354427 542.500370 549.393529 552.512524
9.810000 534.597944 540.162111 548.080703 546.894277 552.777068 555.318251
9.860000 537.958710 545.200838 552.101483 550.787665 555.509260 558.343655
9.910000 542.721370 549.790615 555.225190 554.260096 558.331904 561.292537
9.990000 550.321233 555.980207 559.927447 559.449513 563.091299 565.352491
10.070000 558.705348 561.734582 564.846061 564.592168 567.341175 569.458032
10.120000 561.933946 564.928332 567.604403 567.424200 569.895128 571.828401
10.170000 564.701664 567.915360 570.242297 570.059686 572.168784 573.941597
10.220000 568.396261 570.869051 572.801958 572.741447 574.628452 576.415295
10.270000 571.424052 573.364629 575.173829 575.156898 576.929392 578.842762
10.320000 573.783897 575.877506 577.709584 577.844709 579.742054 582.772311
10.370000 576.544348 578.612832 580.639866 581.252353 583.909642 591.010005
10.420000 579.447265 581.628555 585.692389 585.738629 589.495160 594.150312
10.470000 581.391400 584.657957 590.573817 589.998765 594.404048 597.517662
10.520000 584.420479 589.234073 593.972955 593.588270 597.846680 600.871007
10.570000 588.506329 592.981695 596.941778 596.735848 600.537731 603.643695
10.620000 592.356712 596.020931 599.850755 599.625867 603.179673 605.796702
10.670000 595.289468 599.211028 602.700519 602.391282 605.375049 607.662433
10.720000 598.748994 602.673835 605.528500 605.210671 607.687054 609.769925
10.770000 602.813017 605.975211 608.308483 607.989863 610.074105 612.003508
10.820000 605.877893 608.564276 610.665093 610.515559 612.384821 614.185443
10.870000 609.362013 611.107979 613.042339 612.981218 614.824255 616.355478
10.920000 611.954708 613.788727 615.739202 615.681789 617.478241 619.265932
10.970000 614.893133 616.927755 619.117829 619.084324 621.198012 623.268589
11.020000 620.473833 623.374417 625.803646 625.992469 628.724397 631.868831
11.070000 624.433005 626.811818 629.382926 629.611501 632.497594 635.226083
11.120000 626.654416 629.411650 632.534402 632.508795 635.615535 638.534980
11.170000 629.008184 631.720118 635.090067 635.075250 638.123640 641.446844
11.220000 631.209423 634.161159 637.634669 637.557355 640.774132 643.902296
11.270000 633.551054 636.493752 639.858774 639.819388 643.114776 646.255420
11.370000 637.990900 640.887071 644.124056 644.226671 647.480497 651.386690
11.420000 640.498827 643.251677 646.666733 646.798672 650.083965 653.612511
11.470000 642.728751 645.929824 649.420929 649.419978 652.904687 656.291762
11.510000 644.962015 647.866283 651.495530 651.501637 655.085480 658.423481
11.610000 648.743702 652.537640 656.561421 656.507347 660.481281 664.367120
11.660000 651.250800 655.183353 659.468379 659.487083 663.764594 667.611598
11.710000 654.112851 658.053728 662.614896 662.582393 666.914642 671.246214
11.760000 656.712277 660.731950 665.530416 665.404191 670.066437 674.095441
11.835000 660.773169 664.757510 669.280696 669.393091 674.145434 678.807562
11.910000 664.128125 668.920921 673.413957 673.441201 677.991956 683.219499
11.960000 666.683460 671.961764 676.775000 676.701052 681.438370 685.852411
12.010000 671.141301 676.365505 681.486699 681.225764 686.234402 689.400422
12.060000 681.092929 685.337271 688.710887 688.261837 691.307387 693.669740
12.110000 685.532405 689.096901 692.214100 691.731359 694.236353 695.785297
12.210000 690.647757 694.371390 697.373356 696.790062 699.142254 699.848335
