depth(m) lower_95(kyr) lower_68(kyr) median(kyr) mean(kyr) upper_68(kyr) upper_95(kyr)
4.790000 324.273951 326.264742 328.546020 328.261002 330.108293 331.311892
4.840000 326.987744 329.041959 330.586220 330.431195 331.750576 332.850825
4.890000 330.630023 331.727409 332.777861 332.741511 333.781794 334.644736
4.940000 332.538987 333.510983 334.447260 334.488714 335.492791 336.522726
4.990000 334.090909 334.904098 335.966358 335.986226 337.026154 338.106021
5.040000 335.359259 336.253098 337.262357 337.332244 338.448822 339.608822
5.090000 336.582980 337.497003 338.529054 338.583941 339.704602 340.791602
5.140000 337.686073 338.678983 339.755983 339.811753 340.955593 341.933036
5.252500 339.879941 340.975165 342.212947 342.218339 343.425908 344.512821
5.365000 342.133025 343.345979 344.606256 344.613888 345.882449 347.020276
5.477500 344.532240 345.764365 347.018948 347.008639 348.193784 349.540203
5.590000 347.249389 348.332078 349.383216 349.419198 350.555312 351.723361
5.640000 348.513224 349.503629 350.572916 350.609052 351.806335 352.918739
5.690000 349.510662 350.658112 351.743285 351.810636 352.970879 354.104755
5.740000 350.740499 351.827943 352.938123 353.006892 354.247025 355.610062
5.840000 352.610776 353.965201 355.252171 355.281475 356.631345 358.006221
5.890000 353.682339 355.138518 356.493222 356.512258 357.930926 359.342935
5.990000 355.907704 357.441872 358.847200 358.903976 360.393886 362.303191
6.090000 358.188932 359.637601 361.254699 361.372211 362.980790 365.342634
6.140000 359.648397 361.176429 362.748484 362.971406 364.666693 367.550223
6.190000 361.148507 362.801310 364.552167 364.925181 367.146739 370.696067
6.240000 362.886310 364.783297 366.848953 367.428690 370.352415 373.959403
6.290000 365.348917 367.343624 370.174963 370.627069 373.914881 377.840122
6.340000 367.706117 369.888067 373.968618 373.956869 377.795104 381.075646
6.390000 370.504060 373.861980 377.908020 377.808752 381.672055 384.877540
6.440000 374.457432 378.258191 382.043465 382.013961 385.721665 388.911578
6.490000 378.619329 382.373002 386.222249 386.148324 389.916141 392.817227
6.540000 382.066315 386.427599 390.137397 390.091062 393.854545 396.801581
6.590000 388.722827 392.722934 396.054326 395.898173 399.001918 402.478545
6.640000 395.099924 398.989971 402.678544 402.965853 407.258398 410.528528
6.690000 398.164941 403.841618 409.576848 408.680980 412.720139 415.759104
6.740000 402.175187 409.619086 413.335329 412.862223 416.380529 419.303355
6.790000 411.752799 414.540445 417.571703 417.531179 420.574247 423.055498
6.840000 416.380566 419.186924 421.792127 421.625754 424.084216 425.891267
6.890000 419.702650 422.339602 424.511602 424.373504 426.476775 428.020859
6.940000 422.660458 424.807439 426.644067 426.562003 428.300421 429.833251
7.040000 426.851508 428.779499 430.418585 430.412333 432.132678 434.030579
7.090000 428.814707 430.525572 432.208358 432.212555 433.906616 435.857758
7.140000 430.596703 432.295024 433.917207 433.977017 435.782661 437.613296
7.190000 432.385457 434.072370 435.675123 435.781252 437.502547 439.310085
7.240000 434.275373 435.861664 437.471282 437.588813 439.445526 441.209096
7.290000 436.157511 437.619955 439.360140 439.406196 441.153266 443.005319
7.390000 439.408371 441.032854 442.795328 442.893960 444.635314 446.752663
7.440000 441.225561 442.908946 444.652742 444.787074 446.657448 449.236545
7.490000 442.876714 444.768003 446.663049 446.910368 449.006537 452.486297
7.540000 444.540209 446.483495 448.714672 448.978655 451.370965 455.202471
7.590000 446.313826 448.360110 450.877392 451.113500 453.923450 457.640344
7.640000 448.117016 450.441745 453.295301 453.507781 456.659940 460.589984
7.690000 450.136312 452.528939 455.599565 455.932740 459.549778 463.288398
7.740000 452.489362 454.790004 458.144532 458.533591 462.420973 466.194685
7.790000 454.561267 457.707407 461.443179 461.586130 465.520541 469.658858
7.890000 459.695608 463.571737 467.768295 467.609899 471.559860 475.020849
7.940000 462.680730 466.977811 471.369677 470.929779 474.603643 477.630308
7.990000 466.916510 471.360947 475.321321 474.955833 478.440734 481.192165
8.040000 472.868018 477.400640 480.923069 481.132093 484.526384 493.223714
8.090000 475.416449 481.325328 485.217715 486.606178 494.104996 500.288935
8.190000 479.476665 496.446483 502.644602 500.557576 505.817686 508.494910
8.240000 480.735209 504.363715 507.738709 505.753434 509.886785 512.616279
8.290000 483.133465 507.898450 510.572830 508.796442 513.017140 515.322750
8.365000 488.450681 511.277358 514.185476 512.451739 516.518363 518.642284
8.440000 493.881400 515.097680 517.675928 516.054243 519.881398 522.023829
8.490000 496.739931 517.144984 519.892932 518.295083 521.964796 524.137003
8.540000 499.282950 519.297938 521.957389 520.488396 523.982719 526.219469
8.590000 502.636657 521.469121 524.016505 522.804387 526.139883 528.518417
8.640000 505.907616 523.535318 526.150159 525.134309 528.326284 530.479249
8.690000 511.229074 525.532934 528.422763 527.605641 530.626990 532.956327
8.740000 518.070249 528.012885 530.823475 530.335252 533.265596 536.289530
8.790000 525.963069 530.926981 533.600829 533.647956 536.822783 541.882353
8.840000 530.128603 533.824036 536.750782 537.462478 541.876153 547.104214
8.890000 533.160368 536.560588 541.045270 541.263365 546.370794 550.308206
8.940000 536.415316 540.172639 545.196542 544.984770 549.746567 552.939201
8.990000 539.777988 544.385908 549.298029 548.726853 552.713306 555.818890
9.040000 544.468320 549.338393 552.854147 552.622836 556.084892 559.353756
9.090000 549.850843 553.805103 556.714095 556.793870 560.010893 563.374590
9.140000 556.038815 558.497703 561.513168 561.707890 564.967069 568.423718
9.190000 560.327648 563.003353 565.928096 566.168216 569.352846 573.482356
9.240000 563.617524 566.973573 569.768883 569.866804 572.686991 577.120098
9.290000 567.508866 571.142757 574.037520 574.121282 577.149346 580.832969
9.365000 573.125977 576.544028 580.294569 580.932120 585.555248 591.579547
9.440000 579.202735 581.936014 586.680527 587.525897 593.405553 598.093558
9.490000 583.006033 586.316361 590.770952 591.678359 597.465148 601.469791
9.540000 587.091390 591.103915 595.704955 595.931739 601.396821 604.202767
9.590000 591.471359 594.986782 600.547894 600.019651 604.656639 607.104851
9.640000 594.910602 598.941919 604.201199 603.500520 607.616986 609.616843
9.690000 598.434194 603.360421 607.087654 606.675485 610.049631 612.345816
9.740000 602.767722 606.496164 609.573093 609.422563 612.438390 614.538794
9.790000 607.001751 609.848187 612.292424 612.196921 614.630171 616.650844
9.840000 610.317260 613.031474 615.148990 615.089232 617.163316 619.043573
9.890000 615.284624 617.058390 618.921801 618.886311 620.685222 622.443551
9.940000 619.321814 621.103670 622.726146 622.771872 624.461414 626.623739
10.040000 624.778338 626.341820 628.429922 628.767662 631.317149 634.354434
10.090000 626.738561 628.705251 631.047724 631.348949 634.050283 637.469550
10.165000 629.439297 631.744418 634.519063 634.755059 637.909869 641.685018
10.240000 631.940895 634.686959 637.799556 637.986581 641.246019 644.951715
10.290000 634.258636 636.715536 640.011658 640.177786 643.366046 647.116950
10.340000 636.413270 639.203663 642.539239 642.537071 645.786196 649.258390
10.440000 639.937681 643.550981 646.738958 646.814456 650.054865 653.711166
10.490000 642.285628 645.783073 648.976351 649.096020 652.528291 656.317370
10.540000 644.358743 647.954254 651.215982 651.358171 654.957290 658.812606
10.590000 646.841335 650.203261 653.531859 653.788732 657.608727 661.228153
10.640000 648.983464 652.189063 655.839994 656.076807 660.002005 663.735062
10.690000 651.102459 654.508137 658.378084 658.381073 662.446147 665.745369
10.740000 653.300337 656.568516 660.687822 660.695922 664.883522 668.072828
10.790000 655.260155 658.575800 662.953864 662.968115 667.413209 670.167535
10.840000 657.466588 661.043513 665.227101 665.216451 669.656468 672.364679
10.915000 660.059546 664.117718 668.807519 668.337047 672.604965 674.957294
10.990000 662.480096 667.262735 671.850852 671.323662 675.347237 677.813452
11.040000 664.693790 669.132099 673.901641 673.183118 677.084730 679.486732
11.090000 666.798604 671.139671 675.551846 674.934674 678.632591 680.803098
11.140000 668.890440 673.217661 677.391353 676.828073 680.242846 682.498678
11.190000 671.640926 675.489514 679.270202 678.824286 681.855851 684.063033
11.240000 673.741204 677.765662 681.191495 680.816808 683.560912 685.886115
11.290000 676.461452 680.228265 683.245874 682.907869 685.507815 687.846023
11.340000 679.168462 682.653131 685.364163 685.108586 687.777250 689.619865
11.390000 681.768790 685.342565 687.634073 687.477367 689.834115 691.497396
11.490000 688.106432 690.135623 692.194130 692.140662 694.207447 695.861065
11.540000 690.117550 692.208687 694.444448 694.311341 696.511808 697.816808
11.590000 691.990856 694.251022 696.594499 696.446806 698.699296 699.792485
