depth(m) lower_95(kyr) lower_68(kyr) median(kyr) mean(kyr) upper_68(kyr) upper_95(kyr)
10.605884 280.839992 283.293293 286.077985 286.197336 289.258899 291.705965
10.655884 281.971731 284.282435 287.065702 287.171705 290.266781 292.578353
10.725884 283.088934 285.598504 288.378260 288.487811 291.534619 293.714617
10.775884 284.127570 286.423823 289.327375 289.430098 292.534370 294.497219
10.825884 284.967684 287.448038 290.357529 290.396225 293.464971 295.236064
10.865884 285.567705 288.313415 291.246333 291.202822 294.216457 296.002653
10.925884 286.767041 289.443647 292.522229 292.390725 295.273625 296.993613
10.975884 287.766367 290.451371 293.488694 293.334725 296.230954 297.872708
11.075884 289.643559 292.228389 295.397621 295.103809 297.934317 299.561321
11.125884 290.492773 293.108796 296.463414 296.065806 298.741701 300.273680
11.155884 291.120318 293.701454 297.172292 296.666888 299.312585 300.837367
11.215884 292.122921 295.037712 298.311895 297.832723 300.393820 301.695102
11.245884 292.800167 295.596190 298.958067 298.446794 301.015970 302.286885
11.295884 293.683081 296.650687 299.984435 299.398006 301.809073 303.085392
11.325884 294.627653 297.332690 300.488582 299.996133 302.318766 303.630302
11.435884 297.026283 299.905926 302.537184 302.095754 304.136546 305.429194
11.465884 297.596128 300.647088 303.114516 302.728136 304.755553 305.982226
11.515243 298.746244 301.727125 304.056192 303.706342 305.597077 306.849923
11.555243 299.529616 302.624535 304.914535 304.525805 306.332141 307.616648
11.630243 301.400940 304.473958 306.432423 306.121034 307.816361 309.041120
11.705243 303.229939 306.110112 307.940213 307.708237 309.384704 310.581229
11.755243 304.478817 307.104331 308.838858 308.686059 310.237699 311.596744
11.805243 306.088287 308.348490 309.903582 309.734623 311.261191 312.597732
11.845243 306.868372 309.111566 310.656980 310.515617 312.012845 313.340030
11.885243 307.687939 309.839568 311.376494 311.274551 312.733735 314.085449
11.955243 308.732412 311.144411 312.590534 312.507514 313.941621 315.359108
11.995243 309.713037 311.941890 313.362801 313.280105 314.770084 316.138361
12.035243 310.639079 312.650871 314.137109 314.067165 315.555901 316.981369
12.085243 311.728199 313.656158 315.067005 315.042519 316.510051 317.917985
12.155243 313.259152 315.022242 316.536550 316.479799 317.939231 319.292373
12.195243 314.075544 315.947474 317.562946 317.508140 319.065042 320.427193
12.235243 315.261058 317.156279 318.856647 318.823028 320.499038 322.288908
12.275243 316.486931 318.819355 320.989699 320.861771 322.765449 324.729858
12.345243 321.502141 323.722452 326.205653 326.156560 328.686653 330.463850
12.385243 324.589485 326.331001 328.487531 328.322368 330.358267 331.504153
12.425243 326.485201 328.427638 330.307272 330.146467 331.805029 332.901007
12.465243 329.448521 331.035169 332.342559 332.299767 333.565938 334.740910
12.505243 331.996805 333.150767 334.384661 334.441528 335.721135 337.076745
12.555243 333.671868 334.723353 336.024447 336.055955 337.377213 338.723863
12.595243 334.603760 335.816726 337.166899 337.173945 338.424247 339.959188
12.625243 335.623206 336.895179 338.214448 338.265851 339.657030 341.345049
12.675243 336.855115 338.153518 339.703053 339.769799 341.244391 343.148771
12.725243 338.001909 339.323237 341.050492 341.062483 342.733886 344.488803
12.775243 338.802104 340.382733 342.245097 342.258688 344.044127 345.804611
12.825243 339.716120 341.392355 343.383750 343.346504 345.226079 346.985361
12.875243 340.716008 342.521384 344.372838 344.385634 346.247606 347.997728
12.925243 341.617100 343.554623 345.440943 345.400969 347.183063 348.934541
12.975243 342.613712 344.572662 346.504593 346.418307 348.198942 350.124902
13.025243 343.688522 345.512781 347.462044 347.391302 349.159308 351.177024
13.140243 345.909816 347.677413 349.592175 349.537856 351.234687 353.419390
13.255243 347.966822 349.908993 351.685908 351.662782 353.385753 355.460947
13.295243 348.751393 350.743852 352.487544 352.474866 354.193815 356.279168
13.345243 349.677255 351.859923 353.469777 353.472278 355.120070 357.279044
13.395243 350.618831 352.906160 354.460257 354.475628 356.100135 358.147647
13.455243 351.786940 354.064069 355.633452 355.624448 357.252830 359.308859
13.495243 352.828755 354.887855 356.369918 356.408737 357.983687 359.970786
13.545243 353.806231 355.845198 357.288410 357.345741 358.982733 360.806420
13.595243 354.620968 356.749910 358.292391 358.327982 360.000698 361.743967
13.655243 355.895003 357.890589 359.448801 359.458501 361.159327 362.942163
13.705243 357.022453 358.854425 360.394941 360.393408 362.125732 363.912654
13.745243 357.967273 359.622066 361.190973 361.179022 362.922581 364.593955
13.785243 358.796594 360.404047 361.858967 361.947648 363.632539 365.228814
13.855243 360.223446 361.615290 363.145771 363.254121 364.909402 366.711092
13.895243 361.093603 362.510983 363.907217 364.044821 365.688798 367.522994
13.925243 361.664037 363.126161 364.583728 364.697883 366.283378 368.133171
13.955243 362.421892 363.855488 365.332687 365.394179 366.911798 368.845570
14.075243 364.811213 366.321143 367.785295 367.907227 369.590158 371.507158
14.105243 365.451638 367.075437 368.494498 368.620804 370.341682 372.187574
14.135243 366.216329 367.727568 369.184543 369.347947 371.144006 372.827619
14.165243 366.999748 368.404227 369.937958 370.060179 371.882467 373.618884
14.195243 367.694943 369.059157 370.614342 370.780637 372.643043 374.323911
14.275243 369.545397 370.725436 372.539572 372.635129 374.612017 376.277439
14.285243 369.847472 370.970144 372.800151 372.902275 374.897645 376.623625
14.305243 370.346784 371.428995 373.339887 373.458605 375.463183 377.081294
14.315243 370.671289 371.720462 373.688338 373.751972 375.736102 377.627156
14.335243 371.090693 372.239542 374.297351 374.381300 376.459829 378.395747
14.345243 371.394155 372.501899 374.676906 374.690527 376.832035 378.730386
14.375243 372.123895 373.221286 375.558741 375.620315 377.864532 379.899015
14.395243 372.671746 373.820724 376.258919 376.248399 378.563677 380.684301
14.405243 372.885198 374.123788 376.556317 376.574680 378.868223 381.119807
14.445243 373.957975 375.490558 378.029368 378.049456 380.299017 382.793500
14.495243 375.243466 377.263794 379.790831 379.983574 382.742114 385.982583
14.535243 376.325445 378.856194 381.632987 381.729356 384.652401 388.117938
14.620243 379.699449 383.031655 386.593510 387.647010 393.322296 399.378007
14.705243 385.019113 388.200250 391.041504 393.713565 406.876727 411.177169
14.755243 389.152206 391.298136 393.618600 396.344142 409.806143 412.609780
14.785243 390.764527 392.670697 394.801204 397.534230 410.727686 413.422959
14.815243 392.251883 393.974134 395.962342 398.618206 411.293631 414.260742
14.845243 393.300759 395.164778 397.053744 399.668930 412.065398 414.921531
14.875243 394.618455 396.458258 398.453325 400.936200 412.677402 415.441072
14.961064 398.946749 409.433516 412.484779 411.574420 414.776796 416.855963
15.041064 412.368235 413.909237 415.358078 415.327447 416.825076 418.389786
15.051064 412.770574 414.284183 415.668007 415.651069 417.092423 418.564397
15.071064 413.405345 414.917775 416.233308 416.241136 417.609748 419.194529
15.081064 413.648981 415.232004 416.544602 416.518691 417.885160 419.417353
15.101064 414.204228 415.813295 417.110750 417.055608 418.380269 419.954649
15.111064 414.462573 416.063799 417.346471 417.307703 418.626278 420.273279
15.141064 415.209198 416.782624 418.052172 418.025476 419.389678 420.932050
15.185243 416.142638 417.650396 418.966096 418.942176 420.386554 421.817026
15.235243 417.097612 418.615956 420.007608 419.983783 421.489974 423.018011
15.285243 418.086893 419.668083 421.054227 421.038845 422.588528 424.013660
15.355243 419.617598 421.117993 422.519588 422.539324 424.092158 425.402369
15.435243 421.408466 422.877037 424.419917 424.360736 425.881723 427.095535
15.495243 423.053194 424.695825 426.217914 426.128820 427.506796 428.918487
15.555243 425.557896 426.886077 428.169273 428.254989 429.628088 431.535441
15.585243 426.463980 427.662959 429.023090 429.117561 430.531374 432.423274
15.635243 427.627619 428.825040 430.156229 430.267694 431.635608 433.678543
15.685243 428.545935 429.841334 431.123140 431.312277 432.789527 434.988816
15.735243 429.554168 430.795231 432.164465 432.371681 433.945180 436.630146
15.785243 430.674023 431.764234 433.279883 433.480441 435.160139 437.815189
15.835243 431.633686 432.856261 434.406403 434.745738 436.637507 439.525226
15.885243 432.886523 434.213342 436.029876 436.306510 438.452109 441.005114
15.945243 434.353639 436.372458 438.866219 438.940475 441.503671 444.279687
16.035243 437.172719 439.801584 442.630219 442.645248 445.497439 447.896160
16.095243 438.912105 441.536702 444.403562 444.308713 447.083698 449.523953
16.205243 441.330267 443.841242 446.648949 446.634503 449.454103 452.266273
16.255243 442.702899 445.034430 447.690705 447.771532 450.431653 453.513564
16.345243 444.485700 446.733585 449.474355 449.554089 452.342414 455.331688
16.405243 445.613880 447.783679 450.774439 450.765942 453.624908 456.601553
16.455243 446.642966 448.795962 451.859734 451.817724 454.774261 457.893307
16.505243 447.817166 449.748434 452.999978 452.916003 455.946326 459.254754
16.515243 448.178099 450.044775 453.219439 453.168362 456.270352 459.497596
16.546365 449.068101 450.717705 453.995381 453.972602 457.045245 460.213039
16.596365 450.290904 452.150521 455.387169 455.373963 458.342720 462.202921
16.646365 451.635831 453.575253 456.993926 456.970133 460.070231 463.772025
16.746365 454.165674 456.976439 460.717311 460.684312 464.268128 467.144983
16.806365 456.083862 458.945810 462.931531 462.811182 466.443481 469.332470
16.846365 456.917813 460.216817 464.224781 464.101470 467.823693 470.254597
16.896365 458.588804 461.810792 465.767174 465.599929 469.192601 471.678196
16.946365 460.037458 463.423112 467.318444 467.032865 470.513554 472.867243
16.996365 461.625796 464.992794 468.716234 468.494728 471.850719 474.477161
17.036365 462.690979 466.172575 470.038937 469.635745 472.850325 475.300755
17.086365 464.106822 467.793016 471.320978 471.003318 474.094730 476.282485
17.136365 465.932935 469.412126 472.659257 472.394712 475.219355 477.591019
17.186365 467.396074 471.065850 474.072695 473.797734 476.516865 478.593944
17.296365 471.779922 474.903173 477.278331 477.048341 479.184902 480.979183
17.396365 476.519766 478.442183 480.307046 480.185447 481.835532 483.470380
17.446365 478.689747 480.248244 481.855677 481.835469 483.338938 484.784367
17.476365 479.699853 481.134436 482.725458 482.672220 484.235866 485.532195
17.596365 482.143053 483.833564 485.378938 485.360862 486.870960 488.511771
17.636365 483.104798 484.674127 486.312313 486.266370 487.784912 489.479821
17.666365 483.802495 485.380943 486.967753 486.958629 488.457050 490.166507
17.781365 486.121902 487.725014 489.348607 489.340210 490.979275 492.470454
17.896365 488.481703 490.140001 491.725869 491.751539 493.355289 494.924940
17.946365 489.335539 491.326149 492.948584 492.925871 494.507179 496.378470
18.016365 491.057542 493.019842 494.677820 494.703881 496.397059 498.520047
18.066365 492.311557 494.377755 496.250272 496.206842 498.046770 500.047856
18.116365 493.506177 495.585681 497.621946 497.604106 499.551489 501.359311
18.166365 494.537452 496.908896 498.987302 499.025452 501.060955 502.853876
18.256365 497.467282 499.734108 501.835105 501.846829 503.577626 505.429329
18.286365 498.610010 500.969782 503.023236 502.975322 504.674991 506.572642
18.346365 501.792637 503.925508 505.541738 505.684805 507.143920 509.517461
18.386365 503.927379 505.657228 507.081934 507.374609 508.879990 511.274771
18.426365 505.596628 507.045092 508.469633 508.827467 510.264404 512.638014
18.466365 506.899583 508.104656 509.693296 510.034284 511.599935 514.095337
18.506365 507.962255 509.184305 510.781904 511.242268 512.832911 517.021210
18.546365 508.910471 510.159668 511.810824 512.421842 514.107624 519.747988
18.586365 509.723014 511.135086 512.990844 513.666309 515.647580 523.971085
18.626365 510.813842 512.202603 514.298969 515.105187 517.570692 526.590330
18.666365 511.703254 513.349003 515.867708 516.767036 519.647857 528.406124
18.756365 513.575708 516.155915 524.612912 523.564901 529.700429 533.187907
18.796365 514.577817 517.650639 526.830105 525.484122 531.341162 534.628815
18.836365 515.576767 519.316276 528.841613 527.261766 532.766919 535.699813
18.876365 517.012193 521.682061 530.416474 528.915630 533.896272 537.168503
18.946365 519.656363 527.430085 533.014136 531.979312 535.926788 539.446056
19.026365 523.623197 531.797762 535.640827 535.059469 538.161757 541.508295
19.066365 525.256278 533.446178 536.821722 536.357338 539.432085 542.677246
19.096365 526.571479 534.275906 537.701423 537.238121 540.307085 543.485051
19.176365 529.116124 536.537558 539.796631 539.392586 542.422834 545.253942
19.256365 531.337956 538.823681 541.944241 541.557737 544.599434 547.431462
19.366365 534.694212 541.848285 544.791564 544.432433 547.419935 550.137709
19.386365 535.868191 542.498212 545.347772 545.028076 547.993664 550.709807
19.436365 537.891695 544.172223 546.741145 546.486907 549.306677 551.975886
19.486365 539.811216 545.628844 548.105523 547.890321 550.606497 553.162493
19.556365 543.612810 547.753336 550.053818 549.907047 552.361121 554.559285
19.606365 546.427408 549.505469 551.600757 551.501389 553.698607 555.961462
19.646365 548.223718 550.911736 552.933693 552.841229 554.913399 557.222830
19.686365 549.813574 552.252301 554.368644 554.318108 556.431060 558.457111
19.756365 553.370381 554.972717 556.985921 557.044583 559.081609 561.097119
19.806365 555.266946 556.984557 558.956789 559.071410 561.346464 563.383392
19.866365 557.389894 559.172498 561.326660 561.421667 563.608020 565.920114
19.916365 559.323511 561.359397 563.485672 563.557096 565.780401 567.815150
19.946365 560.667569 562.650735 564.825573 564.865961 567.060017 569.083688
19.996365 562.444076 564.558075 566.889995 566.769095 568.894041 571.140049
20.056365 564.647232 566.804974 568.998751 569.006746 570.942790 573.324773
20.086365 565.887502 568.216928 570.295774 570.347053 572.312469 574.966250
20.116365 567.112024 569.803634 571.848757 571.842603 573.755766 576.548837
20.256365 573.625149 576.216738 578.189934 578.625541 580.839923 586.667659
20.306365 577.559657 580.027349 582.722791 583.074280 586.020810 590.272449
20.356365 580.301524 582.858824 586.081496 586.394926 590.020198 594.207966
20.446365 584.602445 587.676360 591.629788 591.765087 595.874617 599.346291
20.536365 589.499999 592.737647 596.835423 596.727419 600.630966 603.192833
20.586365 591.926707 595.575192 599.796162 599.407794 603.034801 605.727555
20.666365 595.913161 600.404736 603.853835 603.371660 606.381303 608.340761
20.716365 598.920048 603.207047 606.313925 605.886681 608.556215 610.299268
20.766365 601.595839 606.010370 608.466426 608.137363 610.399489 612.005713
20.816365 604.403960 608.456064 610.591687 610.257135 612.274188 613.709880
20.866365 606.317274 610.376128 612.393036 612.147324 614.145636 615.406435
20.896365 607.389309 611.660079 613.685524 613.345254 615.311095 616.655498
20.926365 608.344382 612.947233 614.865776 614.536912 616.425454 617.734216
20.956365 610.009694 613.989254 615.927699 615.607422 617.482877 618.972586
20.986365 611.438447 614.932470 616.937807 616.672842 618.575064 620.132312
21.099263 616.194802 618.267607 620.158007 620.247565 622.217917 624.434009
21.149263 618.775213 620.636479 622.844229 623.181262 625.424900 631.008808
21.179263 623.646333 625.462212 627.750441 628.115671 630.949096 634.131343
21.189263 624.551205 626.175469 628.529548 628.888582 631.703225 634.873849
21.209263 625.752465 627.484101 630.314387 630.501902 633.483655 636.796394
21.219263 626.334800 628.147753 630.957816 631.165187 634.082962 637.293830
21.239263 627.651794 629.622606 632.504910 632.617729 635.580990 638.579520
21.249263 628.257986 630.357319 633.241272 633.331109 636.341127 639.279738
21.299263 632.509923 635.453745 638.846607 639.144275 643.243198 646.405921
21.309263 633.330013 636.096704 639.395756 639.823299 643.949408 646.957165
21.329263 634.687363 637.637374 640.594690 641.181292 645.436167 648.243302
21.339263 635.186417 638.340531 641.166072 641.810668 646.163534 649.048391
21.359263 636.393345 639.681134 642.473415 643.251240 647.919045 650.529465
21.369263 637.127043 640.378719 643.038799 643.895441 648.616130 651.109921
21.389263 638.298341 641.532400 644.297757 645.364930 650.292111 652.994742
21.399263 638.790801 642.034633 644.834862 645.959659 650.919600 653.603162
21.409263 639.401122 642.507475 645.534761 646.547358 651.520558 654.215798
21.419263 639.989306 643.083781 646.131020 647.105452 652.096677 654.762731
21.429263 640.556756 643.632241 646.750110 647.664249 652.594104 655.382829
21.449263 641.456226 644.714906 648.150374 648.823555 653.673015 656.660252
21.459263 642.085430 645.263143 648.870741 649.442184 654.291293 657.063912
21.499263 646.658015 650.137900 653.946846 653.847217 657.463942 660.409121
21.509263 647.149551 650.888826 654.614284 654.492014 658.032409 660.862346
21.529263 648.763849 652.190643 655.816236 655.742974 659.152700 662.459270
21.539263 649.522330 652.856610 656.450995 656.336084 659.639243 663.095418
21.549263 650.407799 653.563077 656.959411 656.969788 660.383604 663.969866
21.579263 652.303347 655.529739 659.081821 659.031622 662.443493 665.671621
21.609263 654.312581 657.720504 661.020191 661.031366 664.544334 667.503313
21.639263 656.141913 659.403740 662.992194 662.897409 666.382354 669.233760
21.699263 660.834953 663.683103 667.080625 666.919294 670.029281 671.998663
21.729263 662.714022 665.584465 668.748005 668.590939 671.589252 673.442456
21.759263 664.643730 667.629621 670.527687 670.266553 672.828536 674.627799
21.789263 666.469534 669.451066 672.102545 671.861851 674.135414 675.552006
21.819263 668.569089 671.182690 673.657181 673.310570 675.305507 676.529755
21.849263 670.400972 672.875669 675.018223 674.751470 676.490086 677.664617
21.899263 673.323564 675.456790 677.071111 676.874233 678.340781 679.382257
21.909263 673.778164 676.000450 677.455288 677.285549 678.700481 679.702187
21.929263 674.858572 676.782110 678.157155 678.030527 679.334302 680.421935
21.939263 675.345704 677.176853 678.517804 678.405467 679.650720 680.740044
21.959263 676.124778 677.903168 679.116034 679.067529 680.287065 681.472138
21.989263 677.288170 678.861380 680.062548 680.014380 681.219952 682.414510
22.019263 678.178060 679.789434 680.997809 680.943645 682.091920 683.268899
22.049263 679.115816 680.746938 681.860984 681.847657 683.013489 684.134005
22.079263 680.018967 681.634034 682.787304 682.745332 683.897405 685.147029
22.099263 680.562681 682.256982 683.353930 683.364309 684.453335 685.849107
22.129263 681.501818 683.117609 684.223766 684.228864 685.377973 686.771909
22.229263 684.081586 685.428863 686.528427 686.576594 687.835203 689.122627
22.269263 685.128924 686.562458 687.628112 687.694682 689.012022 690.177232
22.279263 685.510833 686.871209 687.970353 688.035397 689.322931 690.561336
22.299263 686.068139 687.506399 688.583799 688.665822 689.974746 691.181404
22.309263 686.377777 687.804053 688.906924 688.983834 690.300003 691.538560
22.339263 687.199987 688.655444 689.744282 689.834056 691.181360 692.393127
22.429263 689.083393 690.551685 692.071158 691.978190 693.392876 694.547181
22.519263 691.181996 692.659075 694.166999 694.070201 695.520542 696.508630
22.594263 693.021287 694.561054 696.195936 695.980211 697.297060 698.160159
22.669263 694.839434 696.708050 698.298140 698.012264 699.282140 699.621442
22.679263 695.215204 697.060420 698.653818 698.379400 699.660135 699.949168
