depth(m) lower_95(kyr) lower_68(kyr) median(kyr) mean(kyr) upper_68(kyr) upper_95(kyr)
88.017000 297.152155 301.466483 303.780584 303.384783 305.437350 307.475632
88.146667 297.504806 301.904824 304.199939 303.770502 305.752213 307.717174
88.276333 297.925140 302.253269 304.614084 304.138669 306.062878 308.094654
88.406000 298.497727 302.578920 304.959481 304.500195 306.388231 308.474891
88.542364 298.974046 303.021462 305.319701 304.868638 306.685118 308.827432
88.678727 299.520795 303.402517 305.710612 305.233349 307.017116 309.167950
88.815091 299.851201 303.847995 306.032441 305.586584 307.353767 309.628540
88.951455 300.353965 304.263689 306.347693 305.943961 307.658184 309.947448
89.087818 300.698575 304.649214 306.690347 306.293684 307.934875 310.315064
89.224182 301.194821 304.995376 306.978709 306.637160 308.301024 310.706334
89.360545 301.644599 305.366797 307.291041 306.986735 308.623045 311.102254
89.496909 302.004966 305.687166 307.616985 307.321460 308.887178 311.486282
89.633273 302.618669 306.020373 307.969401 307.658516 309.187902 311.785972
89.769636 302.960704 306.394662 308.295495 307.977976 309.460829 312.097696
89.906000 303.486063 306.730632 308.580040 308.297315 309.789487 312.365722
90.033714 303.881342 307.011319 308.853246 308.585821 310.093344 312.640734
90.161429 304.336720 307.302077 309.122903 308.878180 310.381603 312.926465
90.289143 304.628036 307.570325 309.381726 309.170944 310.718088 313.252192
90.416857 304.901936 307.848350 309.661407 309.455162 310.985206 313.501439
90.544571 305.145073 308.123672 309.938552 309.735858 311.282568 313.714912
90.672286 305.521251 308.357049 310.205979 310.001450 311.524087 313.985191
90.800000 305.834297 308.624857 310.442134 310.270909 311.797005 314.266815
90.940250 306.396185 308.894807 310.714804 310.560528 312.109649 314.648508
91.080500 306.677835 309.202923 310.999264 310.848504 312.377163 314.931129
91.220750 306.966073 309.517830 311.301903 311.141422 312.685564 315.217713
91.361000 307.308591 309.817102 311.572552 311.434179 312.937229 315.559611
91.501250 307.669505 310.138416 311.849691 311.737988 313.225160 315.810678
91.641500 308.057731 310.448195 312.123919 312.038458 313.572008 316.102608
91.781750 308.378030 310.741617 312.381112 312.330395 313.882056 316.421054
91.922000 308.766068 310.996641 312.634901 312.626924 314.165700 316.718222
92.062250 309.116651 311.289697 312.933186 312.926154 314.523278 317.045610
92.202500 309.497534 311.584813 313.222307 313.222462 314.849179 317.287360
92.342750 309.780033 311.868852 313.499155 313.516455 315.153096 317.514742
92.483000 310.112371 312.164540 313.809373 313.819569 315.496925 317.886034
92.623250 310.401415 312.410779 314.063521 314.119934 315.833678 318.220273
92.763500 310.667967 312.703873 314.353314 314.432095 316.180555 318.551433
92.903750 310.992669 313.008250 314.625749 314.750988 316.502471 318.900478
93.044000 311.291013 313.357028 314.970699 315.059134 316.864279 319.206198
93.184250 311.625683 313.690460 315.300740 315.376871 317.235322 319.494351
93.324500 312.074270 313.990952 315.595815 315.710110 317.579579 319.759642
93.464750 312.299866 314.282307 315.913480 316.047175 317.893951 320.096884
93.605000 312.778049 314.698006 316.242944 316.400088 318.301620 320.393821
93.697500 313.028012 314.954776 316.489910 316.651826 318.520558 320.593264
93.790000 313.307917 315.166891 316.785815 316.915008 318.785653 320.760505
93.922000 313.671203 315.603213 317.211602 317.328776 319.136941 321.080038
94.054000 314.102325 316.065892 317.639859 317.735665 319.567055 321.412418
94.186000 314.522623 316.493593 318.096630 318.159249 320.013443 321.734189
94.317286 315.060039 316.967415 318.521685 318.618823 320.447758 322.119812
94.448571 315.565715 317.371821 319.069012 319.099971 320.939169 322.535551
94.579857 316.262129 317.885845 319.584026 319.593832 321.483866 322.946256
94.711143 316.734566 318.383740 320.086289 320.104509 321.980780 323.388298
94.842429 317.242905 318.957020 320.640950 320.633048 322.496269 323.817332
94.973714 317.666720 319.515421 321.187092 321.170668 322.929891 324.351847
95.105000 318.124337 320.020904 321.741649 321.703648 323.453784 324.862605
95.207000 318.359729 320.420917 322.164366 322.122163 323.813939 325.382608
95.309000 318.695651 320.846661 322.643784 322.552332 324.257796 325.736117
95.411000 319.071037 321.263881 323.092231 323.009471 324.805143 326.320284
95.545200 319.507547 321.670800 323.624882 323.568366 325.445429 326.967282
95.679400 320.230752 322.157002 324.271799 324.177130 326.196737 327.931801
95.813600 320.751770 322.684992 324.798806 324.754227 326.766712 328.580050
95.947800 321.227935 323.212317 325.302860 325.347120 327.455499 329.189296
96.082000 321.763300 323.839612 325.928121 325.943205 328.140703 329.732640
96.216200 322.347810 324.416540 326.502329 326.541887 328.652842 330.403449
96.350400 322.967168 324.976713 327.207991 327.162088 329.276784 331.069330
96.484600 323.635572 325.611766 327.839826 327.793855 329.908345 331.623880
96.618800 324.054254 326.347618 328.569961 328.447501 330.533959 332.233229
96.753000 324.746358 327.088916 329.262905 329.130968 331.165015 332.849333
96.890667 325.359246 327.690219 329.990093 329.884584 331.926374 333.704346
97.028333 326.154969 328.475497 330.822370 330.688929 332.676355 334.421680
97.166000 327.068100 329.281189 331.646871 331.475761 333.478754 335.345404
97.303667 327.952962 330.134026 332.407825 332.258779 334.270062 336.016060
97.441333 328.857382 331.097572 333.124690 333.069404 335.014268 336.792758
97.579000 329.708084 331.887246 333.988293 333.888322 335.807226 337.568603
97.716667 330.738714 332.762973 334.784157 334.694635 336.508974 338.767316
97.854333 331.944949 333.649872 335.498974 335.521248 337.334314 339.644165
97.992000 332.801611 334.458782 336.342048 336.335086 338.115664 340.604619
98.129667 333.745159 335.320128 337.099574 337.170476 338.828680 341.555895
98.267333 334.542905 336.122011 337.835792 337.933135 339.525406 342.632740
98.405000 335.467129 336.968601 338.639484 338.717428 340.158712 343.453476
98.519333 335.971535 337.612886 339.264443 339.333709 340.768067 344.378970
98.633667 336.607039 338.188785 339.852482 339.940086 341.409617 345.061815
98.748000 337.113487 338.787730 340.440866 340.529241 342.064063 345.594777
98.870600 337.668691 339.360957 341.033424 341.100843 342.643948 345.958745
98.993200 338.089261 339.904047 341.543601 341.650724 343.287536 346.550199
99.115800 338.644004 340.400839 342.111726 342.209514 343.809735 347.088626
99.238400 339.254389 340.994472 342.613614 342.735764 344.398462 347.669599
99.361000 339.854601 341.447997 343.151407 343.243804 344.992401 348.089089
99.478250 340.157823 341.850259 343.649498 343.726037 345.421837 348.522561
99.595500 340.490884 342.317017 344.050813 344.165430 345.810813 348.923164
99.712750 340.933615 342.758345 344.481540 344.620477 346.331910 349.256980
99.830000 341.288391 343.207285 344.905378 345.059440 346.831424 349.682497
99.967273 341.837915 343.629794 345.413432 345.554119 347.457142 350.219006
100.104545 342.259317 344.096430 345.914085 346.036632 347.936841 350.701250
100.241818 342.643256 344.587037 346.392710 346.547982 348.526062 351.031473
100.379091 343.002026 345.030017 346.906707 347.029743 349.117766 351.446300
100.516364 343.369112 345.484488 347.446015 347.525634 349.674442 351.966601
100.653636 343.686402 345.948696 348.009258 348.018239 350.233882 352.441646
100.790909 344.121500 346.340703 348.490727 348.510806 350.748231 352.984682
100.928182 344.463337 346.726805 349.065347 348.982998 351.260967 353.627102
101.065455 344.724768 347.101678 349.516706 349.449724 351.749644 353.960966
101.202727 345.098286 347.504287 350.021284 349.919853 352.325126 354.441571
101.340000 345.452657 347.841240 350.488057 350.369800 352.825535 354.892630
101.484000 346.038278 348.256851 350.968894 350.833589 353.330113 355.379409
101.628000 346.365119 348.618783 351.484663 351.297252 353.758065 355.873635
101.772000 346.522068 349.022515 351.938590 351.749924 354.234521 356.299069
101.916000 346.863901 349.420220 352.418110 352.205246 354.729367 356.689597
102.060000 347.373180 349.822188 352.890187 352.664934 355.116587 357.052904
102.204000 347.643565 350.182567 353.360410 353.119807 355.564693 357.549611
102.348000 347.970782 350.633240 353.841635 353.575005 355.989826 357.912802
102.492000 348.403116 351.023873 354.382348 354.026300 356.414424 358.296091
102.636000 348.710187 351.432251 354.824272 354.485058 356.940931 358.763080
102.780000 349.143159 351.830272 355.306518 354.929891 357.450076 359.175237
102.890500 349.338252 352.146904 355.670051 355.272048 357.801544 359.496475
103.001000 349.777923 352.533234 355.973377 355.603998 358.119897 359.855300
103.111000 350.000478 352.849776 356.370018 355.958660 358.482609 360.302323
103.220667 350.420532 353.326576 356.748121 356.311038 358.832458 360.685258
103.330333 350.824422 353.740182 357.105581 356.656845 359.204683 361.105907
103.440000 351.242640 354.119770 357.481600 357.003962 359.612389 361.321984
103.545333 351.691397 354.555765 357.846564 357.332610 359.878124 361.573103
103.650667 352.028673 354.998812 358.182965 357.662600 360.226784 361.953672
103.756000 352.397601 355.450796 358.470977 357.981822 360.528685 362.125590
103.889545 352.820105 355.866584 358.821143 358.383098 360.878542 362.544796
104.023091 353.130044 356.367369 359.167945 358.796334 361.278635 362.964803
104.156636 353.397814 356.939050 359.562450 359.211515 361.602035 363.284779
104.290182 353.617214 357.420740 359.958224 359.636242 362.044967 363.647453
104.423727 353.871468 357.891626 360.384200 360.058981 362.447442 364.015397
104.557273 354.234086 358.258533 360.775837 360.469264 362.859725 364.453570
104.690818 354.759049 358.685808 361.151119 360.870982 363.187781 364.865461
104.824364 355.155285 359.100666 361.479346 361.264815 363.608940 365.375206
104.957909 355.477002 359.489616 361.878346 361.662044 364.055395 365.878665
105.091455 355.759258 359.870086 362.282741 362.063980 364.513139 366.246620
105.225000 356.137262 360.191445 362.642100 362.456640 364.980872 366.607937
105.256000 356.233470 360.270165 362.726601 362.552259 365.065368 366.722253
105.398000 356.732929 360.738588 363.146040 362.973697 365.397510 367.235171
105.540000 357.245385 361.220484 363.556888 363.390958 365.766606 367.779306
105.682000 357.792365 361.680071 363.974167 363.818678 366.180276 368.500489
105.824000 358.137789 362.019120 364.492581 364.250631 366.574392 369.143534
105.966000 358.667617 362.340617 364.860760 364.675232 366.963060 369.577301
106.108000 359.182975 362.772702 365.270767 365.086669 367.359023 370.156962
106.250000 359.924857 363.148283 365.681505 365.495235 367.798412 370.711723
106.392000 360.395312 363.483832 366.037390 365.898337 368.248307 371.083318
106.534000 360.818922 363.836506 366.418922 366.307545 368.674266 371.465219
106.676000 361.278262 364.194352 366.791540 366.694456 369.199719 371.876454
106.820833 362.047376 364.528573 367.127642 367.083430 369.599611 372.728041
106.965667 362.355634 364.909914 367.470078 367.451744 370.033383 373.132049
107.110500 362.479344 365.215710 367.798571 367.821191 370.437800 373.556949
107.255333 362.808565 365.536405 368.203519 368.186841 370.824688 373.888434
107.400167 363.333280 365.911934 368.519178 368.562179 371.220711 374.150661
107.545000 363.635717 366.289371 368.860117 368.943987 371.572784 374.797385
107.689833 363.905954 366.633308 369.171230 369.308571 371.957203 375.147616
107.834667 364.382627 366.912154 369.502785 369.682978 372.462608 375.718954
107.979500 364.758621 367.223351 369.832323 370.041401 372.887522 376.177682
108.124333 365.181794 367.585244 370.230863 370.403978 373.307448 376.465952
108.269167 365.508251 367.951981 370.525037 370.754695 373.654802 376.865627
108.414000 365.759150 368.235528 370.906028 371.106640 374.112575 377.374446
108.558833 366.238121 368.577611 371.229947 371.449045 374.438268 377.625717
108.703667 366.629607 368.871443 371.587858 371.795559 374.758323 378.131829
108.848500 367.167018 369.219896 371.939034 372.151268 375.108323 378.578480
108.993333 367.383464 369.560323 372.274010 372.492649 375.490014 378.946378
109.138167 367.724923 369.897952 372.574590 372.835103 375.863163 379.282249
109.283000 367.952932 370.212070 372.961233 373.176441 376.231990 379.730475
109.424421 368.340612 370.537416 373.322478 373.513732 376.542310 380.247146
109.565842 368.516332 370.840320 373.635317 373.842638 376.847093 380.445307
109.707263 368.821791 371.149598 373.988351 374.175371 377.231202 380.735091
109.848684 369.063047 371.477626 374.333542 374.512938 377.584491 381.034827
109.990105 369.345846 371.779216 374.654147 374.844773 377.859326 381.360323
110.131526 369.654927 372.092524 374.937926 375.155757 378.146871 381.665246
110.272947 369.983287 372.477608 375.290016 375.492683 378.522161 381.923423
110.414368 370.272758 372.850750 375.632261 375.810484 378.850182 382.197492
110.555789 370.635941 373.125341 375.980415 376.139510 379.202704 382.433699
110.697211 370.939833 373.477510 376.267075 376.473357 379.587888 382.740035
110.838632 371.239551 373.826577 376.523866 376.807426 379.913597 383.145036
110.980053 371.510644 374.191755 376.904567 377.145147 380.213170 383.388724
111.121474 371.829653 374.556400 377.249842 377.480037 380.538984 383.769897
111.262895 372.241636 374.827572 377.625373 377.828451 380.927581 384.407496
111.404316 372.551234 375.207409 377.963291 378.168503 381.270321 384.894869
111.545737 372.751277 375.608393 378.323921 378.505967 381.562004 385.221390
111.687158 372.992240 375.923185 378.667127 378.854713 381.937499 385.525379
111.828579 373.292191 376.257280 379.058360 379.202947 382.290536 385.825106
111.970000 373.583329 376.584449 379.402200 379.556658 382.663426 385.989356
112.115111 374.033484 376.925525 379.767952 379.921155 382.980501 386.347482
112.260222 374.491339 377.241210 380.131827 380.291348 383.303644 386.544929
112.405333 374.780435 377.609080 380.543426 380.665018 383.740517 386.818645
112.550444 375.091819 377.963729 380.881741 381.034076 384.126178 387.252312
112.695556 375.511907 378.369123 381.292294 381.414832 384.498810 387.621126
112.840667 375.865568 378.771275 381.734954 381.799882 384.852095 388.027556
112.985778 376.346833 379.157306 382.146722 382.186646 385.179202 388.362381
113.130889 376.631193 379.563223 382.544802 382.580245 385.527321 388.674916
113.276000 377.205264 379.934098 382.959034 382.972621 385.968435 389.031517
113.412364 377.658709 380.302478 383.381517 383.348921 386.245143 389.347308
113.548727 378.157712 380.662489 383.746873 383.740172 386.604213 389.682451
113.685091 378.568121 381.007523 384.130600 384.129329 386.992642 390.018818
113.821455 378.986902 381.346387 384.598386 384.506882 387.344470 390.359748
113.957818 379.510699 381.787915 384.950047 384.906085 387.778977 390.656832
114.094182 379.970002 382.258090 385.324814 385.318953 388.140729 390.933271
114.230545 380.527627 382.740563 385.724275 385.732194 388.508525 391.254179
114.366909 380.937600 383.208933 386.114546 386.147033 388.867372 391.645017
114.503273 381.445437 383.646551 386.542423 386.569362 389.365814 392.015157
114.639636 381.858830 384.151498 387.013856 386.998888 389.760765 392.417457
114.776000 382.269797 384.711950 387.436714 387.458269 390.215543 392.674751
114.918400 382.786916 385.224893 387.950637 387.927636 390.734258 393.097982
115.060800 383.293976 385.812639 388.428524 388.419827 391.143989 393.526581
115.203200 383.848341 386.320631 388.999580 388.927459 391.545360 393.796511
115.345600 384.233774 386.797407 389.481751 389.427341 392.053742 394.274806
115.488000 384.642278 387.483585 389.999337 389.967517 392.515473 394.866213
115.597333 384.899611 387.940426 390.469422 390.372518 392.929743 395.322479
115.706667 385.236172 388.383172 390.830236 390.767927 393.250380 395.658206
115.816000 385.457728 388.777414 391.240394 391.184408 393.742825 395.932712
115.932500 385.842352 389.164826 391.635248 391.608931 394.187941 396.313776
116.049000 386.170041 389.600616 392.083317 392.044778 394.572234 396.736271
116.165500 386.698143 389.977034 392.480334 392.463158 394.907992 397.148736
116.282000 387.166257 390.421755 392.892231 392.890050 395.346039 397.553065
116.417818 387.893580 390.896601 393.419384 393.407188 395.857886 398.095079
116.553636 388.400597 391.365477 394.028352 393.905957 396.286350 398.538674
116.689455 389.058591 391.859115 394.476568 394.400988 396.862406 399.249853
116.825273 389.892021 392.412065 394.995370 394.921565 397.309497 399.670109
116.961091 390.446646 392.891777 395.470166 395.427696 397.839389 400.306439
117.096909 391.245660 393.436489 395.976314 395.940462 398.331077 401.108542
117.232727 391.602881 394.044294 396.406948 396.448739 398.783073 401.585601
117.368545 392.186761 394.556937 396.890783 396.969168 399.292741 402.878607
117.504364 392.629815 395.104118 397.370524 397.501528 399.738830 403.870214
117.640182 393.130223 395.641073 397.799572 398.039683 400.220121 404.573530
117.776000 393.950605 396.162280 398.360710 398.583088 400.748514 405.514521
117.912364 394.596897 396.811269 398.873671 399.197473 401.429929 406.106526
118.048727 395.123254 397.429739 399.493856 399.853264 402.148724 407.285281
118.185091 395.839491 397.889630 400.176017 400.511732 402.910993 407.951034
118.321455 396.354640 398.499717 400.949765 401.195482 403.689338 408.468135
118.457818 397.042896 398.987580 401.660399 401.905633 404.499489 409.216458
118.594182 397.660839 399.547690 402.398984 402.662492 405.449945 410.200152
118.730545 398.353023 400.194652 403.292507 403.455713 406.272200 410.781201
118.866909 399.143569 400.897276 404.159265 404.306659 407.344073 411.644753
119.003273 399.914234 401.730810 405.021167 405.218614 408.332100 412.457842
119.139636 400.744806 402.657052 406.115851 406.148094 409.281107 413.271439
119.276000 401.504174 403.585517 407.110795 407.143373 410.304723 414.308086
119.356000 401.843566 404.206936 407.647958 407.708334 410.908832 414.822272
119.487111 402.992083 405.540759 408.832485 408.918519 412.098189 416.143961
119.618222 404.505352 407.099083 410.127377 410.249533 413.309036 416.976594
119.749333 406.079492 408.512553 411.523513 411.622441 414.674278 417.804324
119.880444 407.631435 409.766762 412.856495 412.989908 416.024011 419.269226
120.011556 409.198377 411.404898 414.328100 414.402851 417.368376 420.254525
120.142667 410.496396 412.948071 415.728178 415.806428 418.669350 421.570653
120.273778 411.921673 414.422630 417.211681 417.202405 419.972638 422.663751
120.404889 413.835610 416.006304 418.646909 418.598675 421.104330 423.559301
120.536000 415.130723 417.442523 419.927076 419.932331 422.440414 424.740819
120.659500 416.520537 418.531502 421.117659 421.115010 423.568643 425.836567
120.783000 417.575897 419.783315 422.415782 422.278395 424.614082 426.689296
120.906500 418.585581 421.114729 423.548375 423.409776 425.578778 427.796446
121.030000 419.738987 422.222389 424.652288 424.475769 426.630192 428.597612
121.164250 421.039386 423.402087 425.707807 425.616694 427.852766 429.628938
121.298500 422.081250 424.616628 426.787495 426.722095 428.892702 430.539580
121.432750 423.031480 425.798807 427.797747 427.787195 429.890958 431.716325
121.567000 424.255210 426.785646 428.845022 428.774961 430.733479 432.631414
121.704500 424.999240 427.727352 429.663166 429.612574 431.483664 433.336936
121.842000 425.881281 428.425382 430.469582 430.380889 432.338600 434.189583
121.981737 426.466628 429.046926 431.206006 431.090538 433.126834 435.310061
122.121474 426.872858 429.674656 431.811534 431.716750 433.725061 435.988674
122.261211 427.556371 430.195621 432.361372 432.331473 434.423885 436.759908
122.400947 428.165553 430.730607 432.904593 432.912226 435.058601 437.491574
122.540684 428.760600 431.189029 433.418295 433.488433 435.769016 438.156594
