depth(m) lower_95(kyr) lower_68(kyr) median(kyr) mean(kyr) upper_68(kyr) upper_95(kyr)
58.800000 3503.836877 3504.720593 3505.680122 3505.681219 3506.655995 3507.651325
58.880000 3505.596170 3506.733626 3508.226450 3508.711987 3510.515672 3515.282061
59.000000 3508.131670 3509.658426 3512.547954 3513.218665 3516.675655 3522.552905
59.100000 3510.275792 3512.155717 3516.378616 3516.877604 3521.409824 3527.010820
59.200000 3512.332634 3515.061096 3520.250349 3520.646317 3526.136869 3530.899643
59.300000 3514.557729 3518.032956 3524.425050 3524.383244 3530.375737 3535.197641
59.380000 3516.352676 3520.756850 3527.445989 3527.299749 3533.310650 3537.761284
59.490000 3518.829539 3524.408632 3531.240662 3531.052179 3537.217987 3541.826443
59.600000 3521.554981 3528.281546 3534.745370 3534.594479 3540.395672 3545.117927
59.690000 3523.910644 3531.307889 3537.873253 3537.461796 3542.767800 3547.672927
59.780000 3525.353768 3534.390725 3541.292158 3540.156979 3545.404328 3550.820154
59.785000 3525.419427 3534.516081 3541.514557 3540.308791 3545.545999 3551.030669
59.900000 3529.197775 3537.630471 3544.518226 3543.279300 3548.440049 3555.293387
59.980000 3531.855974 3539.412917 3546.426488 3545.306294 3550.418331 3558.807272
60.100000 3534.693424 3542.037366 3548.922566 3548.243950 3553.602028 3563.407790
60.180000 3536.502786 3543.940349 3550.700110 3550.251003 3555.509229 3567.197271
60.300000 3538.788022 3546.277500 3553.209790 3553.123271 3558.630621 3570.170264
60.425000 3541.667881 3549.254351 3555.944348 3556.233698 3562.225416 3575.002051
60.550000 3545.012379 3552.364449 3558.610919 3559.387905 3565.409143 3578.155946
60.675000 3547.777697 3555.477812 3561.433932 3562.570238 3569.156250 3582.639035
60.800000 3550.677868 3558.526257 3564.234962 3565.699700 3572.321906 3586.390929
60.900000 3552.532415 3560.790708 3566.361881 3568.230687 3575.603982 3589.260188
61.000000 3554.788429 3563.126761 3568.982981 3570.874482 3579.374033 3591.652216
61.100000 3556.625785 3565.554533 3571.597309 3573.538015 3582.499453 3594.194498
61.200000 3558.890161 3567.728185 3574.144780 3576.191586 3585.604937 3596.656489
61.280000 3560.812194 3569.346707 3576.459448 3578.329429 3588.124173 3598.925127
61.400000 3563.337291 3571.960904 3579.914720 3581.622136 3591.763622 3603.409088
61.480000 3564.704413 3573.702431 3582.451781 3583.937830 3594.480750 3606.637438
61.600000 3567.177126 3576.382559 3586.091126 3587.252343 3598.300478 3611.181516
61.695000 3568.557902 3578.492973 3588.431296 3589.843213 3600.670391 3614.095213
61.790000 3570.555074 3580.798975 3591.549067 3592.552588 3603.576282 3617.223694
61.870000 3572.182946 3582.499607 3594.115000 3594.820635 3605.892297 3621.586117
61.990000 3575.014337 3585.095740 3597.514398 3598.127987 3608.892362 3626.440710
62.090000 3577.249007 3587.144305 3600.356617 3600.935491 3611.895185 3630.853154
62.170000 3580.074722 3588.984825 3602.890721 3603.197348 3614.498028 3633.320958
62.300000 3583.369033 3591.764081 3607.176778 3607.137138 3619.217479 3639.266302
62.390000 3585.942925 3594.059870 3609.958769 3609.769016 3622.291514 3643.450172
62.485000 3588.075066 3595.976666 3612.808029 3612.711930 3626.307718 3645.637060
62.580000 3590.725913 3598.277402 3615.394329 3615.709337 3630.558606 3647.185321
62.690000 3593.355956 3601.216725 3618.077346 3619.125831 3636.000224 3654.614380
62.760000 3595.160746 3603.489170 3619.832261 3621.327336 3639.615413 3657.116426
62.890000 3598.647509 3607.321448 3623.180652 3625.323094 3643.466303 3661.369717
62.970000 3600.278471 3609.981084 3625.240728 3627.823198 3647.194862 3663.414262
63.090000 3603.062254 3613.964151 3628.256540 3631.625253 3653.009012 3667.366335
63.180000 3604.763765 3617.434917 3631.097262 3634.753871 3657.948712 3670.057665
63.300000 3607.515275 3620.933202 3634.430839 3638.725077 3662.830093 3675.904801
63.400000 3609.415204 3623.972322 3637.871839 3641.993888 3666.083214 3680.869049
63.490000 3611.185028 3626.310591 3641.311388 3645.024226 3669.828470 3686.097441
63.600000 3613.138799 3628.895875 3645.212244 3648.472674 3674.260603 3689.927717
63.700000 3616.310270 3631.869196 3648.964925 3651.607880 3676.756716 3695.625676
63.800000 3618.366623 3634.109908 3651.674014 3654.565209 3679.565794 3699.074921
63.900000 3621.114191 3636.997064 3654.551609 3657.558218 3681.764851 3702.742241
64.000000 3623.063513 3640.242982 3657.456381 3660.671159 3684.623808 3705.211025
64.135714 3626.254462 3643.618032 3661.924385 3664.670303 3688.477374 3708.619097
64.271429 3628.551769 3646.792409 3665.930991 3668.722469 3693.109521 3713.153005
64.407143 3631.653158 3650.024290 3670.303824 3672.672652 3696.452022 3718.224076
64.542857 3634.360793 3652.878318 3673.847476 3676.791144 3701.551301 3722.367906
64.678571 3637.305152 3655.808049 3678.382147 3680.892043 3706.787062 3728.759791
64.814286 3639.839274 3658.723822 3683.176585 3685.128262 3711.702191 3734.175328
64.950000 3643.369265 3661.925209 3687.543969 3689.434435 3716.439039 3742.843387
65.085714 3646.378616 3665.179793 3691.498468 3693.653530 3720.664119 3749.590591
65.221429 3649.832954 3667.494910 3695.699898 3697.652220 3724.445760 3754.351947
65.357143 3654.412793 3671.194172 3699.598953 3701.803036 3728.854389 3761.966770
65.492857 3657.406418 3674.405233 3703.856200 3706.092841 3733.604627 3768.851330
65.628571 3659.919431 3677.138204 3707.598000 3710.408421 3738.251848 3775.919217
65.764286 3662.338234 3680.399750 3712.333313 3714.910000 3743.024469 3785.343436
65.900000 3664.581691 3683.961161 3716.392652 3719.358928 3748.576428 3792.361487
66.033333 3667.030570 3687.916593 3721.396793 3723.920031 3753.555798 3799.598451
66.166667 3669.805591 3692.936843 3728.415820 3728.367823 3758.366005 3809.508961
66.300000 3672.376350 3697.743992 3734.543065 3733.002010 3764.228558 3813.496026
66.433333 3675.163614 3702.181243 3739.520871 3737.557721 3771.092035 3815.700311
66.566667 3678.199620 3706.113801 3743.832216 3742.312084 3777.172357 3820.512064
66.700000 3681.337667 3710.800904 3748.199601 3747.296502 3783.219198 3824.088442
66.840000 3684.701164 3716.005368 3753.427973 3752.535264 3789.507647 3829.318670
66.980000 3687.253233 3721.579625 3758.714952 3757.720613 3794.210908 3833.998405
67.120000 3691.746872 3726.591273 3763.948709 3763.070069 3800.043230 3837.111064
67.260000 3695.672065 3731.492023 3769.625586 3768.492903 3805.010463 3840.627918
67.400000 3700.575366 3736.257690 3775.371813 3773.710284 3810.776346 3844.285055
67.533333 3703.826112 3740.762858 3780.018258 3778.586500 3816.966793 3846.960572
67.666667 3707.271144 3746.006237 3784.704683 3783.525964 3821.953332 3850.500920
67.800000 3710.173984 3750.310898 3790.013029 3788.488075 3826.898304 3854.252122
67.933333 3715.264703 3754.909912 3796.930866 3793.607334 3832.809664 3860.152358
68.066667 3718.705607 3759.620828 3802.007030 3798.652691 3838.143305 3863.707306
68.200000 3722.858972 3764.111607 3805.705799 3803.581294 3843.144414 3867.702199
68.340000 3727.243918 3770.013317 3812.686266 3809.188235 3848.561573 3872.636373
68.480000 3731.025508 3774.897290 3817.906565 3814.804018 3854.182516 3878.606507
68.620000 3734.155821 3780.327926 3823.556651 3820.139405 3860.417442 3881.795519
68.760000 3737.654587 3786.636653 3828.765922 3825.525837 3865.092202 3887.017561
68.900000 3741.891263 3791.849450 3835.146225 3830.991868 3870.447174 3890.748927
69.033333 3745.853529 3796.491505 3841.029369 3836.042771 3874.621044 3896.889767
69.166667 3749.491400 3799.997481 3846.943505 3841.111924 3878.768039 3901.607897
69.300000 3753.234148 3804.479033 3852.695358 3845.981154 3882.843893 3906.843101
69.433333 3759.595255 3807.344873 3857.409460 3850.978232 3888.118903 3912.351438
69.566667 3766.272546 3813.347384 3862.597697 3855.969372 3892.780159 3918.608846
69.700000 3772.523644 3816.909993 3867.621753 3860.942877 3898.078341 3921.556573
69.840000 3777.211276 3820.961448 3874.288629 3866.116531 3903.306046 3925.039938
69.980000 3781.749621 3825.698246 3879.837574 3871.256034 3908.053028 3932.676062
70.120000 3787.070684 3829.741030 3885.157601 3876.412780 3912.207969 3937.254484
70.260000 3791.678179 3835.314826 3891.272801 3881.576103 3916.730622 3942.640497
70.400000 3796.751883 3840.916817 3898.036376 3886.610818 3921.983862 3946.067361
70.523333 3801.230180 3844.873636 3902.360236 3891.006550 3926.231150 3950.093397
70.646667 3805.694719 3851.640797 3906.985768 3895.434913 3931.313671 3955.644772
70.770000 3811.320525 3857.065860 3911.429825 3899.801371 3934.769882 3960.572469
70.913333 3816.594043 3861.557311 3916.585087 3904.792956 3938.846873 3964.753259
71.056667 3821.370195 3866.885724 3920.317715 3909.719348 3944.759470 3969.034937
71.200000 3829.008044 3871.059723 3924.824414 3914.667810 3950.023107 3972.969518
71.340000 3834.261121 3874.777793 3929.602505 3919.442971 3954.108536 3976.623812
71.480000 3839.851515 3880.003353 3933.839096 3924.227111 3959.358995 3979.697736
71.620000 3844.758628 3884.797223 3939.820890 3929.166103 3963.839526 3985.477968
71.760000 3847.861737 3888.730807 3945.116341 3933.832206 3968.166639 3991.537989
71.900000 3851.036713 3893.309062 3949.531983 3938.749944 3973.846779 3993.529691
72.033333 3854.190462 3897.630118 3953.563866 3943.292405 3979.174203 3998.929551
72.166667 3860.275132 3901.704379 3957.506204 3947.749364 3983.690375 4003.906898
72.300000 3864.987805 3905.413903 3962.118113 3952.189460 3987.336722 4008.319525
72.433333 3867.857439 3908.752870 3966.770307 3956.637232 3991.950869 4012.377610
72.566667 3872.819943 3913.335476 3970.327003 3960.943283 3996.326104 4015.711234
72.700000 3876.838468 3916.552656 3973.519974 3965.117620 3999.908794 4022.289681
72.840000 3882.582676 3921.720119 3977.391660 3969.565620 4004.387401 4026.134824
72.980000 3887.619223 3926.052877 3981.080618 3973.969726 4008.183622 4035.268840
73.120000 3893.611481 3931.127305 3985.025906 3978.233782 4012.473006 4040.600154
73.260000 3899.740928 3935.644445 3988.736337 3982.640806 4016.377289 4049.546370
73.400000 3907.485884 3941.185032 3991.928193 3986.934540 4019.694793 4052.429367
73.528000 3913.513201 3947.447415 3996.145298 3991.112938 4023.372205 4055.469419
73.656000 3919.221655 3952.940923 3999.458089 3994.914592 4026.538015 4057.453759
73.793000 3926.057941 3958.970601 4003.005892 3999.255698 4029.704234 4060.929386
73.930000 3933.039962 3966.145653 4006.772652 4003.659448 4033.597782 4068.741551
74.067000 3937.507036 3971.912156 4010.948747 4007.982358 4036.618318 4073.706169
74.204000 3942.586998 3976.985731 4014.669436 4012.285124 4039.839788 4080.389203
74.341000 3947.953427 3983.407595 4019.294619 4016.771784 4043.204600 4088.577642
74.478000 3954.768199 3989.390923 4023.434283 4021.051568 4046.941173 4095.171344
74.615000 3958.826562 3994.843273 4027.629228 4025.394585 4050.294761 4102.761572
74.752000 3963.366079 3999.594071 4031.320011 4029.629828 4053.709792 4105.921481
74.889000 3967.152731 4005.882749 4035.735227 4033.949691 4056.931372 4112.224816
75.026000 3972.052409 4010.311060 4040.048226 4038.138221 4060.189415 4117.206937
75.163000 3977.146913 4014.069619 4043.343486 4042.260398 4064.148716 4124.020118
75.300000 3980.511393 4019.362333 4046.706151 4046.257230 4067.740959 4130.260114
75.433333 3984.925084 4024.151196 4049.446949 4050.209785 4071.201118 4137.202108
75.566667 3991.063967 4027.931820 4052.623845 4054.152819 4075.221077 4142.874857
75.700000 3998.561088 4031.614675 4055.691899 4057.918773 4078.272188 4149.432042
75.833333 4005.885221 4036.558599 4058.570539 4061.897777 4082.684002 4152.454192
75.966667 4012.034607 4041.249563 4061.399958 4065.661196 4085.593926 4157.140079
76.100000 4017.927016 4046.064106 4064.486790 4069.396354 4087.751718 4162.407575
76.240000 4023.540152 4051.027019 4067.693507 4073.086937 4090.090303 4167.117572
76.380000 4029.339378 4055.416214 4070.913904 4076.990948 4092.942084 4169.647221
76.520000 4035.409838 4058.354024 4074.079366 4080.729127 4095.877522 4172.299726
76.660000 4040.083861 4063.217071 4077.294366 4084.600229 4098.955787 4176.723509
76.800000 4045.853708 4068.111611 4080.421016 4088.159775 4101.513074 4178.920314
76.933333 4050.103519 4071.680152 4083.692751 4091.654633 4104.390199 4183.428389
77.066667 4054.056172 4075.347013 4086.818424 4095.113577 4107.124026 4186.961134
77.200000 4058.331069 4078.708071 4089.555930 4098.560521 4110.190820 4189.921611
77.333333 4061.497419 4081.920679 4092.372477 4101.854383 4113.365488 4191.791702
77.466667 4065.589611 4085.449025 4095.211457 4105.168647 4115.394757 4194.554839
77.600000 4070.256706 4088.819732 4098.245561 4108.434296 4118.464207 4198.296141
77.700000 4072.669264 4091.280506 4100.439199 4110.745585 4120.351128 4200.460136
77.790000 4074.595527 4093.409025 4102.731626 4112.954352 4122.831630 4201.571569
77.880000 4077.755902 4095.201840 4104.896415 4114.968790 4124.424150 4204.282292
78.020000 4081.494757 4097.599717 4107.926686 4117.907513 4127.667768 4207.444470
78.160000 4085.286776 4099.875888 4110.979415 4120.707495 4130.545529 4211.465417
78.300000 4089.346180 4102.129182 4113.477703 4123.638182 4135.451043 4214.849634
78.433333 4092.562885 4104.420348 4116.027369 4126.483786 4138.650245 4218.344689
78.566667 4095.922240 4106.638420 4119.175698 4129.291847 4141.485337 4221.642656
78.700000 4099.650430 4108.843310 4121.867903 4132.149678 4145.661222 4225.521369
78.833333 4102.218426 4110.813104 4124.726616 4134.949576 4152.125944 4229.327085
78.966667 4104.668474 4112.825004 4127.438116 4137.789348 4158.125090 4232.777802
79.100000 4106.906076 4114.884689 4130.007984 4140.584189 4162.449302 4235.952810
79.220000 4109.353230 4116.909328 4132.630083 4143.281011 4169.254728 4240.144939
79.340000 4112.084778 4118.920567 4135.086549 4145.989483 4174.738514 4243.966505
79.455000 4114.508960 4120.860036 4137.220017 4148.617290 4177.018402 4246.040451
79.570000 4116.346484 4122.709211 4139.661984 4151.327120 4180.220442 4249.325087
79.685000 4118.720069 4124.772697 4142.567228 4153.902939 4184.542314 4251.695911
79.800000 4121.187961 4126.682705 4145.031238 4156.491109 4188.459447 4255.524419
79.933333 4123.354047 4129.008061 4148.029281 4159.587027 4194.943061 4261.142464
80.066667 4125.232386 4131.396250 4150.641680 4162.811887 4197.049010 4266.696956
80.200000 4127.672276 4133.691289 4154.106957 4165.996125 4203.049135 4271.264747
80.333333 4130.106772 4135.923858 4157.189722 4168.975821 4207.319209 4274.085083
80.466667 4131.948958 4138.401023 4160.124362 4172.174351 4213.047659 4278.899000
80.600000 4134.102814 4140.928564 4162.895064 4175.388799 4216.627332 4284.149968
80.740000 4136.611643 4144.223199 4165.889024 4178.819041 4222.851298 4287.777252
80.880000 4139.283970 4147.859345 4168.841220 4182.319081 4228.057296 4292.989796
81.020000 4141.341557 4151.116808 4172.222633 4185.840726 4234.004764 4296.350715
81.160000 4143.527971 4154.103028 4175.211137 4189.365080 4240.956812 4301.243204
81.300000 4146.205058 4156.728458 4178.557200 4192.966652 4246.100832 4305.290147
81.436667 4149.493951 4159.565790 4181.225516 4196.382580 4250.363221 4309.139606
81.573333 4153.332009 4163.052170 4184.252048 4199.822381 4255.631317 4312.104362
81.710000 4156.267019 4167.093871 4187.426773 4203.283386 4261.247488 4314.779232
81.832500 4159.204948 4169.754049 4190.673163 4206.601027 4265.397920 4318.160026
81.955000 4161.779674 4173.490993 4193.560841 4210.146255 4269.541313 4320.101338
82.077500 4165.262657 4176.638518 4196.762405 4213.508880 4272.618397 4322.284245
82.200000 4168.690045 4180.559780 4199.509309 4216.906554 4275.521344 4324.697848
82.290000 4171.517696 4182.950288 4202.265150 4219.392660 4276.989062 4327.557667
82.380000 4172.809086 4184.703978 4204.798540 4221.879325 4278.888871 4330.168533
82.516667 4176.993407 4189.409270 4208.500375 4225.769644 4283.176556 4334.320908
82.653333 4179.809433 4193.249740 4211.822124 4229.633659 4287.996770 4337.490372
82.790000 4182.824289 4196.891370 4216.383477 4233.572312 4291.959775 4340.878686
82.930000 4185.107505 4201.233175 4220.842030 4237.504620 4296.843345 4344.417883
83.070000 4187.301686 4205.360049 4224.470633 4241.350713 4301.094259 4346.741661
83.210000 4190.198515 4209.106146 4229.055375 4245.507467 4307.528090 4351.178947
83.340000 4193.603080 4212.599836 4233.483345 4249.325221 4311.028002 4354.680345
83.470000 4196.201053 4215.572262 4238.820360 4253.125300 4313.665324 4357.940171
83.600000 4200.603101 4218.622621 4242.680739 4256.897020 4319.438045 4361.242494
83.700000 4203.884516 4221.366602 4245.808323 4259.709219 4322.668700 4364.093399
83.800000 4206.964198 4223.669121 4248.479792 4262.496459 4325.551543 4366.081134
83.930000 4209.969358 4226.473001 4252.144090 4266.037019 4327.843254 4368.713961
84.060000 4212.866609 4229.278441 4255.505867 4269.566510 4331.723036 4371.192488
84.190000 4215.897552 4232.486760 4259.350268 4273.047458 4333.495468 4374.616477
84.330000 4218.659572 4235.137074 4263.737527 4276.965081 4335.541341 4377.563461
84.470000 4221.643665 4238.281104 4267.839872 4280.992451 4339.976982 4381.161215
84.610000 4225.790863 4240.987720 4271.030214 4284.875013 4345.152112 4384.083827
84.750000 4228.663562 4243.738860 4275.083358 4288.804346 4348.641440 4387.960887
84.890000 4232.586278 4246.273096 4278.940978 4292.674818 4351.356100 4391.839764
85.030000 4235.431159 4249.650502 4283.149674 4296.653525 4354.004449 4396.111245
85.170000 4237.406498 4252.709765 4286.896674 4300.674996 4358.114054 4399.588544
85.310000 4239.958157 4256.026207 4290.322353 4304.632358 4363.825067 4402.278546
85.432500 4242.367158 4259.390823 4293.479615 4307.937787 4369.003355 4404.777086
85.555000 4244.843174 4262.736235 4296.457195 4311.275794 4373.429079 4408.310935
85.677500 4246.672010 4265.601156 4298.337542 4314.607745 4376.433900 4410.400944
85.800000 4248.136578 4268.152947 4300.960359 4317.863412 4380.333366 4413.137126
85.890000 4250.300635 4271.235517 4302.888299 4320.195461 4383.255316 4415.020199
85.980000 4252.076068 4273.188666 4304.702909 4322.517000 4385.952696 4416.760449
86.118333 4255.854926 4276.702362 4308.497403 4326.229334 4389.618555 4420.141428
86.256667 4259.193100 4279.875519 4313.751876 4330.089070 4392.828073 4423.602252
86.395000 4262.243681 4282.819200 4318.456111 4333.899095 4395.747817 4426.566343
86.533333 4264.774571 4285.699112 4323.746850 4337.552127 4401.450402 4429.534017
86.671667 4267.767957 4289.085467 4328.491495 4341.432605 4404.608720 4431.779799
86.810000 4273.263406 4293.317901 4332.433127 4345.240309 4407.603678 4435.141659
86.932500 4275.529820 4297.618398 4335.528263 4348.533780 4412.378219 4437.304100
87.055000 4277.030484 4301.046285 4339.127152 4351.856940 4417.019838 4439.477459
87.177500 4279.082191 4305.270909 4342.323998 4355.093675 4420.233586 4442.530419
87.300000 4282.878384 4309.478528 4345.051527 4358.403743 4423.883086 4446.587086
87.390000 4286.040978 4311.365515 4347.768016 4360.863223 4426.996296 4448.671022
87.480000 4287.814358 4313.891531 4350.417422 4363.308747 4429.139150 4450.755510
87.620000 4291.043284 4318.134380 4354.293686 4367.554640 4431.956285 4455.361140
87.760000 4294.433852 4322.013821 4358.998828 4371.649523 4435.587601 4458.897310
87.900000 4298.158699 4325.133442 4363.708057 4375.762209 4438.715262 4461.562411
88.033333 4302.011617 4329.197127 4367.722098 4379.615603 4442.660099 4464.333065
88.166667 4305.258534 4332.642324 4371.839172 4383.487312 4446.072074 4467.174032
88.300000 4308.594512 4334.971578 4376.098111 4387.419164 4449.420261 4470.156358
88.436667 4312.163103 4337.577791 4380.466407 4391.506684 4454.610733 4473.228431
88.573333 4315.539766 4340.421925 4384.244074 4395.392765 4457.585819 4476.050025
88.710000 4318.790379 4343.138806 4387.908003 4399.325431 4461.219088 4478.198086
88.810000 4321.492608 4345.083429 4391.256009 4402.090887 4463.864193 4480.556980
88.910000 4323.381122 4347.246052 4394.514609 4404.967146 4466.406006 4483.305054
