depth(m) lower_95(kyr) lower_68(kyr) median(kyr) mean(kyr) upper_68(kyr) upper_95(kyr)
251.030000 3499.862944 3500.808360 3501.828999 3501.831680 3502.890879 3503.721217
251.080000 3501.241660 3502.189025 3503.549475 3503.815396 3505.195117 3508.210855
251.130000 3502.408239 3503.695770 3505.331299 3505.835625 3508.181253 3511.468260
251.180000 3503.604238 3505.074891 3507.218611 3507.763208 3510.586349 3513.910747
251.230000 3504.787961 3506.448203 3509.271399 3509.567617 3512.568945 3515.998436
251.280000 3505.958658 3507.917245 3511.062280 3511.404381 3514.675841 3519.002715
251.330000 3507.288973 3509.389603 3512.754222 3513.216969 3516.663227 3521.584112
251.380000 3508.719641 3511.080328 3514.602119 3514.972520 3518.467312 3523.962306
251.430000 3509.830081 3512.726194 3516.318735 3516.709939 3520.583271 3526.271814
251.480000 3511.165994 3514.310380 3518.060126 3518.452514 3522.473369 3528.429741
251.530000 3512.246932 3516.200654 3519.683152 3520.220023 3524.437981 3530.250704
251.580000 3513.707934 3517.608779 3521.460082 3522.045320 3526.559968 3533.100533
251.630000 3515.110221 3519.212893 3523.225136 3523.854823 3528.458191 3535.453472
251.730000 3517.984600 3522.124778 3526.638602 3527.582056 3533.207392 3541.711762
251.830000 3521.247079 3525.018500 3530.230456 3531.357107 3537.981803 3548.096018
251.880000 3522.749631 3526.545000 3532.142011 3533.196117 3540.294367 3549.382479
251.930000 3524.306935 3528.048349 3534.098353 3535.051759 3542.215525 3551.363442
251.980000 3525.597841 3529.891952 3535.988117 3536.819993 3543.823779 3552.867866
252.030000 3526.833800 3531.408034 3537.762232 3538.546436 3545.658021 3554.693538
252.080000 3528.429885 3532.800513 3539.533776 3540.275151 3547.274721 3556.670716
252.130000 3530.184983 3534.419141 3541.440030 3542.020383 3549.488284 3558.024068
252.180000 3531.752217 3535.966957 3543.013599 3543.672344 3551.109538 3559.836024
252.280000 3534.416269 3539.161754 3546.787032 3546.915705 3554.105250 3562.791051
252.380000 3536.754967 3542.604507 3550.034514 3550.295801 3557.818404 3566.376605
252.492500 3539.645527 3546.032267 3553.525941 3554.087939 3561.630340 3571.353429
252.605000 3542.808176 3549.304384 3557.608482 3557.817076 3566.357050 3574.313102
252.717500 3545.984115 3552.570829 3561.561505 3561.658521 3570.778365 3578.839746
252.830000 3549.331761 3555.471068 3565.383111 3565.349400 3575.056798 3582.365135
252.930000 3552.302809 3558.625939 3568.275543 3568.593191 3578.753695 3585.710795
252.980000 3554.067383 3560.084329 3570.284242 3570.261261 3580.220483 3587.144737
253.080000 3556.306588 3562.817909 3573.686830 3573.448185 3583.528093 3590.032270
253.180000 3558.855672 3565.652561 3576.842017 3576.572467 3586.964994 3592.561964
253.280000 3561.428705 3568.693902 3580.161544 3579.568439 3589.786732 3595.343289
253.380000 3563.957199 3572.020941 3583.650355 3582.585522 3592.103007 3597.807276
253.513333 3567.006785 3576.415053 3587.521570 3586.371910 3595.282113 3601.085756
253.646667 3570.960097 3580.667243 3590.978700 3590.025491 3598.706778 3604.783241
253.780000 3574.158723 3585.266274 3594.666009 3593.815520 3602.139792 3608.052675
253.913333 3578.727023 3588.987970 3598.450253 3597.410164 3605.458415 3610.952898
254.046667 3582.942386 3593.250979 3602.462759 3601.242012 3608.525226 3613.974313
254.180000 3587.925718 3597.146384 3606.108455 3604.922651 3611.630614 3617.176967
254.305000 3592.457125 3601.914302 3609.542341 3608.445808 3614.888403 3619.624569
254.430000 3596.926844 3606.268263 3613.017995 3612.077359 3617.904298 3622.487529
254.480000 3598.604748 3607.667605 3614.480744 3613.536684 3619.051044 3623.709084
254.530000 3600.410510 3609.672731 3615.861992 3615.083606 3620.351238 3624.745132
254.580000 3602.006765 3611.324447 3617.271206 3616.572658 3621.784888 3626.109672
254.655000 3606.634070 3614.502326 3619.407752 3618.972226 3624.022603 3627.766615
254.730000 3611.124853 3617.734442 3621.633529 3621.465304 3625.962986 3629.567394
254.830000 3615.850755 3621.116245 3624.417590 3624.474424 3628.610301 3632.092368
254.930000 3620.458431 3624.007068 3627.103208 3627.289148 3630.935090 3634.384923
254.980000 3622.095131 3625.523489 3628.426280 3628.743660 3632.444690 3635.619830
255.080000 3625.347265 3628.093238 3631.073296 3631.377008 3634.920886 3638.579897
255.180000 3628.110260 3630.666985 3633.819012 3634.151842 3637.643423 3641.881900
255.230000 3629.818179 3632.209011 3635.368875 3635.795425 3639.296376 3643.661070
255.280000 3631.156262 3633.962420 3637.403237 3637.748580 3641.438169 3645.982460
255.355000 3633.613667 3636.726964 3641.008366 3641.333278 3645.746871 3651.118913
255.430000 3636.195622 3640.086813 3644.963790 3645.079822 3649.893419 3654.610071
255.480000 3638.446266 3642.304209 3647.438498 3647.395349 3652.594494 3656.791692
255.530000 3640.108552 3644.319922 3649.729417 3649.591298 3654.794647 3658.760454
255.580000 3642.166119 3646.541429 3651.980615 3651.765647 3656.673477 3660.624526
255.655000 3645.419607 3650.315100 3655.673865 3655.086901 3659.687274 3662.640200
255.730000 3648.489497 3653.798913 3658.900249 3658.228091 3662.408738 3664.826072
255.805000 3651.946038 3656.859218 3661.611397 3660.940141 3664.643028 3667.268913
255.880000 3655.596387 3659.964930 3663.813535 3663.436351 3666.704763 3669.275028
255.930000 3657.670259 3661.830113 3665.371130 3664.939002 3667.986903 3670.916413
256.005000 3660.149551 3663.930562 3667.324474 3666.982626 3669.905204 3672.549240
256.080000 3662.057281 3665.992339 3669.272565 3668.941959 3671.785022 3674.375148
256.180000 3664.658425 3668.543133 3671.831047 3671.592121 3674.496835 3677.647229
256.230000 3666.262386 3669.844155 3673.313050 3673.161307 3676.286161 3679.481959
256.330000 3669.085213 3672.933040 3676.433128 3676.643898 3680.298428 3685.010005
256.430000 3672.839187 3676.605141 3680.401826 3680.751969 3685.059108 3691.326887
256.530000 3676.197877 3679.984233 3684.567678 3685.046581 3690.277288 3696.400824
256.630000 3679.627737 3683.711878 3689.136395 3689.443334 3695.079178 3700.409922
256.680000 3681.646300 3685.736870 3691.344648 3691.518668 3697.154002 3702.430074
256.780000 3685.891063 3690.686297 3696.207907 3695.972876 3701.034583 3706.363299
256.880000 3690.520717 3695.681184 3700.806950 3700.557899 3705.267943 3709.707141
256.980000 3696.112301 3700.850269 3705.282933 3705.092161 3709.360293 3713.177875
257.030000 3697.950473 3702.996496 3707.181186 3707.069049 3711.214311 3714.836955
257.080000 3700.790813 3704.999004 3709.023712 3709.003401 3712.979056 3716.548930
257.130000 3702.728575 3706.988160 3710.969651 3710.925621 3714.922866 3718.423085
257.205000 3704.902560 3709.857376 3713.985616 3713.901411 3717.968108 3722.350693
257.280000 3707.457967 3712.807730 3716.791280 3716.873649 3721.095224 3725.830945
257.330000 3709.172780 3714.556690 3718.915328 3718.912285 3723.194730 3727.624718
257.405000 3712.471285 3717.529666 3722.084592 3721.881530 3726.137281 3730.361871
257.480000 3715.948758 3720.541172 3724.952715 3724.865175 3729.112575 3733.138552
257.530000 3717.820949 3722.464064 3726.888568 3726.914623 3731.524820 3735.142978
257.605000 3720.839260 3725.320546 3730.092857 3729.947385 3734.357243 3738.492645
257.680000 3723.893088 3728.520869 3733.170709 3732.956732 3737.404456 3741.495931
257.755000 3726.317806 3731.358479 3736.195079 3735.935610 3740.161134 3744.493977
257.830000 3729.852210 3734.824013 3738.939871 3738.914425 3743.103529 3747.431977
257.930000 3735.610713 3738.968658 3742.634021 3742.775511 3746.612816 3750.789907
257.980000 3737.440699 3740.794398 3744.672493 3744.607742 3748.264662 3752.228068
258.030000 3739.230997 3742.483555 3746.299239 3746.365396 3750.110400 3753.923999
258.080000 3740.958766 3744.118524 3747.971212 3748.097475 3751.846267 3756.391028
258.130000 3742.571318 3745.885179 3749.647772 3749.850817 3753.743888 3758.266690
258.180000 3744.383492 3747.695888 3751.361371 3751.739753 3755.730680 3760.751558
258.280000 3747.215980 3751.224212 3755.573693 3755.751209 3760.250982 3765.991315
258.380000 3750.781483 3754.562163 3759.547524 3759.637846 3764.374135 3770.105818
258.430000 3752.262912 3756.539990 3761.441912 3761.524925 3766.156527 3772.058187
258.530000 3755.661057 3759.910574 3764.850592 3765.048228 3770.154451 3775.741232
258.580000 3757.640293 3761.630293 3766.577404 3766.829126 3771.811690 3777.240192
258.680000 3760.654437 3765.114974 3770.035932 3770.214722 3775.189748 3780.994634
258.780000 3764.242775 3768.571637 3773.189134 3773.459343 3778.117011 3783.455937
258.830000 3765.660967 3770.387672 3774.825779 3775.095668 3779.795307 3785.419541
258.905000 3768.135867 3772.635847 3777.205013 3777.419828 3782.231344 3788.030444
258.980000 3770.364507 3774.733054 3779.336773 3779.632808 3784.427763 3791.346966
259.030000 3771.988680 3776.095760 3780.737548 3781.116762 3785.736340 3793.160724
259.080000 3773.471057 3777.643916 3782.297170 3782.691270 3787.278310 3795.347624
259.180000 3776.659694 3780.846705 3785.442243 3785.730641 3789.875166 3798.323436
259.230000 3778.285078 3782.509250 3787.284994 3787.391258 3791.417215 3800.390395
259.305000 3780.814468 3785.140765 3789.864455 3789.866652 3793.426854 3802.762762
259.380000 3782.764795 3787.681934 3792.311330 3792.350131 3795.607041 3805.757016
259.410000 3783.784666 3788.816699 3793.406816 3793.424000 3796.540883 3806.673939
259.460000 3785.437776 3791.172178 3795.267034 3795.305819 3798.203581 3808.370671
259.490000 3786.615442 3792.881233 3796.326286 3796.420385 3799.348357 3809.579566
259.510000 3787.240976 3793.641956 3797.049093 3797.156923 3800.041028 3810.291388
259.540000 3788.503797 3795.104342 3798.199876 3798.344594 3801.170054 3811.727745
259.560000 3788.976976 3795.966330 3798.988701 3799.114473 3801.939057 3812.595818
259.590000 3789.886363 3797.090938 3800.125986 3800.311874 3803.202347 3813.601269
259.610000 3790.551165 3798.019825 3800.990128 3801.100110 3803.964429 3814.579673
259.640000 3791.815442 3799.163568 3802.298850 3802.335936 3805.042831 3815.183230
259.660000 3792.547406 3800.018464 3803.171875 3803.139849 3805.769062 3815.742897
259.690000 3793.423535 3801.279889 3804.546444 3804.365807 3806.981180 3816.784138
259.710000 3793.918627 3802.064710 3805.284650 3805.100859 3807.740172 3817.383322
259.740000 3794.760598 3803.135579 3806.301985 3806.210317 3809.034657 3818.235962
259.760000 3795.443614 3803.937272 3807.074598 3806.915621 3809.708502 3818.943014
259.790000 3796.421169 3805.113223 3808.062406 3807.973948 3810.865654 3819.807543
259.890000 3800.354507 3808.309993 3810.936715 3811.121247 3814.180929 3822.202073
259.910000 3801.078740 3808.838667 3811.571630 3811.755622 3814.926667 3822.971221
259.960000 3802.873431 3810.150825 3813.012179 3813.211191 3816.611853 3824.025999
260.090000 3807.387307 3813.143856 3816.375326 3816.706105 3820.402500 3826.635297
260.165000 3810.152737 3815.148430 3818.223414 3818.748602 3822.860628 3828.796381
260.240000 3812.622590 3817.049120 3820.235594 3820.798630 3824.870570 3830.781511
260.340000 3815.874265 3819.318732 3822.730699 3823.380905 3827.877368 3833.230575
260.390000 3817.459942 3820.615680 3824.077485 3824.751526 3829.477735 3834.670356
260.440000 3818.833778 3822.034536 3825.429318 3826.176995 3831.518484 3835.944122
260.490000 3820.296752 3823.296939 3826.795499 3827.594886 3832.999711 3837.525015
260.540000 3821.506687 3824.785102 3828.202549 3829.082303 3834.278823 3839.094797
260.590000 3823.083222 3826.252149 3829.610369 3830.588469 3835.907579 3840.384240
260.715000 3826.265106 3829.554451 3833.193134 3834.125232 3839.443528 3843.652109
260.840000 3829.111880 3832.761097 3837.309729 3837.654128 3842.982256 3847.114512
260.940000 3831.534445 3835.345305 3840.131622 3840.425209 3846.027794 3850.170654
261.040000 3833.860526 3837.970969 3843.318583 3843.280805 3848.854972 3852.816977
261.140000 3836.311438 3840.180917 3846.424887 3846.078717 3851.613135 3855.141627
261.190000 3837.436749 3841.471663 3848.052760 3847.501733 3853.066039 3856.363815
261.290000 3840.094955 3844.415011 3851.062011 3850.348773 3855.889699 3858.902784
261.340000 3841.570360 3845.955707 3852.688755 3851.914164 3857.220299 3860.363365
261.440000 3844.673094 3849.299615 3855.739702 3854.910448 3859.794578 3862.913333
261.490000 3846.186869 3851.289741 3857.276040 3856.510280 3861.239686 3864.006670
261.590000 3849.879242 3855.322165 3860.250599 3859.678139 3863.735631 3866.968257
261.690000 3853.954539 3859.160286 3863.499327 3862.900927 3866.388714 3869.549204
261.790000 3858.091569 3862.846737 3866.330421 3866.032298 3869.208832 3872.383059
261.865000 3860.871503 3865.242596 3868.258859 3868.148498 3871.095305 3874.287322
261.940000 3863.601274 3867.648019 3870.179233 3870.287137 3873.177170 3875.984986
261.990000 3865.815593 3869.217989 3871.653148 3871.744934 3874.476312 3877.555979
262.040000 3867.688867 3870.547094 3873.090026 3873.188292 3875.951867 3879.309201
262.090000 3868.987071 3871.892096 3874.404517 3874.634085 3877.497163 3880.816860
262.140000 3870.573435 3873.223364 3875.849422 3876.145934 3879.199462 3882.985090
262.215000 3872.300884 3875.125409 3878.025731 3878.473568 3881.909731 3887.558612
262.290000 3874.027283 3876.956034 3880.349374 3880.860914 3884.818592 3891.471211
262.390000 3876.634162 3879.402581 3883.183829 3884.040044 3888.863735 3895.561649
262.515000 3879.542103 3882.286597 3886.616601 3887.885995 3894.223619 3901.044100
262.640000 3881.860750 3885.071103 3890.526410 3891.727581 3899.237232 3905.493236
262.690000 3883.123647 3886.584486 3892.078522 3893.305145 3901.278253 3907.149100
262.790000 3885.538879 3888.963054 3895.534941 3896.465742 3905.011362 3909.997417
262.840000 3886.582559 3890.122595 3897.415473 3898.016635 3906.663014 3911.504663
262.940000 3888.937362 3892.790008 3900.824530 3901.105021 3910.216040 3914.179011
263.040000 3891.140716 3895.413649 3904.355161 3904.129553 3912.850437 3916.725462
263.090000 3892.300368 3896.761765 3905.827289 3905.696462 3914.304213 3918.079013
263.140000 3893.743992 3898.545944 3907.276819 3907.234333 3915.817532 3919.415825
263.190000 3895.212128 3899.953580 3908.987205 3908.790024 3917.408405 3920.392524
263.240000 3896.509600 3901.393398 3910.546007 3910.360423 3918.812345 3921.775352
263.290000 3898.055172 3902.893065 3912.099469 3911.842058 3920.089811 3922.923680
263.390000 3900.681899 3905.825357 3915.725942 3914.738678 3922.496920 3925.193100
263.440000 3902.533269 3907.728786 3917.582303 3916.275991 3923.651759 3926.662944
263.490000 3904.031031 3909.244501 3919.614098 3917.777311 3924.948891 3927.965316
263.540000 3905.434053 3910.490767 3921.421508 3919.240923 3926.190582 3929.411018
263.590000 3906.965371 3911.817185 3923.056451 3920.656799 3927.417159 3930.473678
263.640000 3908.288159 3913.614598 3924.575650 3922.064774 3928.677307 3931.785738
263.690000 3909.879877 3915.178510 3926.133203 3923.465707 3929.887978 3933.282586
263.740000 3910.995581 3916.691631 3927.520823 3924.809238 3931.082553 3934.402209
263.840000 3913.787137 3919.740767 3930.100111 3927.342642 3933.264693 3937.118004
263.890000 3915.324805 3921.186397 3931.378607 3928.619336 3934.432419 3938.608505
263.940000 3916.583377 3922.775833 3932.630638 3929.964724 3935.641615 3939.981925
264.040000 3918.886053 3925.516617 3934.822457 3932.434008 3937.878377 3942.984039
264.090000 3920.113279 3926.884665 3935.983781 3933.776356 3939.142239 3944.449635
264.165000 3922.130076 3928.955159 3937.664531 3935.761677 3941.143240 3946.586715
264.240000 3923.722065 3930.661931 3939.330295 3937.629498 3943.173864 3949.027924
264.340000 3926.156071 3933.409047 3941.465937 3940.089893 3945.532974 3952.274322
264.440000 3928.769809 3935.846466 3943.656508 3942.568221 3948.150040 3954.984763
264.490000 3930.150915 3937.271123 3944.878206 3943.898652 3949.364298 3956.776424
264.540000 3931.340272 3938.818357 3946.005750 3945.232475 3950.684297 3958.362341
264.590000 3932.684392 3940.282588 3947.175015 3946.585724 3952.083898 3959.592920
264.640000 3933.884766 3941.678034 3948.505869 3947.987518 3953.340049 3960.985229
264.690000 3935.688374 3943.483739 3949.849044 3949.447226 3954.888126 3962.101919
264.740000 3936.997176 3944.982653 3951.250163 3950.885873 3956.360684 3963.440964
264.790000 3938.280595 3946.468367 3952.519302 3952.300718 3957.774851 3964.602848
264.840000 3939.614355 3947.835930 3953.921340 3953.723398 3959.030073 3965.531569
264.890000 3941.646656 3949.239773 3955.414429 3955.199873 3960.488010 3966.996121
264.940000 3943.756368 3951.002857 3956.760836 3956.732812 3962.342001 3968.518818
264.990000 3945.442502 3952.643553 3958.366229 3958.317082 3964.123240 3970.409476
265.040000 3947.476643 3954.352586 3959.905916 3959.912058 3965.708025 3971.977376
265.140000 3952.033979 3957.646593 3962.622181 3963.002909 3968.783052 3974.701608
265.190000 3954.400011 3959.034987 3964.180729 3964.649138 3970.739979 3976.259538
265.240000 3956.271877 3961.075741 3965.832096 3966.360797 3972.603399 3977.697046
265.340000 3960.402786 3965.006212 3969.921252 3970.300139 3976.310416 3980.906418
265.440000 3965.174356 3969.167487 3974.645682 3974.748068 3980.565593 3984.396559
265.490000 3967.349972 3971.274711 3976.764708 3976.798668 3982.289347 3986.515147
265.540000 3969.760265 3973.604564 3978.897678 3978.958043 3984.062490 3988.086607
265.590000 3971.748604 3975.884476 3981.354850 3981.089052 3985.834661 3989.770569
265.640000 3974.182420 3978.778515 3983.605238 3983.380568 3987.936238 3991.721506
265.690000 3976.301236 3981.408018 3985.940294 3985.755770 3990.257673 3993.677959
265.740000 3979.827004 3984.024094 3988.279995 3988.186387 3992.383545 3995.621843
265.790000 3982.273307 3986.479512 3990.298178 3990.281966 3994.408919 3997.173951
265.840000 3985.151470 3988.815974 3992.308867 3992.397930 3996.259478 3998.817744
265.890000 3987.465825 3990.900336 3994.163754 3994.208384 3997.930240 4000.527783
265.940000 3989.103515 3992.736549 3995.769856 3995.914380 3999.403793 4002.238685
265.990000 3991.090245 3994.495472 3997.609186 3997.703556 4001.028355 4003.964619
266.040000 3993.068173 3996.188724 3999.511786 3999.452499 4002.644291 4005.633998
266.090000 3994.731623 3997.983427 4001.180649 4001.234249 4004.446044 4007.762947
266.190000 3998.195814 4001.399102 4004.601675 4004.817043 4008.033693 4014.165505
266.240000 3999.705673 4002.909156 4006.386042 4006.647926 4009.970049 4016.242973
266.250000 4000.474224 4003.280004 4006.714894 4007.042986 4010.335152 4016.743395
266.290000 4002.152114 4005.040073 4008.365900 4008.810926 4012.068526 4018.340937
266.340000 4004.411821 4007.845535 4010.951405 4011.330684 4014.708822 4020.558416
266.390000 4006.598528 4009.926721 4013.314506 4013.729439 4017.327423 4022.958026
266.440000 4009.201457 4011.978249 4015.703647 4016.062044 4019.905100 4026.482139
266.490000 4011.386961 4014.123382 4017.995664 4018.502225 4022.498157 4029.725803
266.540000 4013.119713 4016.292686 4020.171534 4020.905461 4025.216967 4033.666121
266.590000 4015.099588 4018.493159 4022.308208 4023.332693 4028.033428 4038.267997
266.640000 4016.772782 4020.496935 4024.545940 4025.698722 4030.892146 4041.568706
266.690000 4019.083574 4022.335404 4026.689927 4028.088892 4033.662790 4044.785910
266.740000 4020.887266 4023.943349 4028.862816 4030.343760 4036.795934 4047.050787
266.770000 4022.300247 4025.166411 4030.102051 4031.651334 4038.579629 4048.519828
266.790000 4022.997565 4025.984003 4031.067524 4032.527218 4039.429146 4049.345899
266.840000 4024.954868 4028.084470 4033.649670 4035.005520 4042.959644 4051.257342
266.870000 4026.276872 4029.330275 4034.989136 4036.405472 4043.909319 4052.113832
266.890000 4026.961021 4030.309249 4035.953299 4037.336639 4044.917465 4052.603721
266.970000 4031.747332 4036.572276 4041.315736 4042.164255 4049.348445 4054.907580
266.990000 4032.797060 4037.689170 4042.289458 4043.137222 4050.379588 4055.417263
