depth(m) lower_95(kyr) lower_68(kyr) median(kyr) mean(kyr) upper_68(kyr) upper_95(kyr)
140.450000 3497.800858 3530.401558 3535.621639 3535.563507 3540.713015 3566.240998
140.550000 3501.052566 3533.617238 3538.310428 3538.417785 3543.044418 3568.758989
140.650000 3503.648464 3536.184917 3540.863312 3541.129601 3545.591039 3570.902242
140.750000 3506.264393 3539.035671 3543.384031 3543.709333 3547.833303 3573.640655
140.840000 3508.378756 3541.723522 3545.764360 3546.276504 3550.149418 3576.397219
140.950000 3512.788935 3545.008837 3548.899997 3549.416783 3553.783852 3579.121840
141.060000 3516.323111 3548.024242 3552.098762 3552.780827 3557.261956 3581.230743
141.160000 3519.184042 3551.447849 3554.993756 3555.855631 3560.297044 3584.438539
141.250000 3522.351964 3554.174983 3557.677953 3558.608574 3563.089814 3586.502246
141.340000 3525.416358 3556.615502 3560.509078 3561.273985 3566.144267 3588.095069
141.430000 3528.402836 3559.373683 3563.597170 3564.212616 3569.371466 3590.004671
141.530000 3536.137826 3562.420214 3567.288809 3567.699129 3573.423784 3592.123619
141.640000 3542.836331 3566.608191 3572.387843 3572.268695 3578.429523 3594.194211
141.750000 3550.231890 3570.556280 3576.908233 3576.542876 3582.718986 3596.096093
141.850000 3553.541311 3574.362322 3581.081041 3580.401131 3586.862221 3598.154326
141.950000 3555.732984 3578.611690 3584.616620 3584.117633 3590.791641 3600.191136
142.050000 3557.959284 3582.204129 3588.064175 3587.392809 3594.083525 3602.553831
142.150000 3561.664604 3585.239966 3590.950099 3590.438464 3597.195465 3604.774105
142.250000 3565.558998 3588.122162 3593.913750 3593.430163 3600.080521 3607.433403
142.350000 3568.183287 3591.291197 3596.801642 3596.374730 3603.353853 3609.902339
142.450000 3571.071706 3594.234452 3599.508673 3599.202642 3606.368989 3612.256531
142.550000 3574.355666 3597.283962 3602.497195 3602.059809 3608.961857 3614.779759
142.650000 3576.288093 3600.446597 3605.561767 3605.035846 3611.405391 3616.912979
142.750000 3578.548515 3603.912569 3608.874838 3608.152152 3614.022716 3619.370512
142.850000 3580.558125 3607.278016 3612.213305 3611.303890 3616.884281 3621.942584
142.950000 3585.281215 3610.866648 3615.812464 3614.926131 3620.308899 3626.035128
143.050000 3588.299836 3614.837726 3619.443522 3618.769718 3624.203091 3629.773292
143.150000 3590.945691 3619.240033 3623.777460 3622.964553 3628.530792 3633.342454
143.250000 3594.247609 3623.089513 3627.599203 3626.880903 3632.642896 3636.910564
143.350000 3596.556211 3627.348389 3631.882905 3630.825498 3636.116791 3640.941151
143.450000 3599.553882 3631.490924 3635.977452 3634.755859 3640.024950 3644.351005
143.550000 3602.301240 3635.191622 3639.271181 3638.134439 3643.359748 3647.332418
143.650000 3605.198201 3638.041774 3642.165693 3641.103305 3646.192539 3650.003176
143.750000 3608.794698 3640.519898 3644.861247 3643.745158 3648.961764 3652.528830
143.850000 3611.614845 3643.151947 3647.392790 3646.371645 3651.608285 3656.092684
143.950000 3613.820805 3645.722222 3649.803696 3648.892771 3654.038282 3658.274273
144.050000 3615.221021 3648.352443 3652.383270 3651.510659 3656.561377 3660.570429
144.150000 3617.711254 3651.137793 3655.352033 3654.292621 3659.379420 3663.477128
144.250000 3621.418117 3653.962544 3658.335389 3657.370769 3662.739658 3666.841149
144.350000 3624.861896 3657.386741 3661.635945 3660.813020 3666.402104 3670.191658
144.450000 3627.152434 3660.811794 3665.280136 3664.221720 3669.562767 3673.601589
144.550000 3631.508332 3664.035839 3668.670256 3667.553045 3672.876115 3676.828009
144.650000 3635.181680 3667.558381 3672.006115 3671.048484 3676.415067 3680.573561
144.750000 3638.652709 3671.271168 3675.987546 3674.893220 3680.029772 3684.730344
144.850000 3644.151257 3675.418161 3679.931505 3678.843625 3684.089675 3688.573644
144.920000 3646.400215 3677.841904 3682.183066 3681.241040 3686.535306 3691.150226
145.050000 3649.139180 3681.638976 3686.259339 3685.156953 3690.339808 3695.122346
145.150000 3652.300491 3684.358616 3689.213017 3688.164653 3693.619990 3698.034217
145.250000 3655.554954 3687.100801 3692.074576 3690.963791 3696.368469 3701.372645
145.350000 3658.169019 3689.991585 3695.014230 3694.032757 3699.919680 3704.692332
145.450000 3661.029414 3692.637605 3698.354337 3697.256987 3703.253257 3708.249973
145.550000 3666.930491 3695.732053 3701.764854 3700.547390 3706.672166 3711.987185
145.660000 3670.545242 3699.450169 3705.195498 3703.969493 3710.243096 3714.846137
145.760000 3672.562919 3702.200478 3708.063831 3706.863165 3712.772712 3718.089232
145.880000 3677.109598 3705.388897 3711.510096 3710.238657 3716.333104 3721.408008
145.990000 3680.848738 3708.955289 3714.744939 3713.636161 3719.667846 3725.418656
146.090000 3687.590534 3711.757133 3718.024179 3716.845155 3723.080942 3729.187141
146.200000 3691.396340 3715.623185 3721.466977 3720.433645 3726.699895 3732.394457
146.310000 3693.592746 3719.058665 3724.828467 3723.852329 3730.778007 3735.586371
146.420000 3698.026057 3722.305800 3728.156768 3727.247877 3734.038949 3739.129006
146.530000 3701.244170 3725.047048 3731.650763 3730.523934 3737.358938 3742.913710
146.650000 3706.209812 3728.303231 3735.039078 3734.064945 3740.985086 3747.368732
146.750000 3711.067828 3731.226722 3738.002077 3736.942414 3743.721890 3750.105102
146.860000 3713.559012 3734.389400 3741.211034 3740.144729 3746.742304 3753.345804
146.970000 3717.862002 3737.875933 3744.334277 3743.343842 3749.958938 3756.248014
147.080000 3721.560618 3740.916029 3747.415887 3746.482936 3753.174758 3760.324443
147.190000 3725.690842 3744.169301 3750.856270 3749.706579 3756.278280 3763.359266
147.300000 3729.200648 3747.282951 3753.834602 3752.936414 3759.508619 3767.023811
147.400000 3732.312471 3749.804056 3756.890100 3755.839427 3762.492101 3769.975235
147.490000 3733.700416 3752.251008 3759.256858 3758.393937 3765.010459 3772.723891
147.580000 3736.180858 3754.607500 3761.682734 3760.897109 3767.727515 3775.943269
147.680000 3737.800514 3757.127534 3764.621930 3763.629244 3770.303846 3780.522138
147.770000 3739.861876 3759.604653 3766.902815 3766.107429 3772.787924 3783.330394
147.860000 3743.331150 3761.940066 3769.139116 3768.502300 3775.352705 3786.562035
147.950000 3746.067806 3764.377675 3771.349063 3770.831337 3777.356034 3790.133833
148.050000 3749.931837 3767.173770 3773.806516 3773.407346 3779.786083 3792.782232
148.140000 3755.079811 3769.559365 3776.110061 3775.720152 3781.761061 3795.990476
148.230000 3757.104416 3771.701126 3778.629104 3778.045945 3784.033162 3797.522427
148.330000 3759.805169 3774.071453 3781.011778 3780.624016 3786.744519 3801.231441
148.420000 3764.424248 3776.301370 3783.109885 3782.906912 3788.691610 3803.351130
148.510000 3766.757508 3778.793028 3785.243085 3785.265212 3791.244846 3806.205018
148.600000 3768.603702 3781.146711 3787.651058 3787.579539 3793.388201 3809.085652
148.700000 3770.944953 3783.554632 3789.904085 3790.161621 3795.829507 3812.157952
148.790000 3773.721270 3785.720571 3792.307628 3792.537105 3797.953905 3817.473123
148.880000 3775.321103 3787.882054 3794.695411 3794.908228 3800.275027 3819.810240
148.970000 3777.625126 3790.207423 3796.861799 3797.329180 3802.747281 3823.400827
149.070000 3780.523976 3792.967416 3799.355640 3800.013833 3805.745046 3826.246354
149.160000 3782.978313 3795.286948 3801.551104 3802.390527 3808.238668 3828.931334
149.280000 3786.336255 3798.461044 3804.459446 3805.622260 3811.670027 3833.779968
149.400000 3789.332771 3801.221278 3807.429823 3808.650014 3814.884697 3838.089411
149.520000 3792.703108 3804.325434 3810.038080 3811.664282 3817.530974 3842.893637
149.660000 3796.722894 3807.638630 3813.689368 3815.293931 3820.972698 3849.247275
149.760000 3799.823712 3810.453490 3815.971047 3817.888015 3823.179180 3852.747215
149.890000 3803.712194 3813.718944 3819.044638 3821.186545 3826.241076 3857.222384
150.010000 3806.893943 3816.480956 3821.891219 3824.238185 3829.443366 3860.908136
150.130000 3810.737027 3819.338715 3824.471890 3827.140513 3831.906817 3863.745613
150.250000 3814.419333 3822.225010 3827.245724 3830.106818 3834.697860 3867.189496
150.380000 3818.333927 3825.517510 3830.069311 3833.387647 3837.435720 3870.314118
150.500000 3821.865851 3828.389379 3832.652767 3836.409288 3839.973949 3874.573752
150.620000 3826.172501 3831.636881 3835.476679 3839.603633 3842.121904 3877.736093
150.730000 3829.741397 3834.792109 3838.375087 3842.701099 3844.956266 3881.976346
150.750000 3830.389371 3835.308424 3838.979549 3843.290718 3845.373828 3882.421688
150.860000 3834.217588 3838.618355 3842.382001 3846.786457 3848.728839 3886.072762
150.970000 3837.666459 3841.626320 3845.781590 3850.121851 3852.221146 3889.604760
151.060000 3840.084130 3844.222082 3848.391232 3852.782361 3854.997794 3892.181677
151.150000 3842.946366 3847.004326 3850.954714 3855.353871 3857.329936 3894.944967
151.240000 3845.422052 3849.645372 3853.572513 3857.875403 3859.719332 3898.174537
151.350000 3848.777595 3852.581580 3856.567429 3861.022983 3862.863037 3901.518637
151.438000 3851.703616 3855.260273 3859.227635 3863.694858 3866.064935 3903.750836
151.460000 3852.371658 3856.019653 3859.890629 3864.417152 3866.890531 3904.348968
151.550000 3855.667991 3859.265320 3863.508806 3867.953631 3871.510175 3908.112265
151.650000 3859.501876 3863.322431 3867.910746 3872.282697 3876.961441 3912.299396
151.740000 3862.950876 3867.338732 3872.201376 3876.257847 3880.709230 3915.659319
151.850000 3866.973534 3872.294790 3877.718045 3881.387696 3886.419376 3918.812637
151.960000 3872.178346 3878.265008 3884.071576 3887.056124 3892.195041 3921.807320
152.060000 3876.812978 3882.676455 3888.414814 3891.272045 3896.796856 3924.733187
152.140000 3880.156427 3885.600511 3891.245278 3894.169184 3899.863775 3926.563969
152.210000 3882.517242 3887.874842 3893.557970 3896.552597 3903.327448 3928.519922
152.270000 3884.447629 3889.985168 3895.620361 3898.477237 3904.805856 3929.773418
152.340000 3886.560821 3892.095777 3897.919548 3900.726510 3907.279460 3931.137448
152.420000 3889.007555 3894.827238 3900.221653 3903.312810 3910.372715 3933.333784
152.540000 3893.359196 3898.597039 3904.035042 3907.313520 3915.382923 3937.315191
152.610000 3895.516630 3901.187780 3906.009691 3909.542620 3918.184754 3938.805525
152.690000 3898.010059 3903.527758 3908.842267 3912.072657 3921.933635 3941.158137
152.710000 3898.682882 3904.207944 3909.469944 3912.686785 3922.471697 3941.666251
152.790000 3900.949016 3906.542707 3912.483196 3915.174357 3925.063120 3943.511247
152.810000 3901.675576 3907.040229 3913.159499 3915.788875 3925.696847 3944.042823
152.890000 3904.612680 3909.519365 3915.505636 3918.381896 3928.518586 3945.555672
152.970000 3906.654166 3911.956452 3918.097170 3920.920665 3931.022688 3947.467116
153.040000 3908.829530 3913.706060 3920.513034 3923.157829 3933.346005 3949.221877
153.120000 3911.513993 3916.776158 3923.669430 3925.884144 3935.718917 3951.361122
153.210000 3914.071893 3920.334598 3926.840972 3929.055875 3939.418903 3953.525239
153.330000 3917.644482 3924.465826 3931.226338 3933.223645 3943.255749 3955.873238
153.460000 3921.137008 3929.238261 3935.775628 3937.516272 3948.296746 3958.977079
153.580000 3925.306690 3933.003369 3939.777999 3941.433242 3952.051672 3962.342837
153.700000 3928.480765 3936.118692 3944.141901 3945.232908 3955.692824 3965.266951
153.800000 3931.016733 3938.966575 3947.424677 3948.235741 3958.272765 3967.139817
153.890000 3933.471901 3941.942669 3950.584246 3950.989311 3960.510371 3968.887694
153.980000 3936.603733 3944.780020 3953.310232 3953.618106 3962.819481 3970.353872
154.070000 3938.997797 3947.452503 3956.749090 3956.249377 3964.765431 3972.097743
154.150000 3941.265594 3950.000987 3959.338243 3958.535017 3966.493575 3973.691516
154.250000 3943.645500 3953.064241 3962.531107 3961.579047 3969.162753 3975.292012
154.360000 3946.872507 3956.890602 3965.984144 3964.693942 3972.040071 3977.008983
154.470000 3952.418585 3960.471133 3968.878005 3967.788945 3974.470672 3978.917783
154.610000 3956.373278 3965.627566 3972.062478 3971.447969 3977.746210 3981.040703
154.685000 3958.330008 3967.517534 3973.924408 3973.342684 3979.435088 3982.508615
154.760000 3960.997946 3969.651390 3975.751171 3975.186251 3981.198756 3984.054776
154.835000 3963.573481 3971.649564 3977.591603 3977.042525 3982.723645 3985.883100
154.910000 3966.030306 3973.728370 3979.381060 3978.855832 3984.148821 3987.482881
155.000000 3968.890608 3976.299665 3981.649451 3981.059449 3986.054631 3989.566298
155.090000 3971.078706 3978.562015 3983.896934 3983.228205 3987.967712 3991.248008
155.165000 3973.313075 3980.551708 3985.643356 3984.990573 3989.525003 3992.693845
155.240000 3975.827924 3982.309173 3987.244697 3986.704582 3990.965067 3994.156507
155.370000 3980.026747 3985.846546 3990.174242 3989.641263 3993.447510 3996.215179
155.470000 3984.319403 3988.100096 3992.115737 3991.697775 3995.266598 3997.800303
155.570000 3986.491945 3990.231919 3993.946607 3993.618451 3996.990660 3999.450249
155.660000 3988.572632 3992.046543 3995.607179 3995.356685 3998.621663 4001.126612
155.750000 3990.410578 3993.874049 3997.227390 3997.045176 4000.166068 4002.878344
155.830000 3992.170933 3995.513999 3998.783769 3998.575234 4001.534965 4004.138476
155.930000 3994.282668 3997.251636 4000.567044 4000.346315 4003.156013 4005.888520
156.040000 3996.258570 3999.126517 4002.497134 4002.293738 4004.954415 4008.085288
156.150000 3998.029930 4001.237005 4004.469972 4004.335334 4007.203008 4010.702827
156.250000 3999.762111 4003.271212 4006.513782 4006.408770 4009.274566 4013.478287
156.360000 4001.769910 4005.512815 4008.817333 4008.788526 4011.770750 4016.704337
156.460000 4003.406829 4007.117272 4010.753737 4010.827421 4014.372712 4018.888309
156.550000 4004.987678 4009.128726 4012.536421 4012.797316 4016.527164 4021.120894
156.640000 4006.888104 4011.321769 4014.647923 4014.931816 4019.070926 4023.160155
156.740000 4009.258608 4013.429844 4017.004807 4017.281703 4021.474877 4025.243898
156.840000 4011.422103 4015.840135 4019.543387 4019.610785 4023.824681 4027.175607
156.940000 4014.190414 4017.818565 4021.799279 4021.904623 4026.076594 4029.283242
157.040000 4016.964659 4020.221837 4024.403291 4024.267803 4028.202681 4031.270332
157.150000 4019.397405 4022.874496 4026.835119 4026.718074 4030.471079 4033.765701
157.250000 4021.609845 4025.283165 4028.917933 4028.893679 4032.493078 4035.382284
157.350000 4024.123469 4027.754205 4031.404481 4031.159732 4034.387003 4036.990465
157.450000 4026.444076 4030.417875 4033.840524 4033.484831 4036.401230 4038.606204
157.550000 4028.600543 4032.777046 4035.827316 4035.476686 4038.155346 4040.501799
157.650000 4030.299543 4034.766980 4037.608430 4037.313089 4039.985025 4042.339101
157.750000 4032.233419 4036.375707 4039.417217 4039.011457 4041.541315 4044.157539
157.850000 4034.234650 4038.046399 4041.032440 4040.660970 4043.193928 4045.935452
157.950000 4035.634696 4039.886267 4042.713223 4042.423094 4044.932682 4048.049645
158.050000 4037.660904 4041.662534 4044.481511 4044.286859 4046.795480 4050.183284
158.150000 4039.453828 4043.449545 4046.295535 4046.240732 4048.996619 4053.397710
158.250000 4041.337837 4045.315660 4048.181104 4048.340029 4051.322576 4057.077686
158.350000 4043.047015 4047.104039 4049.946889 4050.299021 4053.524756 4059.641369
158.440000 4044.780146 4048.659636 4051.563233 4052.061639 4055.796143 4061.763271
158.540000 4046.542908 4050.272888 4053.320021 4053.925189 4058.225853 4064.021643
158.640000 4048.326094 4051.855808 4055.106850 4055.731970 4060.098452 4066.025897
158.740000 4050.022831 4053.496317 4056.675140 4057.466726 4062.563906 4067.822850
158.830000 4051.486721 4054.856319 4058.220964 4059.044649 4064.596216 4069.376470
158.930000 4052.969776 4056.273718 4059.861852 4060.772720 4066.844317 4070.959212
159.020000 4054.563767 4057.583808 4061.216070 4062.317820 4068.697985 4072.583112
159.120000 4056.171205 4059.217742 4062.937013 4064.010755 4070.465067 4074.220732
159.230000 4058.084190 4060.783874 4064.677990 4065.802551 4072.408691 4076.012458
159.340000 4059.453915 4062.301933 4066.502583 4067.596966 4074.551343 4077.912314
159.450000 4060.924792 4063.991623 4068.344645 4069.373478 4076.252153 4079.686480
159.560000 4062.731670 4065.648193 4070.324709 4071.211640 4077.933311 4081.937448
159.660000 4064.109574 4067.067226 4071.884829 4072.868953 4079.522836 4083.440305
159.760000 4065.430699 4068.700899 4073.562944 4074.555206 4081.090254 4085.062968
159.840000 4066.761014 4069.954183 4074.995574 4075.983710 4082.577464 4086.541478
159.920000 4068.238500 4071.361591 4076.417545 4077.424112 4084.003879 4087.706304
160.000000 4069.351381 4072.894226 4077.704754 4078.841927 4085.291271 4088.902703
160.060000 4070.251684 4073.951797 4078.801722 4079.898306 4086.328661 4089.784313
160.130000 4071.519223 4075.182879 4080.249992 4081.206945 4087.584358 4091.242627
160.200000 4072.889597 4076.672005 4081.526761 4082.475747 4088.773499 4092.479802
160.270000 4074.232091 4078.141906 4082.951259 4083.767061 4089.941471 4093.574489
160.350000 4075.377513 4079.741593 4084.497407 4085.189696 4091.144903 4095.329274
160.430000 4076.997148 4081.293244 4085.958010 4086.602542 4092.451589 4096.694659
160.520000 4079.066964 4082.811940 4087.796625 4088.163865 4093.761483 4097.973786
160.620000 4080.899952 4084.942100 4089.768100 4089.932433 4095.300117 4099.693830
160.730000 4082.813129 4086.764127 4091.893821 4091.853090 4097.059455 4101.603172
160.850000 4085.209847 4088.836998 4094.046574 4094.170277 4099.685943 4104.697751
160.980000 4087.899315 4090.912716 4096.191888 4096.925292 4102.664834 4107.008108
160.984000 4087.953777 4090.992870 4096.248832 4097.009952 4102.763657 4107.133062
161.110000 4090.656903 4093.414571 4098.639385 4099.722811 4105.853391 4111.196571
161.250000 4093.430216 4096.207361 4101.348378 4102.590370 4109.331467 4114.358779
161.380000 4095.773314 4098.542996 4103.796857 4105.161214 4112.578653 4116.799676
161.510000 4097.924968 4100.599062 4105.905509 4107.656352 4115.301334 4119.864586
161.600000 4099.349033 4102.275627 4107.645745 4109.413307 4117.210829 4121.192352
161.690000 4100.995067 4103.702772 4109.848715 4111.195437 4118.930591 4123.345819
161.750000 4101.964326 4104.837979 4111.051575 4112.401022 4120.242770 4124.207477
161.810000 4103.217767 4106.043844 4112.264535 4113.590719 4121.551381 4125.573346
161.860000 4104.171267 4106.897584 4113.352337 4114.595622 4122.493399 4126.269985
161.910000 4105.062866 4107.897003 4114.239498 4115.575092 4123.502868 4127.615413
161.980000 4106.008334 4109.094732 4116.058692 4116.997904 4124.784239 4128.956763
162.050000 4107.405166 4110.257799 4117.407567 4118.383047 4126.228780 4130.467911
162.180000 4109.401361 4112.530203 4120.321792 4120.858643 4128.833935 4133.973805
162.295000 4111.605926 4114.704876 4122.607254 4123.025869 4131.065771 4135.670777
162.410000 4113.413550 4116.794483 4125.194519 4125.265975 4133.274505 4137.956097
162.520000 4115.627228 4119.235300 4128.024312 4127.479120 4135.263614 4140.213397
162.620000 4117.366485 4121.109990 4130.326656 4129.477108 4137.127624 4142.833874
162.710000 4118.802088 4123.201799 4132.728758 4131.354883 4138.678933 4144.503816
162.800000 4120.375458 4125.138435 4134.393313 4133.226715 4140.514370 4145.787015
162.880000 4121.895026 4127.064207 4136.465133 4134.943629 4142.157416 4147.083251
162.970000 4123.685216 4128.931848 4138.258660 4136.945425 4144.141934 4148.691510
163.040000 4125.299992 4130.423513 4140.084693 4138.537201 4145.726810 4150.479329
163.120000 4127.739990 4132.490048 4141.811011 4140.465696 4147.654168 4152.121418
163.230000 4130.243306 4135.097133 4144.215384 4143.104432 4150.079408 4154.196053
163.350000 4132.654063 4137.917760 4146.536566 4145.741341 4152.609636 4156.886816
163.460000 4135.630904 4140.659384 4148.516121 4148.085816 4154.906485 4159.086046
