depth(m) lower_95(kyr) lower_68(kyr) median(kyr) mean(kyr) upper_68(kyr) upper_95(kyr)
149.160000 3480.232042 3481.745739 3485.709439 3486.884452 3492.635371 3497.780678
149.280000 3482.556740 3484.698363 3488.621677 3489.716828 3495.442241 3500.374150
149.380000 3484.422974 3486.867460 3491.213395 3492.003041 3497.693410 3502.530161
149.480000 3486.200935 3488.989963 3493.850281 3494.270829 3499.935989 3504.816778
149.580000 3488.112611 3491.281475 3496.170278 3496.559906 3502.051569 3506.806158
149.680000 3490.177727 3493.719163 3498.461553 3498.892920 3504.474370 3509.325678
149.780000 3492.505764 3496.008448 3500.823020 3501.239905 3506.728258 3511.276432
149.880000 3495.177720 3498.645614 3503.496385 3503.674290 3508.805135 3513.425531
149.980000 3497.543872 3501.230406 3505.976564 3506.099230 3510.943498 3515.346338
150.080000 3500.295551 3504.213087 3508.533270 3508.704761 3513.094425 3517.365929
150.180000 3503.683971 3507.796449 3511.842978 3511.767392 3515.820098 3519.764784
150.280000 3507.556027 3511.314693 3514.955858 3514.923692 3518.527216 3522.310613
150.380000 3510.512338 3514.428934 3518.234053 3517.995983 3521.335116 3524.741203
150.480000 3513.846168 3517.610276 3521.148704 3520.973699 3524.235309 3527.344132
150.580000 3516.961245 3520.714618 3524.218404 3524.123754 3527.366889 3531.083891
150.680000 3520.700957 3524.408588 3527.795162 3527.916663 3531.414699 3535.104951
150.780000 3524.278817 3527.751209 3531.622463 3531.629101 3535.418545 3539.756497
150.880000 3527.524451 3530.924115 3534.702809 3534.931466 3539.282069 3542.898270
150.980000 3530.378089 3533.702212 3537.906990 3538.032282 3542.463210 3546.289618
151.080000 3532.674327 3536.372338 3540.886399 3540.901552 3545.213478 3549.096621
151.180000 3535.137179 3539.231316 3544.276947 3543.928637 3548.440454 3552.274669
151.280000 3537.547333 3542.066072 3547.188197 3546.874678 3551.274196 3555.009953
151.380000 3540.635688 3545.125013 3550.133802 3549.727674 3553.931546 3557.592165
151.480000 3543.375049 3547.930768 3552.723641 3552.353510 3556.484066 3559.948136
151.580000 3545.928446 3550.600981 3555.117887 3554.878180 3559.216111 3562.357168
151.680000 3548.782016 3552.992921 3557.622801 3557.367587 3561.597224 3564.575283
151.780000 3551.362493 3555.667908 3560.200641 3559.864419 3563.849824 3566.838898
151.880000 3554.098532 3558.494578 3563.014470 3562.517494 3566.369630 3569.394566
151.980000 3557.403037 3561.578932 3565.536372 3565.259007 3568.758715 3571.188669
152.080000 3560.096611 3564.585927 3568.388376 3567.964072 3571.219119 3574.019753
152.180000 3564.050191 3567.613936 3570.710022 3570.585447 3573.572988 3576.254468
152.280000 3567.094291 3570.081030 3573.030009 3573.045635 3575.944081 3578.864645
152.380000 3569.652583 3572.598046 3575.436386 3575.479003 3578.329024 3581.705041
152.480000 3572.087877 3575.174288 3577.792494 3577.976750 3580.736907 3584.955876
152.580000 3574.633963 3577.700497 3580.680155 3580.848732 3583.954728 3588.976205
152.680000 3577.088591 3580.303088 3583.601199 3584.025862 3587.795947 3593.226341
152.780000 3579.710563 3583.029955 3586.771971 3587.269027 3591.829499 3595.959302
152.880000 3582.385173 3585.700946 3589.849942 3590.210903 3594.878021 3599.567692
152.980000 3584.950216 3588.417890 3592.794613 3593.070069 3597.648186 3602.839178
153.080000 3587.183663 3591.239086 3596.056958 3595.890926 3600.427407 3605.109645
153.180000 3589.483417 3593.991148 3599.233693 3598.843155 3603.175695 3607.759098
153.280000 3592.075752 3597.327758 3602.227007 3601.795720 3605.888137 3610.361927
153.380000 3595.149675 3600.206904 3604.809759 3604.504430 3608.516062 3612.486905
153.480000 3598.483294 3603.132625 3607.291619 3607.112308 3611.088612 3614.662865
153.580000 3601.260768 3605.690688 3609.808470 3609.624469 3613.490876 3616.837570
153.680000 3603.936191 3608.374191 3612.171619 3612.170865 3615.910355 3619.423669
153.780000 3607.167053 3611.166325 3614.975430 3615.099250 3618.866359 3623.610331
153.880000 3610.138746 3614.390110 3618.396460 3618.583103 3622.673943 3628.305872
153.980000 3613.821378 3617.835917 3621.780510 3622.184292 3626.627098 3633.176341
154.080000 3618.144778 3621.800000 3625.880320 3626.349393 3631.154589 3636.264466
154.180000 3621.821537 3626.250573 3630.574586 3630.661844 3635.217291 3640.259390
154.280000 3625.311198 3630.855300 3635.107566 3634.947994 3639.328833 3643.395104
154.380000 3629.933670 3634.827023 3638.989458 3638.912655 3643.077021 3646.605950
154.480000 3634.419655 3639.012743 3642.854805 3642.667264 3646.366099 3649.896236
154.580000 3638.011077 3641.997757 3645.883909 3645.810598 3649.525978 3652.553295
154.680000 3640.972259 3644.998824 3648.876168 3648.771181 3652.445353 3655.662117
154.780000 3643.905028 3648.149588 3651.903565 3651.813392 3655.671138 3659.101339
154.880000 3647.058154 3651.142180 3654.927218 3654.996889 3658.898707 3663.014889
154.980000 3649.825286 3654.301394 3657.998858 3658.097033 3661.971858 3665.930592
155.080000 3653.966961 3657.492166 3661.227774 3661.398246 3665.185729 3669.470121
155.180000 3657.554468 3660.376680 3664.224975 3664.382682 3668.149916 3672.552142
155.280000 3660.719997 3663.529202 3667.191622 3667.285419 3670.909558 3675.711322
155.380000 3663.146503 3666.245780 3670.142973 3670.222950 3673.894272 3678.788245
155.480000 3665.600713 3669.103498 3673.022678 3673.384200 3677.286985 3683.540034
155.580000 3668.298384 3672.048456 3676.418967 3676.802364 3681.169875 3688.299486
155.680000 3670.799376 3675.014893 3679.867636 3680.422060 3685.681490 3693.387480
155.780000 3673.604974 3678.058625 3683.656362 3684.039928 3689.706518 3697.296944
155.880000 3676.043181 3680.638693 3687.026949 3687.389302 3694.065497 3700.629518
155.980000 3678.377319 3683.778146 3690.553578 3690.856668 3697.630588 3703.941579
156.080000 3681.110399 3686.886950 3694.486509 3694.290151 3700.936775 3707.356915
156.180000 3684.130279 3690.489670 3698.225447 3697.680409 3704.169128 3710.460000
156.280000 3687.497239 3694.392572 3701.758340 3701.247706 3707.722178 3712.803542
156.380000 3690.176804 3698.537197 3705.308033 3704.765825 3710.605041 3716.354644
156.480000 3693.031320 3702.380695 3708.570587 3708.194993 3713.900423 3720.527855
156.580000 3696.764434 3706.193291 3711.957146 3711.738496 3717.558803 3724.962626
156.680000 3699.727612 3709.039826 3715.405209 3715.256285 3721.334467 3729.733939
156.780000 3700.939348 3712.185278 3719.434518 3719.102800 3726.401825 3733.811481
156.880000 3704.051459 3715.414863 3723.402091 3723.111536 3730.960498 3739.062057
156.980000 3706.912486 3718.485230 3727.048926 3726.889577 3735.422321 3743.884354
157.080000 3711.065426 3721.279322 3731.175308 3730.597371 3740.337375 3748.358187
157.180000 3713.803885 3724.469549 3734.664486 3734.228373 3744.154255 3752.295862
157.280000 3717.709339 3727.932861 3737.931972 3737.829854 3748.178761 3756.487692
157.420000 3722.724754 3733.061736 3742.924556 3742.885758 3753.091374 3761.960212
157.520000 3726.266719 3736.587133 3746.643477 3746.661301 3756.886889 3765.813034
157.620000 3729.370067 3740.369511 3750.115119 3750.076175 3760.164447 3769.054987
157.720000 3732.602349 3744.136099 3753.548941 3753.546358 3763.801913 3772.101972
157.820000 3735.501646 3747.617290 3756.913036 3757.006933 3767.090336 3774.857516
157.920000 3739.416549 3751.135250 3760.880642 3760.676122 3771.190685 3777.383828
158.020000 3742.365522 3754.265713 3764.550452 3764.220355 3774.553559 3780.917310
158.120000 3745.648589 3757.635176 3768.250370 3767.699055 3777.837631 3784.839040
158.220000 3748.321464 3761.235652 3771.726756 3771.034066 3780.946522 3788.479157
158.320000 3750.443861 3764.357260 3774.915820 3774.320291 3784.107433 3792.532328
158.420000 3753.072390 3767.321814 3778.458689 3777.608005 3787.362210 3796.806699
158.520000 3756.439652 3770.863580 3782.049881 3780.807594 3790.101762 3800.017890
158.620000 3760.631998 3774.150482 3785.571361 3784.073551 3793.050452 3803.783141
158.720000 3764.544925 3777.259218 3788.834250 3787.383598 3796.465813 3807.382664
158.820000 3768.538076 3780.370902 3791.935996 3790.614776 3799.226083 3811.842452
158.920000 3772.276986 3783.697675 3795.192837 3793.826987 3802.301717 3814.460732
159.020000 3776.678666 3787.083958 3798.295969 3797.134979 3805.955049 3817.127437
159.120000 3780.694991 3790.230656 3801.341187 3800.363364 3808.919917 3820.475210
159.220000 3784.085394 3793.688532 3804.555350 3803.697095 3812.753347 3823.155263
159.320000 3786.944393 3797.712818 3807.706823 3807.101327 3816.307420 3826.295873
159.420000 3790.453582 3801.144497 3811.037320 3810.557451 3820.017615 3828.834240
159.520000 3793.600481 3804.828027 3814.035310 3813.981333 3823.495980 3831.668122
159.620000 3796.093600 3808.601531 3817.262644 3817.409720 3827.430373 3834.966760
159.720000 3799.409774 3812.521255 3820.899271 3820.860907 3830.968340 3838.034793
159.820000 3803.321088 3816.184574 3824.470183 3824.313045 3834.084351 3840.511984
159.920000 3806.282168 3819.440452 3827.966481 3827.787505 3837.559024 3843.078721
160.020000 3809.403045 3822.709031 3831.741825 3831.086726 3840.526864 3845.417033
160.120000 3813.362423 3826.159625 3835.265892 3834.446938 3843.247757 3848.057727
160.220000 3817.422667 3829.896582 3838.882405 3837.805606 3845.741020 3850.437785
160.320000 3821.535640 3833.613839 3842.523568 3841.121115 3848.449568 3852.778747
160.420000 3825.243589 3837.162608 3845.769651 3844.392250 3851.352936 3855.056849
160.520000 3829.516954 3840.802536 3848.786914 3847.512353 3853.979484 3857.740958
160.620000 3833.849009 3844.044287 3851.767796 3850.587541 3856.448169 3860.005772
160.720000 3837.796598 3847.925939 3854.838647 3853.661432 3859.084722 3862.474393
160.820000 3841.860539 3851.808626 3857.810475 3856.752096 3861.825218 3864.878436
160.920000 3847.029174 3855.404556 3860.944623 3859.937087 3864.638102 3867.904741
161.020000 3852.098922 3859.210938 3863.860080 3863.334958 3867.791432 3871.034968
161.120000 3856.255842 3862.832160 3866.925844 3866.550182 3870.486605 3873.712857
161.220000 3860.558604 3865.990872 3869.602876 3869.606364 3873.274141 3877.219287
161.320000 3864.763932 3869.222015 3872.656196 3872.568803 3876.060287 3879.924747
161.420000 3868.225382 3872.290648 3875.618510 3875.640787 3878.989727 3883.363106
161.520000 3871.166160 3875.322377 3878.754096 3878.859339 3882.436976 3887.074586
161.620000 3875.028695 3878.627696 3882.040544 3882.325926 3886.024631 3891.617463
161.720000 3878.102980 3881.797213 3885.408387 3885.765468 3889.904737 3895.556012
161.820000 3881.168633 3884.513800 3888.574004 3888.941671 3893.276447 3899.135703
161.920000 3883.754653 3887.326280 3891.654700 3892.022880 3896.909611 3902.389494
162.020000 3886.057793 3889.917603 3894.683232 3895.067092 3900.272738 3905.754143
162.120000 3888.845614 3892.507239 3897.853466 3898.189747 3903.728149 3909.218643
162.220000 3891.241048 3895.050831 3900.989072 3901.305826 3907.364470 3913.256874
162.320000 3893.872669 3898.218407 3904.229734 3904.445710 3910.744924 3916.003895
162.420000 3896.425873 3901.481261 3907.866310 3907.679347 3913.809801 3919.696610
162.520000 3899.090201 3904.525112 3911.074638 3910.857008 3917.066280 3922.494806
162.620000 3901.396142 3907.505182 3914.278351 3914.008691 3920.178551 3925.357736
162.720000 3904.472130 3911.004276 3917.782454 3917.366224 3923.387363 3928.684016
162.820000 3907.605301 3914.379136 3921.128447 3920.932539 3927.053379 3933.577787
162.920000 3911.523997 3917.905914 3924.812039 3924.512611 3930.706032 3937.604130
163.020000 3914.425628 3921.539994 3927.967589 3927.875371 3934.542301 3941.366587
163.120000 3917.626777 3924.774136 3930.878562 3931.201892 3938.085880 3944.839597
163.220000 3920.628309 3928.145920 3934.629508 3934.733972 3941.459230 3948.741916
163.320000 3924.439999 3931.750879 3938.154787 3938.272841 3945.117535 3952.420370
163.420000 3928.908170 3935.221562 3941.557106 3941.760671 3948.756810 3955.232072
163.520000 3931.667567 3938.645149 3945.665723 3945.395205 3952.426809 3957.997592
163.620000 3934.424336 3942.225934 3949.229455 3948.968595 3955.695111 3960.761708
163.720000 3938.015454 3946.035049 3953.204327 3952.633211 3958.846633 3963.433137
163.820000 3941.931152 3949.819112 3957.240416 3956.532678 3962.521527 3966.885233
163.920000 3945.701630 3954.258081 3961.250956 3960.485843 3966.204185 3970.402458
164.020000 3948.445845 3959.304574 3965.441279 3964.480950 3970.057034 3974.654406
164.120000 3952.659670 3962.807785 3968.965325 3967.852443 3973.313491 3977.877502
164.220000 3955.648189 3966.264078 3971.863714 3971.106318 3976.529250 3980.751356
164.320000 3959.054225 3969.056628 3974.700946 3974.012085 3979.603233 3983.155661
164.410000 3961.930829 3971.784083 3977.119264 3976.502302 3981.800400 3985.966668
164.500000 3964.914874 3974.038630 3979.489887 3978.982365 3984.166654 3988.796616
164.600000 3967.421855 3976.894408 3982.152381 3981.715081 3986.940778 3991.813596
164.700000 3972.085665 3980.148552 3984.877635 3984.604603 3989.631755 3994.828349
164.800000 3975.982281 3982.764165 3987.756660 3987.556693 3992.330860 3997.724422
164.900000 3979.027959 3985.548743 3990.691064 3990.412748 3995.056568 4001.171183
165.000000 3982.855286 3988.577635 3993.638408 3993.499911 3997.965931 4004.401944
165.100000 3988.697761 3992.113491 3996.719890 3996.699776 4001.039045 4006.765381
165.200000 3991.696093 3995.344561 3999.646492 3999.761275 4003.659371 4009.683472
165.300000 3994.810767 3998.667095 4002.621049 4002.966730 4007.083160 4013.178930
165.400000 3997.823258 4001.776743 4006.172669 4006.579759 4011.377003 4017.791393
165.500000 4000.627600 4005.519145 4010.948057 4011.746139 4018.860781 4024.531558
165.600000 4003.251335 4009.133340 4016.653165 4016.596306 4024.216884 4029.767924
165.700000 4005.809932 4012.808866 4022.004153 4021.168848 4028.925360 4033.148231
165.800000 4008.610556 4017.182735 4027.171017 4025.545935 4032.586051 4035.962098
165.900000 4012.548980 4021.760547 4031.210647 4029.420576 4035.580740 4039.260288
166.000000 4016.434433 4027.415573 4034.270845 4032.813065 4038.046913 4042.058067
166.100000 4020.638226 4031.407237 4037.013512 4035.942319 4040.503850 4044.405423
166.200000 4025.129280 4035.061617 4039.496995 4038.881459 4043.003390 4046.789327
166.300000 4031.641746 4038.396822 4041.992126 4041.794287 4045.473077 4049.763148
166.400000 4035.497738 4041.436302 4044.942088 4044.846934 4048.463021 4053.277784
166.500000 4039.580721 4044.276470 4047.912843 4048.113960 4051.733185 4058.347296
166.600000 4043.737836 4047.824055 4051.701095 4052.118405 4056.270118 4063.864315
166.700000 4046.961461 4050.901201 4055.332864 4055.932881 4060.979360 4068.162392
166.800000 4049.476748 4054.058378 4059.459104 4059.830370 4065.675378 4072.182145
166.900000 4053.344558 4057.600552 4063.510720 4063.726423 4069.812722 4075.950644
167.000000 4056.628496 4061.234100 4067.539388 4067.568142 4073.759203 4079.546745
167.120000 4060.580501 4066.033846 4072.312763 4072.204826 4078.396804 4083.712002
167.220000 4063.759848 4069.943195 4076.586346 4076.180495 4082.048815 4086.766632
167.320000 4068.109444 4074.311573 4080.403286 4080.150842 4085.557276 4090.175714
167.420000 4071.434692 4078.507788 4084.354813 4083.883271 4089.168651 4093.569142
167.520000 4075.725096 4082.879299 4087.979367 4087.698679 4092.805180 4097.918478
167.620000 4079.111781 4086.793985 4091.879522 4091.825269 4096.833342 4103.764118
167.720000 4083.023016 4091.058259 4096.410471 4096.524722 4102.352013 4110.124026
167.820000 4087.493076 4094.574523 4100.012286 4100.617870 4107.008092 4116.037192
167.920000 4091.680336 4098.018238 4104.060585 4104.632585 4111.057477 4121.858415
168.020000 4095.312855 4101.618582 4107.916996 4108.497102 4115.516132 4126.942286
168.120000 4099.657003 4104.854292 4111.937477 4112.517473 4119.380542 4131.014093
168.220000 4102.772236 4108.298422 4115.864423 4116.562438 4124.013840 4137.888281
168.330000 4106.211949 4112.400762 4120.344696 4121.100147 4129.423694 4143.963207
168.430000 4109.264954 4115.912109 4124.220910 4125.299378 4134.164333 4149.228051
168.530000 4111.947795 4119.743078 4128.190282 4129.698992 4139.217278 4157.624956
168.630000 4115.166072 4123.260909 4132.059527 4133.864627 4144.241684 4164.774479
168.730000 4118.650597 4126.459231 4135.530699 4138.069197 4149.047087 4172.156909
168.830000 4122.329126 4130.113822 4139.154833 4142.295983 4155.543724 4176.336436
168.930000 4125.843490 4133.532637 4142.566919 4146.628471 4162.889139 4180.399458
169.030000 4129.063532 4137.714427 4145.969385 4150.751423 4169.460686 4186.015913
169.130000 4132.222279 4141.359177 4149.205759 4154.845501 4174.699656 4190.490808
169.230000 4136.096461 4144.959761 4152.666021 4159.083446 4180.036950 4196.843636
169.330000 4140.132853 4148.732006 4156.379789 4163.177170 4184.985850 4203.733362
169.430000 4145.508831 4152.620244 4159.980111 4167.670606 4190.976376 4208.029618
169.530000 4150.599386 4156.536040 4164.031181 4172.274138 4196.359908 4215.858968
169.630000 4154.915420 4160.354289 4168.084833 4176.919640 4201.363091 4221.879300
169.730000 4158.526680 4164.295927 4172.994236 4181.750483 4207.646889 4227.636200
169.850000 4163.305319 4169.236557 4178.438900 4187.653584 4214.216763 4235.812133
169.950000 4167.783362 4173.730242 4183.414986 4192.556277 4219.809303 4241.208645
170.050000 4170.870946 4177.252062 4188.412186 4197.307495 4226.902016 4246.701864
170.150000 4174.185092 4181.151760 4193.907254 4202.094108 4232.870876 4249.957937
170.250000 4177.550337 4184.780886 4199.661467 4207.142402 4237.829915 4255.340247
170.350000 4180.901401 4188.704267 4204.667591 4211.969284 4243.490272 4260.141842
170.450000 4184.646054 4193.081915 4210.728904 4217.108188 4248.278699 4263.727478
170.550000 4188.233572 4197.503505 4217.073649 4222.037842 4252.276466 4266.997738
170.650000 4191.732999 4201.929252 4222.919151 4227.088997 4257.566217 4270.464083
170.750000 4194.841166 4206.660856 4228.676749 4232.293951 4262.667717 4274.347942
170.850000 4198.620788 4210.790764 4234.943562 4237.424591 4266.669963 4278.192102
170.950000 4202.960309 4215.364490 4240.491273 4242.397753 4271.476476 4282.121810
171.050000 4206.606073 4220.035824 4245.789820 4247.257130 4275.821188 4285.847187
171.150000 4211.577424 4225.262228 4252.172025 4252.494105 4280.536055 4289.453792
171.250000 4216.037149 4230.507292 4257.362296 4257.612004 4284.645374 4293.356497
171.350000 4220.738733 4236.216367 4264.255793 4262.656436 4288.509239 4297.202910
171.450000 4226.876733 4242.288267 4270.902221 4267.950870 4292.665011 4301.508015
171.550000 4232.009456 4247.406763 4276.483925 4272.937070 4296.009778 4305.331254
171.590000 4234.419977 4249.428320 4278.841068 4274.837187 4297.563150 4307.197604
171.690000 4240.005312 4255.080748 4283.708433 4279.906223 4301.774656 4311.396197
171.790000 4244.156736 4260.505236 4288.689144 4284.857764 4305.943250 4315.029274
171.890000 4249.662609 4266.334026 4293.839487 4289.929522 4309.464455 4318.530515
171.990000 4254.528121 4272.103468 4298.394253 4294.831692 4313.687345 4322.905704
172.090000 4259.890449 4277.972597 4302.963511 4299.635102 4317.878065 4327.630931
172.190000 4264.110777 4283.515064 4307.727592 4304.516551 4322.164571 4331.742843
172.290000 4269.933422 4291.023363 4312.651187 4309.478311 4326.206124 4335.823496
172.390000 4273.753477 4296.552272 4317.126134 4314.294380 4330.383077 4339.191612
172.490000 4277.505137 4303.105578 4322.542798 4319.180998 4334.513872 4343.334672
172.590000 4282.874109 4309.219003 4327.139047 4324.049269 4338.868034 4347.805384
172.690000 4288.016616 4315.317195 4331.400717 4328.928800 4343.034114 4351.164778
172.790000 4293.981717 4320.752083 4336.483560 4333.735584 4347.163428 4354.860682
172.890000 4298.627805 4326.505595 4341.514450 4338.727706 4351.337752 4357.900647
172.990000 4303.242033 4332.240305 4347.047127 4343.663768 4355.541480 4361.466882
