depth(m) lower_95(kyr) lower_68(kyr) median(kyr) mean(kyr) upper_68(kyr) upper_95(kyr)
164.680000 3491.582653 3543.364005 3588.511014 3582.301756 3623.524426 3651.967196
164.755000 3497.107252 3549.272256 3593.987874 3588.138272 3629.068279 3655.518778
164.830000 3503.707351 3556.457685 3599.908282 3594.160382 3634.542918 3659.890962
164.930000 3511.048928 3565.912928 3607.748022 3602.358770 3640.505659 3666.478658
165.030000 3517.365792 3574.770152 3616.430395 3610.246401 3646.186901 3672.822879
165.130000 3523.838769 3583.245411 3624.568506 3618.042809 3652.202604 3681.333251
165.205000 3533.660431 3588.816611 3630.969966 3624.029353 3656.460951 3687.408273
165.280000 3541.227939 3595.673896 3636.030451 3629.790858 3660.961753 3694.070387
165.355000 3553.323953 3599.494400 3641.854985 3635.744336 3665.412782 3699.587371
165.430000 3563.097703 3603.329147 3646.265118 3641.465481 3671.232517 3707.382343
165.505000 3568.261463 3609.259176 3650.710821 3646.992933 3676.737177 3714.106414
165.580000 3575.758151 3615.353658 3654.970453 3652.438586 3682.817449 3719.570013
165.655000 3581.993522 3620.442276 3660.670700 3658.035112 3688.683111 3725.028138
165.730000 3586.836661 3625.603189 3664.611449 3663.715293 3695.340647 3730.643319
165.805000 3589.529682 3630.298669 3670.692838 3669.387144 3701.662116 3736.712798
165.880000 3595.276308 3636.878918 3676.487003 3675.081544 3708.090943 3740.755200
165.955000 3603.797647 3646.027729 3682.768941 3680.752900 3714.204631 3744.990476
166.030000 3613.411233 3652.599339 3689.497975 3686.344451 3721.689552 3749.675821
166.105000 3618.257565 3658.693570 3696.909922 3691.928836 3727.596664 3754.556871
166.180000 3623.145400 3664.929535 3702.685006 3697.369028 3734.687935 3760.273886
166.280000 3629.181198 3671.077703 3710.200207 3705.023411 3742.278210 3767.328060
166.380000 3633.745147 3676.580468 3716.679896 3712.293557 3749.964594 3774.892972
166.480000 3639.239128 3683.132924 3724.201148 3719.582023 3758.127421 3782.929140
166.610000 3647.887423 3691.109099 3733.577744 3729.229470 3768.368051 3792.432991
166.695000 3652.149004 3697.000017 3740.393847 3735.275355 3774.693755 3798.911261
166.780000 3656.869566 3702.748707 3746.606650 3741.394817 3779.851465 3805.375302
166.880000 3661.570062 3710.030383 3753.736072 3748.861869 3786.393739 3811.413715
166.980000 3667.723206 3717.275169 3760.757325 3756.477502 3794.126889 3818.245928
167.080000 3674.345653 3725.360465 3767.954047 3764.094777 3800.982313 3828.935898
167.180000 3680.779459 3732.272534 3776.925961 3771.702429 3807.771997 3836.594679
167.280000 3686.370056 3739.752052 3786.215133 3779.475995 3814.442315 3844.988256
167.380000 3693.285948 3746.790174 3793.460073 3786.824302 3821.128160 3853.123495
167.455000 3700.120297 3752.371248 3799.991731 3792.808313 3827.166493 3860.611804
167.530000 3706.589607 3758.789880 3805.959950 3798.487915 3832.429009 3866.515616
167.605000 3711.668169 3765.559478 3812.712433 3804.439194 3837.942240 3871.718114
167.680000 3717.733120 3771.963932 3818.480055 3810.432118 3844.073550 3875.873084
167.780000 3724.773347 3780.423865 3826.570064 3818.454343 3851.255293 3883.508838
167.880000 3732.092394 3788.470924 3834.116586 3826.728936 3860.988138 3890.327213
167.980000 3739.139224 3798.274489 3842.459739 3834.729913 3869.469059 3895.515161
168.110000 3750.113544 3809.991135 3853.042617 3845.312551 3879.650983 3901.996012
168.195000 3756.791811 3816.539475 3860.322346 3852.209100 3884.385484 3906.882857
168.280000 3765.745243 3823.142096 3867.852404 3859.164333 3890.731950 3912.680975
168.355000 3770.641590 3829.624155 3872.987363 3864.841434 3896.015767 3915.188018
168.430000 3776.796304 3834.944806 3878.016824 3870.688653 3901.640824 3920.290509
168.505000 3784.227472 3841.501421 3883.927717 3876.856902 3908.000207 3925.264325
168.580000 3790.270922 3850.123611 3889.560727 3882.862687 3913.922154 3929.226809
168.655000 3794.955362 3857.641857 3895.678811 3888.917907 3919.748367 3933.607566
168.730000 3799.263169 3864.112527 3901.497205 3894.683831 3924.591649 3938.163133
168.805000 3806.027563 3871.757451 3908.034988 3900.459479 3929.239930 3942.898250
168.880000 3812.384610 3878.548729 3914.409515 3906.149827 3935.123844 3946.452785
168.955000 3819.574257 3887.227736 3920.306686 3911.945314 3939.256404 3950.284196
169.030000 3824.920476 3893.147168 3925.608374 3917.712681 3944.260591 3956.683256
169.105000 3833.968617 3898.900879 3931.398092 3923.386098 3948.755447 3960.048266
169.180000 3836.693526 3905.414878 3936.707181 3929.134522 3953.485267 3965.368359
169.255000 3842.921104 3912.018742 3941.861074 3934.553621 3957.661989 3968.731893
169.330000 3847.081685 3918.132513 3947.085592 3940.003724 3962.166748 3974.371649
169.405000 3851.495151 3924.542220 3952.429182 3945.671164 3966.701279 3980.120949
169.480000 3856.631589 3931.587956 3958.088791 3951.412402 3971.158347 3986.560941
169.580000 3862.547822 3940.968915 3964.934781 3958.644302 3977.051414 3997.105514
169.680000 3869.346518 3950.886678 3971.722611 3966.229762 3983.160639 4007.060205
169.780000 3873.741722 3959.459002 3977.894485 3973.519934 3990.008494 4017.013536
169.855000 3877.127342 3966.423941 3982.779942 3979.384003 3995.725269 4023.894368
169.930000 3879.780932 3973.673816 3987.582749 3985.196255 4001.036551 4031.507943
170.005000 3881.843569 3980.596787 3992.522413 3990.639678 4006.276180 4036.806107
170.080000 3887.100409 3985.683090 3997.266284 3995.918242 4012.781683 4040.541414
170.155000 3892.420051 3990.128258 4002.209176 4001.247694 4019.745582 4046.013005
170.230000 3898.518631 3993.319667 4007.526803 4006.623310 4027.046793 4050.409719
170.305000 3905.516152 3998.422780 4011.876670 4011.877808 4033.110031 4055.767885
170.380000 3913.243208 4002.227637 4016.963488 4017.050963 4039.154104 4059.648257
170.455000 3918.709932 4007.069464 4021.915759 4022.136441 4044.408789 4063.891562
170.530000 3924.625127 4011.424033 4027.100281 4027.144984 4049.697133 4067.603617
170.605000 3930.737007 4015.725649 4031.649457 4032.380107 4057.078736 4072.604698
170.680000 3945.176253 4019.667806 4038.655151 4037.707751 4063.056908 4077.148249
170.755000 3953.641976 4024.880901 4045.164887 4043.331950 4070.040966 4081.989848
170.830000 3960.213074 4029.723703 4051.836643 4049.089103 4076.446232 4086.796895
170.905000 3968.592499 4034.292221 4058.251449 4054.790734 4081.231444 4092.305756
170.980000 3975.205758 4038.947981 4065.285342 4060.607406 4086.657416 4097.099211
171.110000 3985.976101 4048.551641 4079.124392 4072.420777 4095.590119 4107.354738
171.216667 3994.304104 4055.973275 4089.089141 4081.623699 4104.023567 4117.053064
171.323333 4001.366879 4064.157512 4098.421642 4090.860690 4112.324676 4126.967991
171.430000 4008.084364 4073.030922 4107.497139 4099.928522 4122.004052 4134.923699
171.505000 4012.038746 4077.528651 4113.846185 4105.964180 4128.135236 4139.452889
171.580000 4017.765009 4083.491559 4119.947865 4111.870694 4133.835502 4144.348448
171.655000 4022.181460 4090.291945 4126.215753 4117.639770 4139.052214 4148.661288
171.730000 4026.977736 4099.148946 4132.662180 4123.524072 4144.506568 4152.818961
171.805000 4030.229347 4111.691474 4139.105155 4129.181745 4150.021370 4158.876871
171.880000 4033.584677 4117.851542 4144.974775 4134.690324 4155.075596 4162.992968
171.955000 4037.339359 4126.438569 4149.998479 4139.698278 4158.889528 4167.698202
172.030000 4041.562884 4131.987175 4154.583157 4144.660185 4162.836419 4172.430653
172.105000 4046.943857 4138.067020 4158.877876 4149.228909 4166.929988 4178.457631
172.180000 4051.095032 4143.716449 4162.774311 4153.794321 4171.160968 4184.134340
172.255000 4055.515282 4148.192168 4166.660019 4158.520389 4176.350727 4188.648253
172.330000 4061.322018 4152.527834 4170.761268 4163.238355 4181.003611 4194.479340
172.405000 4067.380033 4156.988180 4174.837474 4167.886944 4185.794403 4199.235457
172.480000 4072.107647 4162.890622 4178.924192 4172.569552 4190.552125 4204.597117
172.610000 4079.382200 4171.274517 4186.618572 4180.878569 4198.334307 4215.420038
172.695000 4084.142404 4177.450164 4191.848216 4186.468261 4203.292715 4223.576118
172.780000 4088.213182 4182.441113 4196.452421 4191.920253 4208.055613 4228.644996
172.855000 4092.574108 4187.131068 4201.044233 4196.658432 4212.601385 4234.678082
172.930000 4100.626682 4191.626720 4205.247711 4201.469839 4216.822854 4240.803206
173.005000 4107.944521 4195.994834 4209.288236 4206.205008 4221.114847 4246.969293
173.080000 4121.270155 4200.970669 4213.201122 4210.887938 4225.701080 4252.127741
173.155000 4128.964253 4206.542686 4217.181456 4215.372906 4229.824000 4257.006944
173.230000 4135.225317 4210.921158 4221.314790 4219.890727 4233.698296 4263.165654
173.335000 4146.313734 4216.459466 4227.313669 4226.233150 4241.256462 4267.639559
173.440000 4155.961484 4221.911719 4233.330361 4232.695478 4249.110602 4274.432033
173.540000 4160.668683 4226.528420 4238.694767 4238.585365 4256.723855 4282.807106
173.640000 4165.620899 4231.286202 4243.793381 4244.344351 4263.123647 4291.191337
173.740000 4174.987129 4235.767940 4248.811065 4250.064330 4270.124847 4299.121657
173.882500 4191.885118 4241.554808 4256.028995 4258.195821 4278.630803 4312.777262
174.025000 4207.800620 4247.664999 4262.732949 4266.092966 4287.128943 4321.023711
174.167500 4222.037024 4254.119293 4270.665765 4274.516994 4296.269805 4338.731063
174.310000 4232.207142 4260.736397 4277.234326 4282.743752 4308.273682 4355.651385
174.452500 4246.727010 4267.936114 4284.316546 4291.053836 4319.068304 4369.310414
174.595000 4256.241818 4274.229290 4291.555348 4299.359459 4328.933452 4382.166505
174.737500 4264.439027 4280.511981 4299.599717 4308.002123 4339.769426 4397.275774
174.880000 4272.664372 4287.706286 4307.486545 4316.512935 4349.148762 4406.942756
174.955000 4275.821111 4292.386197 4311.829168 4321.176708 4354.625635 4412.264643
175.030000 4280.706906 4296.717553 4315.607939 4326.034465 4360.346142 4418.250448
175.130000 4286.903917 4302.408826 4321.589616 4332.532057 4366.144470 4429.361974
175.230000 4292.841493 4308.310200 4327.900375 4339.123694 4372.417636 4439.531393
175.330000 4298.165253 4314.242356 4334.245422 4345.732697 4378.845705 4446.619755
175.405000 4303.956609 4319.009705 4339.429499 4351.252791 4383.713540 4453.879534
175.480000 4308.447019 4324.612688 4345.467115 4356.770599 4388.199339 4459.797815
175.555000 4312.681330 4330.652702 4351.397998 4362.607992 4394.281461 4464.680867
175.630000 4318.821973 4337.057279 4358.447327 4368.654884 4400.147305 4470.158692
175.705000 4323.389627 4341.412448 4366.489222 4375.083130 4407.175628 4474.761619
175.780000 4327.706137 4346.388048 4375.348195 4381.488909 4413.370773 4479.070314
175.855000 4334.662986 4350.894563 4382.690470 4387.775807 4421.973692 4483.492455
175.930000 4339.752051 4355.869665 4390.527110 4394.241349 4428.381074 4488.177399
176.005000 4346.282403 4361.628403 4397.165590 4400.799660 4435.196398 4494.319419
176.080000 4351.590614 4367.489469 4403.847465 4407.057623 4440.311881 4500.489964
176.210000 4359.811138 4376.295121 4413.236742 4418.292721 4455.275434 4510.231593
176.295000 4366.413119 4384.283519 4419.595909 4425.304304 4463.943095 4515.995984
176.380000 4370.207694 4393.190778 4426.692209 4432.645444 4472.079298 4522.853543
176.480000 4376.561208 4404.409124 4435.471434 4441.189636 4480.709899 4530.972456
176.580000 4381.300112 4414.703060 4444.847583 4449.660416 4490.943436 4537.138286
176.680000 4385.461029 4423.969925 4453.823336 4458.278988 4502.295140 4545.050629
176.755000 4389.417030 4428.680245 4460.169760 4464.687118 4507.658586 4550.344938
176.830000 4392.815763 4433.650809 4466.468260 4470.992095 4513.759471 4555.907562
176.905000 4399.869674 4438.539191 4472.694043 4477.550955 4521.119419 4560.240758
176.980000 4405.978862 4443.078856 4480.129914 4484.352837 4527.987259 4566.318789
177.055000 4412.125974 4447.607530 4489.237015 4491.018641 4535.381760 4571.075691
177.130000 4418.521611 4452.727977 4497.866056 4497.633059 4541.782986 4581.193865
177.205000 4427.033883 4457.864004 4505.248636 4504.465812 4549.042597 4588.350994
177.280000 4433.717740 4462.196798 4511.922472 4511.169175 4558.013851 4595.247821
177.355000 4441.473026 4469.639174 4518.691731 4517.941942 4566.985287 4603.717490
177.430000 4446.561220 4476.473184 4524.615040 4524.738960 4575.279354 4612.369463
177.505000 4451.840113 4483.178841 4531.243814 4531.337941 4581.459561 4621.616630
177.580000 4459.264383 4491.718228 4537.780525 4537.671380 4586.582813 4626.949396
177.710000 4470.986030 4503.087097 4549.471412 4549.420331 4596.570837 4639.564942
177.795000 4477.674854 4510.252837 4555.813749 4556.783130 4602.067022 4645.451471
177.880000 4483.917683 4518.050246 4562.864248 4564.208536 4608.405200 4650.733250
177.955000 4488.484707 4524.243318 4568.831037 4570.935953 4615.516474 4656.546976
178.030000 4494.637500 4533.533632 4575.294955 4577.515885 4620.868233 4663.258700
178.105000 4499.455919 4541.759726 4583.321960 4584.446167 4627.246146 4672.720627
178.180000 4505.487356 4550.955378 4590.437432 4591.339167 4633.508200 4681.752612
178.280000 4514.810178 4562.092243 4598.805323 4600.315153 4642.671052 4687.750387
178.380000 4526.056431 4570.060114 4606.796064 4609.267636 4652.755899 4694.939094
178.480000 4535.312826 4577.718998 4616.472130 4618.205227 4662.096453 4702.248852
178.555000 4544.097920 4583.514444 4624.783730 4625.038438 4669.205418 4706.698068
178.630000 4552.990320 4589.461122 4631.262243 4631.560157 4676.353593 4710.953058
178.705000 4560.951881 4595.829654 4638.424942 4638.652402 4684.817367 4717.607181
178.780000 4567.563281 4601.516933 4644.947608 4645.768436 4693.082302 4723.179925
178.855000 4574.713322 4606.963668 4652.274975 4652.698070 4700.167766 4729.522434
178.930000 4580.081411 4612.539621 4658.893599 4659.650384 4707.099597 4737.069217
179.005000 4587.762738 4618.778112 4665.154125 4666.508192 4712.818467 4742.436804
179.080000 4594.614277 4626.403868 4671.726947 4673.622922 4718.390518 4747.426532
179.210000 4604.609283 4639.086735 4684.292125 4686.216315 4730.252497 4758.526719
179.295000 4610.318761 4646.948778 4693.390403 4694.480560 4738.265358 4765.800724
179.380000 4619.626522 4654.612086 4702.343606 4703.393558 4747.489024 4775.579636
179.455000 4623.491215 4663.829319 4712.320172 4711.207867 4754.302893 4782.283023
179.530000 4626.896623 4670.400037 4721.422815 4718.568245 4761.382587 4789.651435
179.605000 4634.293158 4677.653034 4730.560060 4726.197786 4768.961208 4796.529619
179.680000 4638.325896 4684.209752 4738.335729 4733.585004 4776.528574 4805.251621
179.755000 4644.063174 4688.739938 4746.022650 4741.137578 4784.016759 4815.585387
179.830000 4649.308025 4697.436835 4753.777181 4748.969232 4792.857207 4827.206103
179.905000 4654.531253 4703.850441 4762.778660 4756.854175 4800.844335 4834.238948
179.980000 4661.887536 4709.482287 4770.876393 4764.554913 4809.359969 4842.722322
180.055000 4670.515231 4717.530109 4779.732460 4772.723817 4817.534960 4849.700433
180.130000 4679.747652 4724.589186 4788.517284 4780.117972 4825.789265 4855.970814
180.205000 4688.088057 4732.811137 4796.305421 4787.780761 4833.818850 4861.214355
180.280000 4696.402016 4741.503831 4803.983383 4795.194272 4841.900784 4866.159754
180.355000 4703.671465 4747.315302 4812.342359 4803.001348 4851.624446 4872.628053
180.430000 4710.653508 4753.025959 4819.617321 4810.477597 4860.642342 4878.829955
180.505000 4717.158094 4757.909364 4826.058756 4817.782394 4867.687464 4886.755761
180.580000 4724.688968 4763.682509 4832.345210 4824.966374 4874.177585 4893.234241
180.655000 4732.246375 4770.233609 4838.629197 4832.066310 4881.616970 4902.997054
180.730000 4738.221876 4777.356883 4844.561810 4839.040195 4888.343236 4908.320426
180.805000 4746.532498 4783.020306 4850.809551 4845.682151 4894.054646 4915.378595
180.880000 4755.284212 4789.167849 4857.133786 4852.575848 4900.387547 4922.700435
180.955000 4762.907816 4795.639865 4864.367993 4859.182444 4907.322160 4931.491970
181.030000 4766.771130 4805.600946 4870.523812 4865.823748 4914.232643 4939.244699
181.105000 4772.602896 4812.441412 4876.810154 4872.290323 4920.318616 4945.493376
181.180000 4777.568958 4818.485515 4883.874006 4878.625578 4925.252924 4953.560957
181.255000 4782.697514 4824.536555 4892.342190 4884.986751 4932.852843 4959.229451
181.330000 4787.468618 4833.687052 4900.097982 4891.176211 4939.417510 4964.499104
181.405000 4793.962788 4843.261561 4907.161533 4897.299766 4946.715338 4969.504632
181.480000 4797.795909 4852.726114 4913.342419 4903.314553 4952.913673 4975.755236
181.555000 4806.196603 4859.340185 4918.582371 4909.305515 4958.401396 4981.546318
181.630000 4812.944142 4866.017440 4923.661676 4914.929549 4963.246367 4986.541034
181.705000 4819.073751 4872.202403 4928.843473 4920.493593 4967.635039 4991.303299
181.780000 4824.554632 4879.025618 4933.585855 4926.176147 4972.499765 4996.895960
181.855000 4830.424222 4886.740286 4937.755393 4931.520611 4977.551679 5001.641961
181.930000 4836.098542 4894.779888 4942.285249 4936.877518 4981.918091 5005.307225
182.005000 4840.487294 4901.808302 4947.702340 4942.501489 4988.084660 5010.678359
182.080000 4845.921261 4907.834763 4952.363531 4947.734079 4993.501488 5015.354858
182.210000 4855.984917 4921.053146 4962.343776 4957.404113 5001.251939 5021.523840
182.295000 4861.014203 4925.446099 4969.180777 4963.323633 5007.383318 5026.385728
182.380000 4865.528145 4930.636850 4975.459261 4969.132142 5012.377234 5031.315784
182.480000 4871.998011 4939.048514 4982.817926 4976.139196 5019.200669 5036.779791
182.580000 4879.201524 4946.801347 4989.303078 4983.108281 5025.834995 5042.624824
182.680000 4885.425842 4953.198472 4995.616774 4990.036764 5032.777910 5048.326293
182.755000 4890.014872 4958.240955 5000.303522 4995.229783 5038.711753 5052.624788
182.830000 4894.384566 4963.370068 5004.646525 5000.613074 5045.189154 5056.980287
182.905000 4899.720382 4967.464183 5008.986413 5005.886017 5050.922048 5062.353170
182.980000 4903.849656 4973.357133 5012.736574 5010.933004 5056.416968 5067.447380
183.055000 4907.384646 4978.753750 5016.210067 5015.914681 5061.765375 5072.967680
183.130000 4911.968143 4984.835093 5020.002277 5021.051356 5068.187556 5077.355802
183.230000 4917.798214 4993.307092 5024.807474 5027.659951 5074.751651 5082.906827
183.330000 4921.729237 5001.884038 5029.470681 5034.365922 5080.814041 5088.636580
183.430000 4926.654775 5009.453358 5034.003291 5040.566240 5086.534885 5092.505078
183.530000 4931.584372 5015.945467 5039.452655 5046.856609 5092.087582 5098.294352
183.580000 4934.578870 5019.923271 5042.516257 5050.005098 5095.085664 5101.129204
183.710000 4941.741644 5031.573971 5051.038273 5057.950320 5101.362172 5108.856172
183.795000 4947.240156 5038.764197 5055.903387 5062.855402 5105.405384 5112.907587
183.880000 4952.310808 5043.992941 5061.327516 5067.787376 5109.180928 5117.584009
183.955000 4957.428745 5049.277695 5067.910810 5072.400813 5113.277059 5121.729871
184.030000 4961.509958 5054.346515 5074.280586 5076.873639 5116.271521 5125.381224
184.105000 4966.144169 5058.605348 5080.115711 5081.510558 5119.792158 5128.611577
184.180000 4971.278418 5063.380286 5086.912822 5086.223998 5123.244042 5132.637891
184.310000 4984.044048 5071.131488 5101.250083 5094.701393 5129.055050 5139.264321
184.440000 4991.482650 5079.196218 5115.524105 5102.760839 5134.759734 5145.342420
184.460000 4993.047571 5080.396395 5117.494863 5104.073913 5135.969996 5146.841086
184.545000 5001.230352 5087.890973 5123.138387 5109.851153 5139.800235 5151.069429
184.630000 5007.628735 5094.400308 5129.415966 5115.466603 5144.068785 5156.350012
184.705000 5014.061930 5098.711252 5134.527269 5120.338265 5147.689795 5161.060826
184.780000 5017.807444 5105.387772 5139.568366 5125.396127 5151.116129 5164.776122
184.855000 5022.343103 5110.417358 5144.086267 5130.333634 5154.679140 5167.698969
