depth(m) lower_95(kyr) lower_68(kyr) median(kyr) mean(kyr) upper_68(kyr) upper_95(kyr)
75.100000 4174.132969 4192.474598 4202.580162 4201.536383 4211.117615 4217.282439
75.150000 4177.568338 4195.733990 4204.687870 4203.978689 4213.181728 4218.979287
75.200000 4180.007394 4198.545887 4207.376246 4206.463592 4214.968338 4220.703688
75.250000 4183.078284 4201.686560 4210.174787 4208.995973 4217.026973 4222.890660
75.300000 4186.063789 4204.701321 4212.837120 4211.437454 4219.014632 4224.532304
75.350000 4189.283880 4207.158472 4215.579010 4213.886240 4221.038472 4226.170126
75.400000 4193.345217 4209.834122 4217.834280 4216.299529 4222.990261 4229.032621
75.450000 4196.378349 4211.920899 4220.084520 4218.619913 4225.009068 4231.418207
75.500000 4199.168962 4214.327961 4222.679893 4220.906883 4226.919686 4233.843603
75.550000 4202.530434 4217.040211 4224.982189 4223.235704 4228.957694 4235.989915
75.600000 4205.257945 4219.309514 4227.037400 4225.508127 4231.042715 4238.491592
75.650000 4207.602464 4221.519102 4229.161460 4227.719633 4233.205366 4240.442399
75.700000 4211.839142 4223.798584 4231.349205 4230.108374 4235.405751 4242.249425
75.750000 4214.059034 4226.514305 4233.344507 4232.248399 4237.380517 4245.646636
75.800000 4216.483696 4229.357032 4235.395160 4234.459438 4239.306219 4247.359621
75.850000 4218.597391 4231.874398 4237.356859 4236.619292 4241.259235 4249.910552
75.900000 4220.711987 4234.275405 4239.362859 4238.836530 4243.344811 4252.391966
75.950000 4224.055932 4236.833780 4241.445606 4241.078119 4245.717277 4254.463827
76.000000 4226.760307 4239.632854 4243.732341 4243.428331 4247.924838 4256.958381
76.050000 4229.248372 4241.924253 4245.779632 4245.756805 4250.084600 4259.604717
76.080000 4230.136535 4243.439136 4247.149716 4247.215388 4251.678730 4261.048104
76.100000 4230.597932 4244.560573 4248.137911 4248.173426 4252.582203 4261.870427
76.130000 4231.607439 4246.046757 4249.607031 4249.664029 4254.107362 4263.388619
76.150000 4232.010716 4246.904300 4250.656109 4250.653898 4255.115536 4264.267991
76.180000 4232.972974 4248.425120 4252.092720 4252.188313 4256.536688 4266.043978
76.200000 4235.178297 4249.376780 4253.259298 4253.203781 4257.364345 4266.644233
76.230000 4238.569620 4250.963508 4254.809250 4254.752027 4258.911987 4267.688126
76.250000 4240.100512 4252.071676 4255.816740 4255.754949 4259.767693 4268.390643
76.280000 4242.018672 4253.497263 4257.731709 4257.301917 4261.179352 4269.844963
76.300000 4243.440668 4254.544231 4258.973129 4258.365939 4262.126035 4270.804954
76.330000 4245.610512 4255.855801 4260.547290 4259.908212 4263.616155 4271.993837
76.350000 4246.444727 4256.763444 4261.525618 4260.886973 4264.434154 4273.238393
76.380000 4248.033847 4258.040728 4262.958636 4262.378001 4265.900579 4274.470401
76.400000 4248.626075 4259.033922 4263.987926 4263.356831 4266.839241 4275.322979
76.430000 4249.262632 4260.465888 4265.334328 4264.837374 4268.532373 4276.874623
76.450000 4250.085030 4261.336302 4266.207671 4265.786934 4269.642380 4278.089884
76.480000 4251.715061 4262.704773 4267.538535 4267.151093 4271.206591 4280.230925
76.530000 4254.263042 4265.091049 4269.546592 4269.484031 4273.739764 4282.792816
76.580000 4258.597672 4267.509407 4271.590918 4271.816800 4276.459815 4285.612088
76.630000 4261.104342 4269.717571 4273.619203 4274.029317 4279.245666 4288.137026
76.680000 4264.754009 4271.615737 4275.630904 4276.367261 4281.838080 4290.415481
76.730000 4267.370246 4273.712223 4277.678738 4278.606425 4284.456756 4292.440683
76.780000 4269.875822 4275.731480 4279.805562 4280.851423 4287.091602 4295.947243
76.830000 4271.491270 4277.707857 4281.882051 4283.075339 4289.422270 4298.821910
76.880000 4273.768445 4279.533717 4284.056517 4285.380560 4292.179964 4301.232670
76.930000 4276.362204 4281.660480 4286.265787 4287.700479 4294.688467 4303.155727
76.980000 4278.418734 4283.422772 4288.706476 4290.031379 4297.999606 4305.174837
77.030000 4281.394088 4285.289630 4290.873681 4292.284596 4300.344515 4308.949740
77.080000 4283.344928 4287.189588 4293.257212 4294.551980 4302.608211 4311.837427
77.130000 4284.919232 4289.197388 4295.686787 4296.839534 4304.882982 4314.460182
77.180000 4287.004621 4291.372172 4298.133128 4299.120776 4306.961155 4317.181074
77.230000 4288.873209 4293.376124 4300.606638 4301.451659 4309.207662 4319.701472
77.280000 4290.521296 4295.526958 4303.173067 4303.696943 4311.576955 4321.791623
77.330000 4293.008418 4297.745741 4305.390884 4306.038276 4314.184438 4323.694234
77.380000 4295.205656 4300.119580 4307.709535 4308.389852 4316.015810 4326.552295
77.430000 4297.439257 4302.303778 4310.399989 4310.753059 4318.376884 4328.922638
77.480000 4299.873368 4304.544503 4313.117181 4313.091023 4320.494452 4331.478031
77.530000 4301.901837 4307.189140 4315.329355 4315.435410 4322.821486 4333.470879
77.580000 4304.643247 4309.669991 4317.546558 4317.789137 4324.892838 4335.791917
77.680000 4308.751082 4314.044408 4322.289623 4322.275054 4329.376853 4339.251423
77.730000 4310.953442 4316.276870 4324.783137 4324.693564 4332.153143 4340.998633
77.780000 4313.566867 4318.623143 4327.176281 4327.061468 4334.414602 4343.083672
77.830000 4316.239063 4321.171130 4329.345690 4329.458056 4336.749207 4344.866851
77.880000 4318.152418 4323.551131 4332.112948 4331.977321 4339.481802 4346.736699
77.930000 4319.960004 4326.269908 4334.637476 4334.445266 4341.958264 4349.303200
77.980000 4322.328394 4329.103547 4336.988774 4336.917214 4344.274228 4351.071947
78.030000 4324.475903 4331.961943 4339.742462 4339.472369 4347.026837 4352.823762
78.080000 4327.566805 4334.592424 4342.091234 4342.035263 4349.124665 4356.006909
78.130000 4330.395290 4337.493526 4344.616757 4344.593930 4351.348492 4358.336282
78.180000 4333.065791 4340.357578 4347.230174 4347.168177 4353.679601 4360.306440
78.230000 4336.230036 4343.858549 4350.068160 4349.967215 4356.265236 4361.881555
78.280000 4338.798555 4346.904923 4352.659086 4352.759795 4358.787525 4364.925945
78.330000 4341.984787 4349.880762 4355.836509 4355.675468 4361.457153 4367.687034
78.380000 4345.208129 4352.719279 4358.534139 4358.542329 4364.602977 4370.283861
78.430000 4348.535914 4355.754204 4361.373830 4361.467730 4367.275095 4373.001664
78.490000 4353.140239 4359.664921 4364.869715 4364.988173 4370.691839 4375.667090
78.540000 4355.644198 4362.752825 4368.057086 4367.987078 4373.378453 4378.021700
78.590000 4359.744423 4365.853105 4371.174133 4370.998317 4376.167263 4380.563439
78.640000 4361.910686 4369.518781 4374.693189 4374.290431 4379.146392 4383.684573
78.690000 4365.122465 4373.104829 4378.381527 4377.809730 4382.383192 4387.309322
78.740000 4367.792318 4376.086101 4381.420263 4380.845453 4385.412305 4390.780102
78.790000 4370.122397 4379.144189 4384.351609 4383.673008 4388.186735 4393.958084
78.840000 4372.401616 4381.669700 4386.911162 4386.403355 4391.092955 4397.028446
78.890000 4374.672618 4384.278227 4389.417726 4389.204078 4394.407852 4400.560295
78.940000 4376.995771 4386.766163 4391.882463 4391.864224 4397.592043 4404.257428
78.990000 4379.471029 4389.390914 4394.246886 4394.356280 4400.046769 4406.978847
79.040000 4382.073152 4391.621822 4396.922531 4396.917978 4402.955127 4410.064154
79.090000 4384.822391 4394.163730 4399.271172 4399.485342 4405.548191 4412.798074
79.140000 4388.102289 4396.314899 4401.809760 4401.947603 4408.513081 4414.956984
79.190000 4390.901520 4398.215195 4403.926678 4404.261680 4411.322688 4418.116897
79.240000 4392.827349 4400.140750 4406.256282 4406.656023 4413.862176 4420.502950
79.290000 4396.180565 4402.441757 4408.606274 4409.071168 4416.669800 4422.982391
79.340000 4398.798947 4404.679738 4411.044943 4411.431008 4418.975975 4425.197222
79.390000 4401.187227 4406.739989 4413.554284 4413.899833 4421.334730 4427.859417
79.440000 4403.414175 4409.437613 4416.043109 4416.333519 4423.661248 4430.488872
79.490000 4405.874785 4411.608153 4418.574853 4418.908466 4426.119497 4433.489710
79.540000 4408.162378 4414.102647 4421.416006 4421.445484 4428.918610 4435.644879
79.590000 4410.299754 4416.502389 4423.951904 4423.916336 4431.140515 4438.626892
79.640000 4412.363400 4418.887014 4426.242605 4426.225488 4433.521490 4440.968468
79.740000 4417.600711 4423.940965 4430.898230 4431.006466 4438.160181 4445.320884
79.790000 4420.229939 4426.574459 4433.243464 4433.369826 4440.608525 4446.983755
79.840000 4422.494001 4428.935654 4435.645808 4435.784816 4443.140443 4449.073814
79.890000 4425.385004 4431.349237 4438.031693 4438.098465 4445.151613 4450.855284
79.940000 4428.177218 4434.072745 4440.152178 4440.425403 4447.305228 4452.749686
80.000000 4430.892194 4436.998353 4443.210233 4443.151913 4449.860524 4454.685585
80.050000 4433.228386 4439.706517 4445.272914 4445.436084 4451.796027 4456.976161
80.100000 4436.074155 4442.121024 4447.589259 4447.711187 4453.935793 4458.892254
80.150000 4438.724432 4444.576994 4449.900761 4450.008666 4455.738889 4460.690515
80.200000 4442.229033 4447.158353 4451.984432 4452.398743 4458.109561 4463.460094
80.250000 4445.203096 4449.471920 4454.421400 4454.746506 4460.311594 4465.559396
80.300000 4447.311795 4451.821488 4457.140831 4457.231384 4462.756957 4467.974215
80.350000 4449.620542 4454.598116 4459.983146 4459.847944 4465.170036 4469.777037
80.400000 4451.872103 4457.221831 4462.404188 4462.433309 4467.726800 4472.798174
80.450000 4454.517012 4459.752999 4464.899066 4464.930392 4470.123419 4475.195670
80.500000 4457.333154 4462.392361 4467.524482 4467.443087 4472.496430 4477.354116
80.550000 4459.370974 4465.160019 4469.963658 4469.958750 4475.111787 4479.848385
80.600000 4461.346131 4467.633439 4472.469899 4472.468937 4477.881836 4482.290044
80.650000 4463.953586 4470.102532 4474.634142 4474.924780 4480.463696 4484.907919
80.700000 4466.607605 4472.636709 4477.039694 4477.412802 4482.744336 4488.052957
80.750000 4469.245637 4474.993545 4479.512215 4479.894836 4485.156988 4490.991738
80.800000 4471.830812 4477.521892 4482.248191 4482.484913 4487.808055 4493.233766
80.850000 4474.266745 4479.915215 4485.103260 4485.153291 4490.500532 4495.941837
80.900000 4477.357787 4482.530536 4487.871663 4487.801365 4493.304695 4498.462612
80.950000 4479.416670 4485.185962 4490.518753 4490.435044 4496.059953 4500.640359
81.000000 4482.350537 4487.500280 4493.005997 4492.964434 4498.417296 4503.637594
81.050000 4484.018807 4489.916952 4495.484125 4495.464366 4500.965119 4506.446157
81.100000 4486.419080 4492.420371 4497.754232 4497.947921 4503.981974 4509.079011
81.150000 4488.910603 4495.116813 4500.174166 4500.522201 4506.465665 4511.747874
81.200000 4490.928854 4497.509717 4503.001972 4503.126487 4509.131672 4514.153460
81.250000 4493.341213 4500.009965 4505.617179 4505.664293 4511.788108 4516.416518
81.300000 4495.979268 4502.500318 4508.285457 4508.234401 4514.123400 4518.809299
81.350000 4498.445059 4504.757104 4510.822034 4510.724171 4516.663376 4521.255195
81.400000 4500.379682 4506.979400 4513.452403 4513.076335 4519.006408 4523.614680
81.450000 4503.318527 4509.323746 4515.993567 4515.501541 4521.659503 4525.962613
81.500000 4505.826275 4511.593295 4518.032593 4517.768115 4523.771163 4528.280708
81.550000 4508.134007 4514.359802 4520.589660 4520.259967 4525.992155 4530.836412
81.600000 4510.957347 4516.804822 4523.172154 4522.710022 4528.257287 4533.590441
81.650000 4513.965146 4519.662052 4525.580949 4525.229472 4530.603843 4535.803259
81.700000 4516.903173 4522.357944 4527.742052 4527.701268 4533.027793 4538.279602
81.750000 4519.279439 4525.142579 4530.172033 4530.167125 4535.097130 4540.477727
81.800000 4522.213303 4527.696136 4532.608762 4532.560820 4537.530890 4542.542812
81.850000 4524.687430 4529.935199 4534.773502 4534.804267 4539.764971 4544.738838
81.900000 4527.626898 4532.381190 4537.091549 4537.251062 4542.147085 4547.317259
81.950000 4530.158714 4534.793906 4539.480030 4539.634221 4544.729088 4549.646041
82.000000 4532.661887 4537.335646 4541.936252 4542.173679 4547.275751 4551.929313
82.050000 4535.484582 4539.810989 4544.750667 4544.731778 4549.796322 4554.304032
82.100000 4538.495708 4542.400493 4547.476687 4547.458962 4552.337732 4557.267893
82.150000 4541.277296 4545.056458 4550.172656 4550.114940 4554.694288 4559.463263
82.200000 4543.009254 4547.885664 4552.706740 4552.604892 4557.188236 4561.444117
82.250000 4545.724640 4550.623320 4555.472569 4555.126252 4559.737817 4563.394949
82.300000 4547.577415 4552.747059 4557.686729 4557.464905 4562.227486 4566.026983
82.350000 4549.561793 4555.184401 4559.920766 4559.833843 4564.525928 4568.203816
82.400000 4552.126835 4557.713416 4562.465381 4562.181940 4566.636605 4570.081018
82.450000 4555.240252 4560.364363 4564.922482 4564.566953 4568.628406 4572.360192
82.500000 4558.403207 4563.240980 4567.494198 4567.176003 4570.962677 4574.747853
82.550000 4561.682621 4565.935818 4569.656988 4569.574192 4573.097151 4576.796460
82.600000 4564.149201 4568.440751 4571.765049 4571.763706 4575.223895 4579.148637
82.650000 4567.048385 4570.679853 4573.752973 4573.964973 4577.475401 4581.107764
82.700000 4569.225823 4572.949570 4575.964902 4576.164084 4579.611464 4583.292580
82.750000 4571.701225 4574.984268 4578.196799 4578.438032 4582.107550 4585.613577
82.800000 4574.042027 4577.018237 4580.653392 4580.851029 4584.688784 4588.410155
82.850000 4576.372171 4579.186810 4583.341293 4583.342340 4587.284288 4591.463806
82.900000 4578.471334 4581.283313 4586.132464 4585.906146 4590.049932 4594.883023
82.920000 4579.363127 4582.223984 4587.058143 4586.900989 4591.021134 4595.854586
82.950000 4580.565771 4583.383971 4588.410796 4588.308329 4592.425461 4597.636307
82.970000 4581.401590 4584.187320 4589.385455 4589.269662 4593.498800 4598.710180
83.020000 4583.179394 4586.385921 4591.636663 4591.623520 4596.289890 4601.467936
83.070000 4584.857193 4588.538427 4593.975860 4593.910408 4598.731637 4604.506649
83.120000 4586.400766 4590.543730 4596.120947 4596.299980 4601.866673 4607.622256
83.170000 4587.955368 4592.711232 4598.578526 4598.756272 4604.722221 4610.570205
83.220000 4589.569427 4595.229414 4601.169190 4601.228374 4607.398615 4613.914978
83.270000 4591.632623 4597.327809 4603.485396 4603.685236 4610.348971 4616.067476
83.320000 4593.219993 4599.347682 4606.245284 4606.131710 4612.737318 4618.575138
83.370000 4595.081898 4601.624927 4608.881677 4608.745985 4615.643909 4621.849062
83.420000 4596.628347 4604.136922 4611.918671 4611.494449 4618.936408 4624.771845
83.480000 4598.645466 4607.157497 4615.583039 4614.931876 4622.537736 4628.491826
83.530000 4600.575218 4609.417493 4618.152881 4617.618523 4625.291322 4631.246496
83.580000 4602.846232 4612.145514 4620.668607 4620.242829 4628.385818 4633.496692
83.630000 4605.285243 4614.447318 4623.411300 4622.854825 4631.121407 4636.713757
83.680000 4607.056422 4616.664468 4626.069171 4625.473319 4634.169620 4640.353959
83.730000 4608.880665 4618.843683 4628.394676 4627.862732 4636.763918 4643.127458
83.780000 4610.914644 4621.551212 4630.866109 4630.232201 4639.090344 4645.144867
83.830000 4612.853373 4624.021086 4632.917249 4632.510748 4641.351517 4647.332724
83.880000 4614.905605 4626.489008 4635.190080 4634.821458 4643.874600 4649.278985
83.930000 4617.624929 4629.039651 4637.556223 4637.242645 4646.206593 4651.707511
83.980000 4620.313776 4631.505719 4639.804172 4639.577435 4648.622612 4654.113003
84.030000 4622.725300 4633.689472 4642.544695 4642.010411 4650.797083 4656.474452
84.080000 4625.798841 4636.006777 4644.667948 4644.266762 4652.785836 4658.831226
84.130000 4628.798615 4638.252592 4646.808062 4646.464304 4654.808049 4661.298178
84.180000 4631.031739 4640.550802 4648.903314 4648.614071 4656.810799 4663.573652
84.280000 4635.572196 4644.264829 4652.938578 4652.551892 4660.394287 4666.460352
84.330000 4637.769990 4646.366544 4655.020550 4654.586429 4662.583448 4668.126944
84.380000 4640.566456 4648.899997 4657.089645 4656.717774 4664.437426 4670.158643
84.430000 4642.571599 4651.328604 4659.418425 4658.812048 4666.272004 4672.364166
84.480000 4645.520798 4653.260517 4661.476833 4660.848071 4668.138016 4674.199046
84.530000 4647.690401 4655.382261 4663.488329 4662.902197 4670.169611 4675.680095
84.630000 4652.179390 4660.256392 4667.719644 4667.155387 4673.800775 4678.912202
84.680000 4655.243932 4662.772420 4669.864501 4669.417464 4675.830521 4680.531065
84.730000 4657.248946 4665.427635 4672.144203 4671.562537 4677.739867 4681.839240
84.780000 4660.184155 4667.746590 4674.111683 4673.612340 4679.534614 4683.333727
84.830000 4662.884002 4670.347795 4676.264864 4675.780256 4681.281027 4684.999328
84.880000 4665.877053 4673.172053 4678.414296 4677.928247 4683.027943 4686.504214
84.930000 4667.658581 4675.744156 4680.603336 4680.073777 4684.948516 4688.148654
84.990000 4671.070825 4678.636738 4683.094458 4682.686094 4687.145554 4690.380456
85.040000 4674.481363 4680.967866 4685.112090 4684.799007 4689.037106 4691.851829
85.090000 4677.053318 4683.270178 4687.078460 4686.818854 4690.752403 4693.643646
85.140000 4680.269962 4685.294546 4688.876662 4688.743569 4692.488108 4695.725855
85.190000 4681.820056 4687.063163 4690.730890 4690.549542 4694.324525 4697.697209
85.240000 4683.487913 4688.827181 4692.549320 4692.271733 4695.915240 4699.262070
85.290000 4685.844836 4690.543958 4694.306879 4694.071748 4697.655964 4700.897322
85.340000 4687.639419 4692.411608 4696.063564 4695.882835 4699.290555 4702.724528
85.390000 4689.059961 4694.107708 4697.798724 4697.700749 4701.180176 4704.559052
85.440000 4690.979827 4695.937172 4699.741033 4699.557663 4703.024590 4706.873769
85.515000 4694.758930 4698.494848 4702.283883 4702.213452 4705.896168 4710.451369
85.590000 4697.363625 4700.991503 4704.801203 4704.883030 4708.745778 4713.874337
85.640000 4699.342295 4702.926765 4706.464812 4706.821812 4710.664194 4716.288282
85.690000 4701.327165 4704.980640 4708.311794 4708.881787 4712.922636 4718.991350
85.740000 4703.176815 4706.858934 4710.427466 4710.923670 4715.137250 4720.878103
85.790000 4705.307920 4708.789021 4712.618010 4713.072367 4717.367978 4723.551499
85.840000 4707.366693 4710.869575 4714.875324 4715.385923 4719.655634 4725.538314
85.890000 4709.438628 4713.249920 4717.294995 4717.733280 4722.158806 4727.616720
85.940000 4711.774700 4715.509512 4719.942461 4720.147427 4724.734886 4729.843294
85.990000 4714.157502 4718.316269 4722.499698 4722.796014 4727.405742 4732.381469
86.040000 4716.890224 4721.060255 4725.348741 4725.572123 4730.281287 4734.751196
86.090000 4719.997124 4723.676860 4728.173415 4728.363827 4732.823675 4737.618107
86.140000 4722.696384 4726.860980 4731.140624 4731.199007 4735.301790 4739.909751
86.190000 4725.315692 4729.509372 4733.890531 4733.778702 4737.658259 4742.274892
86.240000 4727.718976 4731.933243 4736.246166 4736.270967 4740.324108 4744.982896
86.290000 4729.997546 4734.640841 4738.643693 4738.794391 4742.981359 4747.889191
86.340000 4732.210065 4736.968327 4741.191313 4741.304718 4745.579447 4750.819583
86.390000 4734.904317 4739.409855 4743.821108 4744.013818 4748.475377 4753.773713
86.440000 4737.588176 4742.060165 4746.513507 4746.621374 4751.018005 4756.437030
86.500000 4740.227414 4744.947086 4749.670266 4749.783537 4754.523672 4759.763926
86.550000 4742.833885 4747.659392 4752.165680 4752.399006 4757.257945 4762.615537
86.600000 4744.741580 4749.821695 4754.597870 4754.785978 4759.949607 4764.993918
86.650000 4747.294084 4752.304260 4756.815182 4757.140872 4762.208163 4767.904631
86.700000 4749.233815 4754.616160 4759.304054 4759.564907 4764.425886 4770.417257
86.750000 4751.306919 4757.053506 4761.864474 4761.988611 4766.943730 4773.402631
86.800000 4754.233305 4759.327040 4764.154764 4764.308108 4769.354712 4775.774918
86.850000 4756.937650 4761.549150 4766.477397 4766.659333 4771.789138 4777.849641
86.900000 4759.507403 4763.778940 4768.565857 4768.997365 4774.211226 4780.847118
86.950000 4761.543100 4765.884562 4770.861144 4771.249624 4776.641449 4783.185902
