depth(m) lower_95(kyr) lower_68(kyr) median(kyr) mean(kyr) upper_68(kyr) upper_95(kyr)
90.730000 3499.670361 3509.567342 3515.012727 3514.254335 3519.550020 3523.021339
90.830000 3503.472271 3512.957970 3517.945375 3517.139004 3521.871193 3524.905945
90.930000 3507.041456 3515.926995 3520.787671 3519.929754 3524.275326 3527.155662
91.030000 3510.430866 3518.628869 3523.370717 3522.645698 3526.880542 3529.577730
91.130000 3514.474300 3521.781064 3526.051175 3525.343038 3529.182365 3531.951214
91.230000 3518.314991 3524.258592 3528.374937 3527.878383 3531.502728 3534.336875
91.330000 3521.948550 3527.252004 3530.986775 3530.562318 3533.936065 3537.054168
91.430000 3526.363544 3530.492393 3533.503112 3533.352934 3536.442205 3539.405681
91.530000 3530.212067 3533.128468 3536.121715 3536.081431 3538.984487 3542.004975
91.630000 3532.414729 3535.725390 3538.447163 3538.500948 3541.432182 3544.423119
91.730000 3534.654631 3538.018676 3540.729809 3540.845617 3543.775860 3547.514522
91.830000 3536.842542 3540.211523 3542.919702 3543.141782 3546.265254 3549.758138
91.930000 3539.379663 3542.475654 3545.390435 3545.652062 3548.940777 3552.911948
92.030000 3541.793042 3544.877705 3548.035534 3548.371775 3552.053251 3556.676818
92.130000 3544.178779 3547.291481 3550.983215 3551.352416 3555.532419 3560.100221
92.220000 3546.271853 3549.531188 3553.896530 3554.051915 3558.536981 3562.998502
92.320000 3548.610259 3551.963966 3557.221767 3557.124815 3561.859373 3566.666452
92.420000 3551.097461 3554.781709 3560.208595 3560.025849 3565.216303 3569.950704
92.520000 3553.543482 3557.772189 3562.953747 3562.954250 3568.257375 3572.854833
92.620000 3556.485905 3560.765138 3565.892750 3565.917373 3570.785050 3575.546943
92.720000 3559.277119 3564.806068 3569.139276 3569.154499 3573.796863 3578.884363
92.820000 3562.814377 3568.136363 3572.470164 3572.414042 3576.901748 3581.619169
92.920000 3566.690748 3571.333910 3575.799525 3575.816400 3580.299463 3584.834728
93.020000 3569.820902 3574.668697 3579.827367 3579.515933 3584.167696 3589.396991
93.120000 3572.027534 3578.067022 3583.254651 3583.022989 3587.869254 3592.525276
93.220000 3575.248155 3581.382468 3586.658332 3586.306628 3591.178187 3595.699294
93.320000 3577.761718 3584.188952 3589.739206 3589.254990 3594.293492 3598.737061
93.420000 3580.583961 3587.107944 3592.605499 3592.177120 3597.156696 3601.267443
93.520000 3583.268087 3590.135593 3595.758622 3595.103506 3600.240988 3604.090307
93.620000 3585.830263 3593.133916 3598.598292 3597.966248 3602.792288 3606.528914
93.720000 3588.026139 3596.061916 3601.155602 3600.569428 3605.142843 3608.664313
93.820000 3591.360650 3598.873756 3603.630112 3603.055614 3607.400450 3610.605441
93.920000 3595.727422 3601.700884 3605.946566 3605.478408 3609.528893 3612.749977
94.020000 3599.103361 3604.073103 3608.112164 3607.785927 3611.592170 3614.686641
94.120000 3602.564858 3606.440944 3610.328219 3610.066934 3613.638046 3616.611538
94.220000 3605.311135 3609.191980 3612.472430 3612.439305 3615.747353 3618.766583
94.320000 3608.411618 3611.942194 3614.976655 3614.970131 3618.260437 3621.037724
94.420000 3611.806754 3614.776803 3618.039309 3617.920740 3620.983622 3624.001657
94.520000 3614.550016 3617.978320 3620.947247 3620.862379 3623.946026 3626.968141
94.620000 3617.804974 3621.248013 3624.155390 3624.049210 3626.757053 3629.742453
94.720000 3620.984998 3623.962324 3626.918884 3626.811183 3629.504647 3632.003125
94.820000 3624.371977 3626.694562 3629.324835 3629.334950 3631.918254 3634.419317
94.920000 3626.910314 3629.165386 3631.766222 3631.834036 3634.412049 3637.315223
95.020000 3629.281162 3631.758392 3634.457691 3634.552987 3637.250058 3640.682646
95.120000 3631.992303 3634.587990 3637.573204 3637.767286 3640.970999 3644.316489
95.220000 3634.609586 3637.435538 3640.611103 3640.885590 3644.583076 3647.864338
95.320000 3637.256336 3640.342485 3643.711930 3643.824042 3647.462142 3651.101570
95.420000 3639.915987 3642.968768 3646.331295 3646.525427 3650.172728 3654.043447
95.520000 3642.318306 3645.364070 3649.037720 3649.162344 3652.887812 3657.094116
95.620000 3644.450939 3647.722662 3651.634489 3651.812662 3655.814137 3660.434093
95.720000 3646.745412 3650.313048 3654.445962 3654.595314 3658.941738 3664.345194
95.820000 3649.209006 3653.098697 3657.539177 3657.753637 3662.312008 3668.174971
95.920000 3651.484584 3656.017968 3660.652379 3660.943200 3666.042882 3671.492795
96.020000 3654.067308 3658.860082 3663.810899 3664.146257 3669.694837 3674.695561
96.120000 3657.520930 3662.209068 3667.217864 3667.552035 3673.373127 3677.956521
96.220000 3660.241281 3665.186725 3670.868713 3670.817344 3676.452965 3680.780778
96.320000 3663.255544 3668.294169 3673.834774 3673.770622 3679.127252 3683.278375
96.420000 3667.233892 3671.932187 3677.086518 3676.998044 3681.771631 3686.333845
96.520000 3671.176712 3676.334604 3680.441405 3680.430013 3684.651090 3688.534824
96.620000 3675.159625 3679.783693 3683.312316 3683.363177 3687.105702 3691.090189
96.720000 3678.553950 3682.664867 3685.934448 3686.056465 3689.844815 3694.302251
96.820000 3681.280896 3685.060779 3688.339067 3688.524524 3692.149442 3696.545514
96.920000 3683.882107 3687.234456 3690.600831 3690.980024 3694.946570 3700.179236
97.020000 3686.183955 3689.572769 3693.153980 3693.459835 3697.548997 3702.582043
97.120000 3688.740846 3691.728152 3695.558400 3695.946256 3700.310690 3705.437556
97.220000 3690.826856 3694.312731 3698.374902 3698.780591 3703.745083 3707.817003
97.320000 3693.187943 3696.955540 3701.053757 3701.551580 3706.601795 3711.158456
97.420000 3695.835157 3699.786378 3703.911464 3704.376118 3709.366204 3713.905699
97.520000 3698.732209 3702.861755 3707.312508 3707.544686 3712.204521 3717.561093
97.620000 3701.695513 3706.057275 3710.686912 3710.752676 3715.248167 3721.276420
97.720000 3705.040643 3709.387464 3714.034868 3714.042014 3718.481961 3723.676603
97.820000 3707.125552 3712.684031 3717.505274 3717.473756 3722.028791 3727.656604
97.920000 3710.740460 3715.928681 3720.654059 3720.712192 3725.327225 3731.267433
98.020000 3713.770581 3718.567835 3723.616264 3723.733561 3728.706490 3735.363227
98.120000 3716.226053 3721.222994 3726.446179 3726.535804 3731.888845 3738.323859
98.220000 3718.177334 3723.783651 3729.016807 3729.214372 3734.755144 3742.260019
98.320000 3720.493292 3726.265548 3731.813565 3732.004337 3737.925261 3745.155355
98.420000 3722.707537 3728.615401 3734.524745 3734.773273 3740.994657 3748.050727
98.520000 3725.047645 3731.120806 3737.097104 3737.495807 3744.098790 3751.102145
98.620000 3727.324301 3733.740876 3739.843832 3740.353909 3747.588690 3753.969352
98.720000 3729.397070 3736.780696 3742.789875 3743.225213 3750.502991 3756.280458
98.820000 3731.264412 3739.539358 3745.853888 3746.135795 3753.818569 3759.452883
98.920000 3734.078700 3742.344916 3748.829597 3748.950400 3756.602905 3761.849718
99.020000 3736.683276 3745.296201 3751.698215 3751.807927 3759.316113 3764.279597
99.120000 3739.313070 3748.026932 3754.925880 3754.677898 3761.826289 3767.471706
99.220000 3741.291727 3750.796477 3758.417473 3757.666230 3764.226648 3770.281245
99.320000 3743.752678 3753.725457 3761.728585 3760.760323 3767.401937 3772.652622
99.420000 3745.643632 3756.297478 3764.676466 3763.684732 3770.306401 3775.336142
99.520000 3748.094909 3758.772646 3767.711610 3766.552520 3773.202364 3778.356854
99.620000 3750.485737 3761.566275 3770.715062 3769.270317 3776.069982 3780.772168
99.720000 3752.920651 3764.565687 3773.265657 3772.018674 3778.834093 3783.278627
99.820000 3756.147412 3767.183664 3776.083537 3774.717203 3781.531763 3785.914696
99.920000 3758.474546 3769.642007 3778.797791 3777.403507 3783.940795 3788.709210
100.020000 3761.204826 3772.646220 3781.492887 3779.971879 3786.218720 3790.973583
100.120000 3764.555182 3775.081474 3784.184783 3782.606657 3788.755238 3793.158602
100.220000 3766.156270 3778.114807 3786.627413 3785.152103 3791.219721 3796.119313
100.320000 3768.818820 3781.139095 3788.991813 3787.629269 3793.408541 3799.433432
100.420000 3771.592368 3783.877847 3791.461081 3790.060978 3795.503586 3801.367457
100.520000 3775.299122 3786.564986 3793.656892 3792.474143 3797.590063 3804.055820
100.620000 3778.086185 3789.293464 3795.874896 3794.933031 3799.908351 3808.404888
100.720000 3781.072656 3792.272114 3798.251631 3797.388882 3802.212558 3810.587589
100.820000 3783.238174 3795.073650 3800.481230 3799.786083 3804.704382 3812.975932
100.920000 3786.209921 3797.400067 3802.675608 3802.132897 3806.951536 3815.749055
101.020000 3788.289310 3800.026543 3804.743964 3804.547621 3809.474750 3818.463185
101.120000 3790.962693 3802.688597 3806.811073 3806.938052 3811.889635 3821.256368
101.220000 3793.081032 3805.016292 3808.989520 3809.290072 3814.717257 3823.996089
101.320000 3796.761055 3807.399329 3811.339892 3811.712913 3817.457370 3826.924087
101.420000 3799.059751 3809.467727 3813.572995 3814.094050 3820.034461 3829.740184
101.520000 3802.236610 3811.630717 3815.816895 3816.579376 3822.810965 3832.394134
101.620000 3804.627071 3813.872263 3818.153808 3819.063995 3825.789880 3834.592589
101.720000 3806.916635 3816.193284 3820.497656 3821.607863 3828.976514 3836.586855
101.820000 3809.576941 3818.224226 3823.169639 3824.198345 3831.681405 3839.003174
101.920000 3812.677595 3820.471774 3825.737842 3826.840575 3834.516975 3841.364825
102.020000 3815.963347 3822.702066 3828.463702 3829.594867 3837.379642 3844.287415
102.120000 3818.868021 3824.941421 3831.621753 3832.256833 3840.301924 3846.743021
102.220000 3821.784454 3827.529405 3834.150012 3834.916014 3843.048967 3849.353183
102.320000 3824.720354 3829.937997 3837.347529 3837.672420 3845.599816 3852.074680
102.420000 3827.410844 3832.467961 3840.445579 3840.450680 3848.373134 3854.320669
102.520000 3829.611456 3834.774459 3843.261458 3843.036616 3850.918486 3856.567208
102.620000 3832.600291 3837.428126 3845.679243 3845.704251 3853.426345 3858.687871
102.720000 3835.470565 3840.545336 3848.541430 3848.470041 3856.026768 3860.979700
102.820000 3838.345354 3843.947225 3851.520378 3851.255377 3858.266053 3863.156742
102.920000 3840.976085 3847.436047 3854.540190 3854.282206 3860.632039 3865.267950
103.020000 3845.601113 3851.025268 3857.727868 3857.422559 3863.163513 3867.791319
103.120000 3848.979157 3855.200801 3861.549239 3861.003088 3866.571899 3870.739420
103.220000 3853.172430 3860.069810 3865.601781 3865.076714 3869.957775 3873.706547
103.320000 3857.463040 3863.645836 3868.694315 3868.399130 3872.885339 3876.925450
103.420000 3862.202501 3867.395965 3871.937651 3871.681565 3875.787123 3879.451437
103.520000 3865.072300 3870.492722 3874.918544 3874.642723 3878.728293 3883.195104
103.620000 3868.111693 3873.196326 3877.539621 3877.502598 3881.455933 3886.854638
103.720000 3872.232010 3876.249778 3880.422488 3880.545116 3884.454726 3890.418948
103.820000 3875.455852 3879.498079 3883.563919 3883.886998 3887.917105 3894.929239
103.920000 3879.104846 3882.735685 3886.639021 3887.282656 3891.570144 3899.304058
104.020000 3881.679486 3885.394449 3889.565743 3890.180508 3895.018407 3902.506478
104.120000 3884.085696 3887.998346 3892.349877 3893.129231 3898.390599 3906.357087
104.220000 3886.227027 3890.381861 3895.300284 3896.056951 3901.940871 3909.074037
104.320000 3888.397128 3893.169481 3898.372401 3899.151675 3905.048353 3913.263261
104.420000 3890.888503 3895.713283 3901.331926 3902.167671 3908.950560 3916.423183
104.520000 3893.987148 3898.584818 3904.433601 3905.235649 3912.158736 3919.410544
104.620000 3897.126633 3901.644718 3908.048785 3908.553541 3915.318791 3924.109002
104.720000 3899.649896 3904.921471 3912.026064 3911.980291 3918.831863 3926.740710
104.820000 3902.773572 3908.328946 3915.667903 3915.512231 3922.235648 3929.474802
104.920000 3905.663119 3911.898506 3919.033140 3919.050489 3925.362108 3932.837328
105.020000 3908.422554 3915.987078 3922.732122 3922.594078 3928.782072 3935.261328
105.120000 3912.151111 3920.021746 3926.326346 3926.200011 3932.325850 3938.040151
105.220000 3915.868542 3923.876744 3929.822805 3929.595279 3935.424495 3940.941683
105.320000 3919.456503 3927.201838 3932.907644 3932.856266 3938.773118 3944.059931
105.420000 3922.879307 3930.326547 3936.128557 3935.811603 3941.451092 3946.984489
105.520000 3927.117518 3933.465646 3939.319796 3938.957133 3944.258685 3949.702724
105.620000 3930.604455 3936.528193 3942.363054 3942.110377 3946.945499 3952.242440
105.720000 3934.257948 3940.105002 3945.862559 3945.387627 3949.961451 3955.833069
105.820000 3937.392329 3943.504066 3948.696083 3948.577685 3952.860453 3959.617040
105.920000 3940.584393 3947.314551 3951.753694 3951.697823 3955.712724 3963.005103
105.930000 3940.855367 3947.623556 3952.039342 3952.029057 3956.046651 3963.245737
106.030000 3944.708295 3951.403535 3955.160988 3955.266612 3959.244078 3967.348886
106.130000 3948.054338 3954.447835 3958.364628 3958.650958 3963.008845 3970.081954
106.230000 3952.132379 3957.807128 3962.028388 3962.249539 3966.622855 3973.528817
106.330000 3955.871147 3961.710198 3966.201933 3966.352117 3970.999373 3977.815255
106.430000 3959.537100 3964.919025 3970.097976 3970.137826 3974.957967 3981.259585
106.530000 3963.137651 3968.551249 3973.587317 3973.635909 3978.540898 3984.664618
106.630000 3966.718603 3971.768995 3977.087494 3977.110498 3982.185552 3987.635738
106.730000 3969.535697 3975.327541 3980.347533 3980.429319 3985.525405 3991.474740
106.830000 3973.332673 3978.923217 3983.938273 3983.952735 3988.977297 3994.692736
106.930000 3977.518558 3983.106101 3987.607263 3987.709184 3992.590182 3997.931893
107.030000 3981.753153 3986.828740 3991.464390 3991.322816 3995.876594 4000.404027
107.130000 3986.382195 3990.727344 3994.972113 3994.972830 3999.291706 4003.216142
107.240000 3990.674432 3994.834357 3998.681485 3998.697994 4002.647091 4006.209073
107.340000 3993.924379 3998.228175 4002.011811 4001.965127 4005.884761 4009.662024
107.440000 3997.197402 4001.608607 4005.644164 4005.478300 4009.291250 4013.082648
107.540000 4000.884772 4005.147441 4009.205499 4009.092137 4012.967093 4016.506459
107.640000 4003.780144 4008.453302 4012.381068 4012.216016 4016.092484 4019.401269
107.740000 4007.204081 4011.339340 4015.163514 4015.115089 4018.847127 4022.502280
107.840000 4010.313038 4014.253851 4017.945532 4017.906061 4021.669506 4024.966861
107.940000 4012.846397 4016.893500 4020.807597 4020.635750 4024.377900 4027.397155
108.040000 4015.570416 4019.755641 4023.498027 4023.388637 4026.974888 4030.239770
108.140000 4018.887620 4022.787610 4026.265539 4026.227138 4029.725060 4032.857257
108.240000 4022.511995 4025.883947 4029.146780 4029.241512 4032.394296 4036.281765
108.340000 4025.356769 4029.133680 4032.448599 4032.475464 4035.988454 4039.455061
108.360000 4026.077685 4029.931826 4033.155498 4033.163258 4036.683137 4040.166993
108.460000 4029.592458 4033.291803 4036.565015 4036.704867 4040.208183 4043.751336
108.560000 4033.624308 4036.641537 4040.269192 4040.284093 4043.512252 4048.115287
108.660000 4036.672073 4040.552844 4044.101889 4044.219751 4047.740019 4052.821458
108.760000 4040.758170 4044.944627 4049.150566 4049.354602 4053.762403 4059.085151
108.860000 4044.571944 4048.848235 4053.329353 4053.695854 4058.949328 4065.203812
108.960000 4047.662502 4052.108579 4056.965109 4057.455285 4063.419029 4068.857612
109.060000 4050.546812 4055.368902 4060.507761 4061.044012 4067.173778 4072.921500
109.160000 4053.188076 4058.746103 4064.489867 4064.595630 4070.569639 4076.607837
109.260000 4056.055309 4062.154661 4068.126663 4068.187835 4074.384480 4079.788276
109.360000 4058.607954 4065.676157 4071.997301 4071.741214 4077.747202 4083.481622
109.460000 4061.362067 4069.485965 4076.038480 4075.395087 4081.152264 4086.371596
109.560000 4064.988811 4073.362200 4079.700119 4078.997230 4084.463829 4089.651834
109.660000 4067.948619 4076.928327 4082.920730 4082.227985 4087.413855 4092.506137
109.760000 4070.619267 4080.384949 4085.934315 4085.377360 4090.613020 4095.612953
109.860000 4074.474895 4083.479831 4089.083250 4088.481691 4093.912060 4099.206675
109.960000 4077.491813 4086.579304 4092.017462 4091.767709 4097.194011 4103.041059
110.060000 4081.078705 4089.615241 4095.205601 4095.056646 4100.607244 4106.390778
110.160000 4086.285153 4092.636791 4098.520595 4098.459720 4104.665419 4110.032294
110.260000 4090.028954 4096.327300 4102.349647 4102.057360 4108.369322 4113.662637
110.360000 4093.360885 4099.449880 4105.986998 4105.790234 4112.143003 4117.635586
110.460000 4096.050613 4103.323697 4109.713680 4109.406961 4115.549041 4120.925714
110.560000 4099.035739 4107.265509 4113.390697 4113.024670 4119.568306 4124.492813
110.660000 4100.762348 4110.238143 4117.401697 4116.746157 4123.211602 4128.778502
110.760000 4103.629470 4113.887330 4120.778991 4120.168330 4126.556940 4132.449363
110.860000 4107.890014 4117.722640 4124.140074 4123.425822 4129.537007 4135.146834
110.960000 4111.447215 4121.158434 4126.989840 4126.423909 4132.271893 4138.429889
111.060000 4115.235515 4124.408626 4129.636920 4129.369944 4134.826395 4141.348115
111.160000 4120.079659 4127.311342 4132.463582 4132.251705 4137.932892 4144.186419
111.260000 4123.386612 4130.417945 4135.290620 4135.118187 4140.689532 4146.551239
111.360000 4126.120783 4133.112454 4138.140804 4137.944579 4143.640081 4148.333543
111.460000 4129.238734 4136.225956 4141.081950 4140.821389 4146.062249 4150.244685
111.560000 4132.231506 4139.226852 4144.165522 4143.667769 4148.500629 4152.403977
111.660000 4136.167609 4142.581526 4147.122675 4146.632493 4151.076054 4154.755568
111.760000 4139.282296 4145.671680 4150.053741 4149.542340 4153.673023 4157.220780
111.860000 4142.215085 4148.610816 4152.573301 4152.126615 4155.815683 4159.510782
111.960000 4146.168726 4151.546853 4155.162244 4154.724285 4157.897282 4161.555622
112.060000 4149.377273 4153.928641 4157.316856 4157.041260 4160.037422 4163.657298
112.160000 4152.645838 4156.461270 4159.444594 4159.304470 4162.111464 4165.915768
112.260000 4155.137701 4158.780686 4161.528655 4161.480811 4164.199664 4168.034920
112.360000 4157.460869 4160.918085 4163.561048 4163.571382 4166.152687 4169.889014
112.460000 4159.604493 4162.912585 4165.534135 4165.618871 4168.448463 4172.252018
112.560000 4162.190257 4164.953377 4167.489635 4167.693968 4170.572643 4174.489005
112.660000 4164.343113 4166.836317 4169.558611 4169.820120 4172.908768 4176.752241
112.760000 4166.572810 4169.107932 4171.830107 4172.098181 4175.275455 4179.465163
112.860000 4168.711424 4171.266954 4174.084886 4174.436661 4177.864746 4181.886971
112.960000 4171.023942 4173.426228 4176.526838 4176.877675 4180.591538 4184.132109
113.060000 4173.299077 4175.632413 4179.037348 4179.225854 4182.874441 4186.391257
113.160000 4174.985133 4177.873459 4181.451842 4181.539047 4185.101029 4188.673443
113.260000 4177.175877 4180.079631 4183.867333 4183.880995 4187.314277 4191.357345
113.360000 4179.412303 4182.512815 4186.257892 4186.237540 4189.686798 4193.769152
113.460000 4181.620334 4184.888481 4188.483084 4188.530817 4192.070806 4196.397860
113.560000 4183.537329 4187.080354 4190.720211 4190.803915 4194.337185 4198.594901
113.660000 4185.963866 4189.328974 4193.016482 4193.082018 4196.561541 4201.737904
113.760000 4188.094906 4191.727103 4195.199478 4195.391136 4198.820447 4204.563461
113.860000 4190.251735 4193.985479 4197.304759 4197.707658 4201.434065 4208.014954
113.960000 4192.479029 4196.219851 4199.576305 4200.033517 4203.912390 4210.832878
114.060000 4194.790210 4198.407969 4201.899569 4202.433798 4206.248685 4213.748132
114.160000 4197.228253 4200.498371 4204.132463 4204.874713 4209.179187 4216.901449
114.260000 4199.444544 4202.774130 4206.418924 4207.410863 4211.983196 4220.382411
114.360000 4201.445325 4205.038426 4209.169466 4210.117561 4215.583555 4223.824032
114.460000 4203.697135 4207.271152 4211.716616 4212.808168 4218.675408 4226.672018
114.560000 4205.857162 4209.449196 4214.402281 4215.445618 4221.832334 4229.806096
