depth(m) lower_95(kyr) lower_68(kyr) median(kyr) mean(kyr) upper_68(kyr) upper_95(kyr)
251.030000 3581.842595 3585.574960 3588.145149 3589.844629 3590.600056 3626.890123
251.080000 3583.223958 3586.832700 3589.234756 3590.943465 3591.487269 3627.917378
251.130000 3584.766698 3588.131417 3590.343494 3592.043706 3592.409591 3629.003583
251.180000 3585.831735 3589.347190 3591.411786 3593.099613 3593.386436 3629.754187
251.230000 3586.655183 3590.351621 3592.431226 3594.132260 3594.306542 3631.079692
251.280000 3587.708812 3591.404119 3593.410171 3595.189806 3595.377928 3631.926141
251.330000 3588.645724 3592.597700 3594.476474 3596.281651 3596.459338 3632.955113
251.380000 3589.797325 3593.610159 3595.456543 3597.327215 3597.591308 3633.686171
251.430000 3591.038205 3594.677128 3596.541700 3598.418359 3598.863395 3634.611486
251.480000 3591.811955 3595.690879 3597.596104 3599.512601 3600.214874 3635.616564
251.530000 3593.276653 3596.674602 3598.625761 3600.609499 3601.454010 3636.432300
251.580000 3594.245317 3597.661496 3599.838026 3601.777756 3602.725218 3637.538019
251.630000 3595.173542 3598.691729 3601.030843 3603.007468 3604.437396 3638.236743
251.730000 3597.679928 3600.804691 3603.500354 3605.389023 3606.860751 3640.282692
251.830000 3599.383787 3602.985988 3606.129402 3607.808345 3609.600407 3643.215921
251.880000 3600.456168 3604.177987 3607.520049 3609.071087 3610.894923 3644.290762
251.930000 3601.468363 3605.415236 3608.847479 3610.357135 3611.953125 3645.526864
251.980000 3602.827717 3606.887475 3610.065992 3611.557748 3613.021075 3646.982784
252.030000 3604.217795 3607.954177 3611.248399 3612.695983 3614.060676 3648.158105
252.080000 3605.416719 3609.368763 3612.397386 3613.820076 3615.163096 3649.245360
252.130000 3606.370533 3610.623267 3613.416093 3614.890782 3616.164113 3650.598807
252.180000 3607.236626 3611.615585 3614.436926 3615.865133 3617.044432 3651.643562
252.280000 3609.150632 3613.365787 3616.202057 3617.687961 3618.790828 3653.149023
252.380000 3610.785280 3615.244876 3618.005203 3619.481681 3620.446662 3654.204376
252.492500 3613.335830 3617.327190 3619.820022 3621.432485 3622.232457 3656.048728
252.605000 3615.813795 3619.215831 3621.734059 3623.345080 3624.105112 3657.917940
252.717500 3618.549606 3621.154949 3623.505246 3625.255609 3625.827211 3659.591526
252.830000 3620.717203 3623.132760 3625.240210 3627.158793 3627.768038 3662.282944
252.930000 3622.624480 3624.863479 3626.881720 3628.824647 3629.357780 3663.970487
252.980000 3623.484549 3625.689255 3627.745987 3629.703299 3630.329261 3665.032895
253.080000 3625.081462 3627.306746 3629.310554 3631.358112 3632.076236 3666.715866
253.180000 3626.898908 3628.920486 3630.937050 3633.013506 3633.893150 3668.190505
253.280000 3628.322640 3630.507902 3632.582774 3634.713475 3636.021999 3669.431777
253.380000 3630.136216 3632.111882 3634.341210 3636.481493 3637.975507 3670.972329
253.513333 3631.955177 3634.171364 3636.771203 3638.945043 3640.837038 3673.111657
253.646667 3633.826947 3636.221598 3639.166511 3641.399384 3644.061037 3675.394026
253.780000 3635.556875 3638.442006 3641.644640 3643.896454 3647.019421 3678.114394
253.913333 3637.684525 3640.548000 3644.245083 3646.407282 3649.938449 3680.256446
254.046667 3639.528179 3642.794388 3646.964387 3649.061109 3652.946383 3681.842770
254.180000 3641.868879 3645.198061 3649.767225 3651.790002 3656.328772 3684.795098
254.305000 3643.803737 3647.542440 3652.192945 3654.188062 3658.685913 3687.214318
254.430000 3645.974603 3650.219543 3654.568884 3656.684453 3661.491520 3690.597836
254.480000 3646.768109 3651.121193 3655.542538 3657.704321 3662.605189 3691.482295
254.530000 3648.148689 3652.264667 3656.630455 3658.811290 3663.589117 3692.161931
254.580000 3649.334773 3653.398689 3657.685402 3659.888843 3664.537506 3693.035202
254.655000 3651.084457 3655.361996 3659.218953 3661.646405 3665.987951 3694.633459
254.730000 3653.100357 3657.281349 3661.244757 3663.443496 3667.431233 3696.264749
254.830000 3655.939012 3659.572563 3663.776178 3665.789537 3669.548637 3698.248695
254.930000 3658.438463 3661.405808 3666.379412 3668.056417 3672.227675 3699.672198
254.980000 3659.609567 3662.246825 3667.601714 3669.159826 3673.312455 3700.623365
255.080000 3661.555288 3663.864507 3669.903659 3671.327112 3675.710117 3702.203054
255.180000 3663.235926 3665.393708 3672.197326 3673.557782 3678.874648 3704.289100
255.230000 3664.068615 3666.166133 3673.423355 3674.808377 3680.813871 3705.174151
255.280000 3664.742024 3666.896362 3674.734345 3676.176635 3683.073700 3706.162191
255.355000 3665.931246 3668.008304 3677.621804 3678.720126 3687.483723 3708.700688
255.430000 3666.971430 3669.044845 3680.523429 3681.314333 3692.010404 3710.071614
255.480000 3667.825873 3669.818213 3682.235798 3682.824509 3694.523374 3710.912009
255.530000 3668.689766 3670.581597 3683.911870 3684.257956 3696.402059 3711.785320
255.580000 3669.456339 3671.311013 3685.753660 3685.652545 3697.999471 3712.542918
255.655000 3670.588851 3672.453500 3689.067276 3687.848422 3700.726242 3714.467125
255.730000 3671.629238 3673.492737 3692.393434 3690.009363 3703.145677 3716.892682
255.805000 3672.631490 3674.697273 3695.626511 3692.050596 3705.285626 3717.840833
255.880000 3673.752973 3675.925658 3698.299657 3694.016515 3707.164159 3719.760009
255.930000 3674.514609 3676.712466 3699.796012 3695.251875 3708.333992 3720.484184
256.005000 3675.794365 3678.063357 3701.791183 3697.094506 3709.910605 3722.257451
256.080000 3676.915466 3679.554352 3703.986538 3698.838044 3711.499228 3724.141512
256.180000 3678.523303 3681.616848 3706.093671 3701.159235 3713.313205 3725.807364
256.230000 3679.385282 3683.177040 3707.139621 3702.400071 3714.422728 3727.360706
256.330000 3681.206211 3686.323255 3709.261050 3704.918445 3716.806572 3729.341504
256.430000 3683.573465 3689.517710 3711.106080 3707.490728 3719.263680 3732.256520
256.530000 3686.070428 3693.024603 3712.895105 3710.080427 3721.935711 3736.535267
256.630000 3688.580568 3696.029131 3714.471557 3712.602740 3725.076425 3739.892975
256.680000 3690.323329 3697.832156 3715.348452 3713.844751 3726.847056 3741.317537
256.780000 3694.505452 3700.894599 3717.056544 3716.499853 3729.495322 3744.332751
256.880000 3697.496649 3704.336280 3718.753804 3719.163449 3732.345149 3749.981159
256.980000 3701.690798 3707.701954 3720.563602 3721.896400 3735.071134 3753.415430
257.030000 3703.199345 3709.324165 3721.363089 3723.157922 3736.090664 3755.187768
257.080000 3705.116301 3711.010476 3722.323779 3724.475530 3737.071091 3757.140218
257.130000 3706.535092 3712.670226 3723.520758 3725.799578 3738.365455 3758.481313
257.205000 3708.880863 3714.960019 3725.598979 3727.880587 3739.823573 3759.753432
257.280000 3711.629381 3717.471393 3727.657881 3730.053212 3741.283370 3761.806026
257.330000 3713.133589 3719.264279 3728.981649 3731.500844 3742.259145 3762.723564
257.405000 3716.381514 3721.875788 3731.203921 3733.661942 3743.985412 3765.583230
257.480000 3718.457375 3724.864486 3733.367220 3735.778601 3745.651649 3767.508335
257.530000 3720.163482 3726.672886 3734.619875 3737.212176 3746.685052 3769.413375
257.605000 3722.274901 3729.260113 3736.699482 3739.316872 3748.156348 3771.460687
257.680000 3724.675204 3731.601204 3738.980081 3741.444422 3749.824244 3772.780148
257.755000 3728.006664 3734.370694 3741.184628 3743.594695 3750.947803 3774.538283
257.830000 3730.680267 3736.831694 3743.313127 3745.790104 3752.953793 3776.275818
257.930000 3734.247992 3739.841063 3745.825395 3748.604374 3755.090058 3778.693018
257.980000 3735.855492 3741.299356 3747.209223 3750.003601 3756.232464 3779.679755
258.030000 3737.789286 3742.940290 3748.519232 3751.379791 3757.909090 3780.893655
258.080000 3738.856820 3744.112488 3749.758330 3752.677877 3759.267800 3782.686359
258.130000 3740.002063 3745.551608 3750.742186 3753.922489 3760.540738 3784.018262
258.180000 3741.061407 3746.689105 3752.080188 3755.204648 3762.040075 3785.601804
258.280000 3743.325229 3749.090451 3754.428741 3757.940239 3766.086988 3788.518459
258.380000 3746.440864 3751.605486 3757.031847 3760.655387 3769.656675 3790.872041
258.430000 3747.902407 3752.895175 3758.227065 3761.973127 3771.298615 3792.357217
258.530000 3750.301595 3755.016310 3760.909402 3764.645123 3774.406050 3795.133653
258.580000 3751.794709 3756.222133 3762.391758 3766.064876 3775.920254 3796.129701
258.680000 3754.801708 3758.547269 3765.501479 3768.974440 3778.477891 3798.240636
258.780000 3757.441484 3761.011580 3768.180966 3771.774863 3781.806206 3800.687999
258.830000 3758.655672 3762.075164 3769.556861 3773.192269 3783.423724 3801.639782
258.905000 3760.139751 3764.156471 3771.314128 3775.253909 3785.727468 3803.420243
258.980000 3761.649469 3766.074538 3773.185155 3777.243053 3787.881573 3804.800947
259.030000 3763.050951 3767.210684 3774.441297 3778.551465 3789.273225 3805.887330
259.080000 3764.394173 3768.614287 3775.567166 3779.923970 3790.783997 3806.934567
259.180000 3766.868903 3771.638450 3777.680070 3782.797143 3794.014450 3809.261687
259.230000 3768.454852 3773.085091 3778.673431 3784.229065 3795.933444 3810.281014
259.305000 3770.966569 3775.748642 3780.346211 3786.427587 3798.164599 3812.037640
259.380000 3773.693769 3778.052199 3781.797900 3788.558634 3800.189341 3813.835192
259.410000 3774.556598 3778.866552 3782.428634 3789.418181 3801.038821 3814.443724
259.460000 3776.470308 3780.622869 3783.336478 3790.897331 3802.388291 3815.773145
259.490000 3777.210693 3781.822576 3783.845106 3791.779830 3803.705129 3816.520576
259.510000 3777.785881 3782.362793 3784.282069 3792.331620 3804.422373 3816.949777
259.540000 3778.559475 3783.177346 3784.988819 3793.156484 3805.172706 3817.773834
259.560000 3779.151172 3783.732196 3785.378875 3793.705853 3805.907435 3818.165536
259.590000 3780.480658 3784.417627 3785.998765 3794.502280 3806.971808 3818.895258
259.610000 3781.095150 3784.870171 3786.403599 3795.049033 3807.926044 3819.354156
259.640000 3782.179263 3785.505057 3787.070679 3795.875821 3808.818795 3820.140163
259.660000 3782.931534 3785.978353 3787.570540 3796.441446 3809.547586 3820.776117
259.690000 3783.831994 3786.591267 3788.251870 3797.300480 3811.064249 3821.548492
259.710000 3784.463253 3787.008236 3788.711560 3797.848397 3811.744087 3822.237680
259.740000 3785.045801 3787.631122 3789.703715 3798.631582 3812.583129 3823.175434
259.760000 3785.734378 3788.049344 3790.192379 3799.158853 3813.131261 3823.858277
259.790000 3786.792155 3788.680299 3791.201511 3799.951298 3813.875779 3824.793414
259.890000 3789.315468 3790.440313 3794.886157 3802.535361 3817.392563 3827.669763
259.910000 3789.742695 3790.877864 3795.522638 3803.075316 3817.803415 3828.188368
259.960000 3790.622421 3791.902866 3798.007797 3804.442620 3819.315959 3829.321866
260.090000 3792.681585 3794.576926 3804.199793 3808.070665 3824.036968 3832.200490
260.165000 3794.153989 3796.196348 3808.566776 3810.146009 3826.305281 3834.395796
260.240000 3795.573537 3797.939657 3811.532961 3812.253680 3828.587809 3836.461066
260.340000 3797.596628 3800.418002 3814.519464 3814.997976 3830.849198 3839.220474
260.390000 3798.553071 3801.831736 3815.777457 3816.421114 3832.049379 3840.759176
260.440000 3799.703216 3803.429275 3817.240477 3817.920296 3833.649147 3841.905663
260.490000 3801.136749 3804.913321 3819.180846 3819.456850 3834.933627 3843.130406
260.540000 3802.335141 3806.514867 3820.718617 3821.048259 3836.152343 3844.112265
260.590000 3803.519524 3808.034423 3822.269329 3822.621954 3837.392101 3845.605819
260.715000 3807.082832 3812.849764 3827.601677 3827.277507 3840.941688 3848.051164
260.840000 3811.069544 3818.232964 3832.922318 3832.065492 3845.017093 3851.113147
260.940000 3813.713899 3821.817848 3836.481056 3835.556084 3847.905680 3853.537794
261.040000 3817.280203 3826.805672 3840.971905 3839.256318 3850.896732 3855.859125
261.140000 3820.735982 3830.443336 3844.344876 3842.710022 3853.595883 3858.438913
261.190000 3822.563380 3832.283834 3846.009412 3844.259363 3854.987039 3859.432594
261.290000 3826.737707 3836.347427 3849.089698 3847.569458 3857.744828 3861.747499
261.340000 3828.535248 3838.297425 3850.988180 3849.258826 3859.039990 3862.821414
261.440000 3834.226370 3844.126159 3854.484176 3853.003190 3861.502784 3864.807803
261.490000 3837.082056 3846.084765 3856.189327 3854.762747 3862.666047 3865.818445
261.590000 3842.479734 3852.186454 3859.869264 3858.696413 3865.216521 3867.933831
261.690000 3849.304425 3857.598471 3863.762229 3862.795090 3867.697870 3870.171482
261.790000 3857.891318 3863.351234 3867.201210 3866.708331 3870.334008 3872.695687
261.865000 3861.860149 3866.122925 3869.360028 3869.064849 3872.047052 3874.493963
261.940000 3865.089646 3868.652246 3871.520967 3871.225577 3873.917748 3876.081442
261.990000 3866.990819 3870.176809 3872.839133 3872.643025 3875.097523 3877.378082
262.040000 3868.239573 3871.404301 3874.267391 3874.011282 3876.472537 3878.720862
262.090000 3869.781182 3872.961411 3875.522094 3875.403533 3877.884897 3880.400760
262.140000 3871.057587 3874.304870 3876.859625 3876.842756 3879.463580 3881.953146
262.215000 3873.139043 3876.289183 3879.053293 3879.033009 3881.825843 3885.345210
262.290000 3875.019583 3878.328187 3881.293872 3881.338201 3884.314752 3888.223209
262.390000 3877.465475 3880.979221 3884.236444 3884.349937 3887.785972 3891.824191
262.515000 3880.198945 3884.068805 3887.622319 3887.773562 3891.726584 3895.990266
262.640000 3883.174979 3887.048559 3890.886153 3891.223286 3895.225886 3900.053065
262.690000 3884.318480 3888.463509 3892.412525 3892.725512 3896.797944 3902.026110
262.790000 3887.496528 3891.475064 3895.503945 3895.672286 3899.753450 3905.794887
262.840000 3888.691332 3892.749653 3897.095988 3897.203280 3901.407168 3907.416480
262.940000 3891.391389 3895.670598 3900.192075 3900.193719 3904.321418 3910.659602
263.040000 3894.080889 3898.977314 3903.078896 3903.203834 3907.200623 3913.882563
263.090000 3895.587163 3900.606465 3904.598243 3904.756318 3908.777332 3915.258644
263.140000 3896.727531 3902.218614 3906.012464 3906.258617 3910.188117 3917.201229
263.190000 3898.289538 3903.667011 3907.585162 3907.758180 3911.718742 3918.783246
263.240000 3900.072566 3905.502321 3909.028681 3909.290532 3913.512611 3920.152246
263.290000 3901.643030 3907.012178 3910.486882 3910.818658 3915.019507 3921.511352
263.390000 3905.287162 3909.852303 3913.415340 3913.825574 3918.165399 3924.838181
263.440000 3906.193466 3911.375527 3914.958871 3915.356388 3919.729420 3926.030129
263.490000 3907.634294 3912.779621 3916.584622 3916.931051 3921.402177 3927.208953
263.540000 3909.656433 3914.207428 3918.341599 3918.501183 3923.104833 3928.861881
263.590000 3911.009888 3915.564173 3920.152576 3920.093442 3924.681354 3930.271916
263.640000 3912.320335 3917.253709 3921.707628 3921.634787 3926.239136 3931.660168
263.690000 3913.546709 3918.731371 3923.197320 3923.162011 3927.642193 3932.881218
263.740000 3914.997529 3920.404859 3924.697432 3924.606059 3929.023515 3934.016140
263.840000 3916.944296 3923.456832 3927.530188 3927.351181 3931.284345 3937.780628
263.890000 3918.087667 3924.843875 3928.889972 3928.691138 3932.461905 3938.952613
263.940000 3919.967050 3926.168459 3930.256188 3930.053195 3933.679181 3940.345623
264.040000 3922.928494 3928.759568 3932.725171 3932.555237 3935.973872 3942.946745
264.090000 3924.526126 3930.295991 3933.992546 3933.884233 3937.136470 3944.043614
264.165000 3927.165647 3932.360735 3935.932578 3935.885963 3938.995433 3945.699267
264.240000 3929.409300 3934.428852 3937.733117 3937.767538 3940.898806 3948.896200
264.340000 3932.898309 3936.826213 3940.104303 3940.195667 3943.177955 3951.120203
264.440000 3935.251416 3939.460734 3942.294160 3942.616836 3945.378792 3953.657264
264.490000 3936.626710 3940.903097 3943.623109 3943.929624 3946.625507 3954.755544
264.540000 3938.444352 3942.184888 3944.859573 3945.269210 3947.914325 3955.845892
264.590000 3939.870031 3943.569576 3946.270542 3946.613724 3949.275189 3957.163513
264.640000 3941.366876 3944.989183 3947.585411 3947.997791 3950.633922 3958.505625
264.690000 3943.137476 3946.330772 3948.908865 3949.408875 3952.190546 3959.851167
264.740000 3944.566938 3947.700205 3950.270203 3950.824793 3953.719283 3960.890102
264.790000 3945.710938 3949.024166 3951.628752 3952.204124 3955.156145 3962.143684
264.840000 3947.259517 3950.374003 3953.042539 3953.601301 3956.830827 3963.952180
264.890000 3949.079877 3951.659873 3954.425432 3955.020680 3958.375204 3965.177566
264.940000 3950.165973 3953.038666 3955.824496 3956.467092 3959.876791 3966.332524
264.990000 3951.370360 3954.379106 3957.264482 3957.972752 3961.610667 3967.549167
265.040000 3952.783988 3955.801558 3958.870017 3959.529690 3963.208088 3969.078686
265.140000 3955.076169 3958.468129 3961.825410 3962.485079 3966.449695 3972.905067
265.190000 3956.441079 3959.938764 3963.470840 3964.111458 3968.488666 3974.460474
265.240000 3957.982205 3961.629842 3965.253422 3965.846756 3970.643476 3976.061132
265.340000 3961.627520 3965.639955 3969.708879 3970.041983 3974.959226 3980.142046
265.440000 3966.623984 3970.018959 3974.631616 3974.775822 3979.343753 3983.853020
265.490000 3968.470107 3972.223682 3976.902137 3976.977012 3981.437939 3985.878958
265.540000 3970.602575 3974.848868 3979.278176 3979.181661 3983.614820 3987.551652
265.590000 3972.974723 3976.858441 3981.473465 3981.308826 3985.712405 3989.354727
265.640000 3975.805283 3979.618527 3983.815525 3983.706938 3987.871227 3991.060529
265.690000 3977.932548 3982.417815 3986.213651 3986.156788 3990.040277 3993.268210
265.740000 3980.828903 3985.089582 3988.861878 3988.745209 3992.386894 3995.404152
265.790000 3983.759152 3987.323015 3991.100953 3990.977985 3994.711429 3997.504372
265.840000 3986.097808 3989.697976 3993.345236 3993.265037 3996.843347 3999.761035
265.890000 3988.746197 3991.845404 3995.256645 3995.288085 3998.762800 4002.427566
265.940000 3990.200992 3993.670638 3997.168522 3997.206487 4000.695908 4004.367171
265.990000 3991.957236 3995.581558 3999.328730 3999.185348 4002.618715 4006.125900
266.040000 3993.640640 3997.400092 4001.248376 4001.235687 4004.892563 4008.552001
266.090000 3995.553657 3999.396796 4003.442833 4003.516055 4007.547022 4012.031491
266.190000 3998.858280 4003.710637 4008.271508 4009.015574 4015.502377 4020.176685
266.240000 4000.039837 4005.541032 4010.670328 4011.313731 4018.097318 4022.573365
266.250000 4000.469352 4005.967369 4011.125460 4011.724491 4018.603566 4022.956299
266.290000 4002.221572 4007.753403 4012.958720 4013.487039 4020.009592 4024.524194
266.340000 4005.344690 4010.482452 4015.647547 4015.968708 4022.147619 4026.154409
266.390000 4008.840869 4013.131363 4018.194947 4018.468147 4024.072655 4028.191861
266.440000 4011.353479 4015.820304 4020.953360 4020.949005 4026.077035 4030.324523
266.490000 4013.513356 4018.588278 4024.039482 4023.575025 4028.287444 4032.639254
266.540000 4015.610130 4020.947764 4026.718440 4026.229479 4030.975557 4035.928261
266.590000 4017.452050 4023.454632 4029.470207 4028.863411 4033.813377 4038.390930
266.640000 4019.204746 4025.888548 4032.210686 4031.555023 4036.774748 4041.451465
266.690000 4021.069764 4027.986343 4035.193471 4034.359188 4040.150599 4044.410875
266.740000 4022.411532 4030.173744 4038.284564 4037.207165 4043.255340 4046.673301
266.770000 4023.565954 4031.411251 4040.025628 4038.736694 4044.697153 4047.891650
266.790000 4024.233242 4032.503607 4041.231870 4039.684359 4045.502648 4048.561552
266.840000 4025.957112 4035.699749 4044.463705 4042.526112 4047.699210 4051.252783
266.870000 4027.432426 4037.259366 4045.739462 4043.878612 4048.869112 4052.394977
266.890000 4028.209993 4038.338884 4046.578148 4044.704829 4049.527948 4053.402725
266.970000 4033.331657 4044.477911 4049.330900 4048.274011 4052.121957 4056.254895
266.990000 4034.394710 4045.532290 4050.126828 4049.107596 4052.853322 4056.898459
