depth(m) lower_95(kyr) lower_68(kyr) median(kyr) mean(kyr) upper_68(kyr) upper_95(kyr)
115.550000 2684.254234 2692.894368 2700.933914 2699.467588 2705.465131 2708.087078
115.690000 2686.961206 2696.880134 2704.120057 2702.661884 2707.869321 2710.703067
115.765000 2689.292184 2698.737676 2705.821296 2704.322768 2709.237237 2711.915832
115.840000 2691.616933 2700.975057 2707.412510 2705.960634 2710.627460 2713.047820
115.985000 2695.295966 2704.642798 2710.027930 2708.855429 2713.038453 2715.337101
116.130000 2700.144965 2708.228533 2712.521311 2711.632756 2715.116882 2717.388231
116.233333 2703.360616 2710.270895 2714.281606 2713.515775 2716.898803 2719.081059
116.336667 2706.283779 2712.505961 2716.120277 2715.467972 2718.573825 2720.789064
116.440000 2709.769359 2714.710181 2717.932829 2717.447882 2720.319045 2722.815775
116.515000 2712.032263 2716.302080 2719.372135 2719.057378 2721.810654 2724.828733
116.590000 2713.916555 2717.979750 2720.882964 2720.643144 2723.299896 2726.857074
116.690000 2716.190615 2719.977147 2722.740339 2722.756612 2725.197905 2731.132934
116.790000 2718.349128 2721.871643 2724.437661 2724.838415 2727.031670 2737.367539
116.890000 2721.286945 2723.847762 2726.298126 2727.097991 2729.020756 2743.647231
116.975000 2723.113772 2725.583342 2727.964506 2728.977133 2731.147297 2747.798139
117.060000 2724.679740 2727.278329 2729.650892 2730.883737 2733.263167 2751.005373
117.180000 2727.251667 2729.660595 2732.143159 2734.107013 2737.644071 2754.458199
117.255000 2728.616906 2731.106671 2734.041243 2736.202629 2740.985223 2756.557072
117.330000 2730.127692 2732.711691 2736.023153 2738.382610 2744.100381 2757.976649
117.460000 2732.784248 2735.778992 2741.098762 2743.223756 2752.252776 2761.830902
117.566667 2735.457547 2739.286142 2746.093535 2747.229398 2755.071944 2764.467754
117.673333 2738.630061 2744.049701 2750.587604 2751.145729 2758.643877 2767.295441
117.780000 2743.310007 2749.487905 2754.764485 2755.240883 2761.507939 2769.383772
117.860000 2747.321115 2752.819973 2757.419325 2758.023536 2763.736413 2771.098537
117.940000 2750.280927 2755.739697 2760.091226 2760.575313 2765.740189 2773.505269
118.015000 2752.096964 2757.842938 2762.299744 2762.822950 2768.092898 2775.004107
118.090000 2754.547815 2759.918494 2764.496917 2765.021735 2770.377544 2776.612978
118.230000 2758.417189 2763.519972 2768.722369 2769.285777 2775.276845 2782.966605
118.370000 2762.245035 2766.891329 2772.740277 2773.413180 2780.567197 2786.983394
118.460000 2765.055402 2769.493131 2775.724818 2776.277578 2783.483681 2789.029984
118.550000 2767.312808 2771.964331 2778.989369 2779.226259 2786.912613 2791.250768
118.690000 2771.502259 2777.290095 2785.332653 2784.402053 2790.828736 2793.804887
118.765000 2773.339669 2779.782693 2788.108102 2786.865200 2792.892925 2795.508359
118.840000 2775.583514 2782.849748 2790.873606 2789.320568 2794.708051 2797.074438
118.940000 2779.135652 2787.628261 2793.697456 2792.384099 2796.699941 2799.006143
119.040000 2784.942340 2792.024585 2796.225921 2795.427739 2798.859646 2801.188341
119.140000 2791.251760 2795.840501 2798.615620 2798.333833 2800.834399 2803.455233
119.215000 2795.119471 2797.951026 2800.237684 2800.148333 2802.469572 2805.121784
119.290000 2797.304124 2799.694424 2801.659555 2801.817146 2803.940695 2806.890992
119.430000 2800.503941 2802.451055 2804.236996 2804.479917 2806.608328 2809.776868
119.505000 2801.908237 2803.768099 2805.672548 2805.936023 2808.185001 2811.541797
119.580000 2803.230146 2805.055111 2807.029548 2807.358473 2809.782807 2812.781491
119.690000 2805.096163 2807.007981 2809.116490 2809.527132 2812.304404 2815.071444
119.800000 2806.830526 2808.956395 2811.373628 2811.729184 2814.943381 2817.456313
119.880000 2808.248093 2810.460342 2813.169872 2813.450428 2816.757715 2819.109118
119.970000 2809.911438 2812.504852 2815.413983 2815.562030 2818.793912 2821.475091
120.060000 2811.672237 2814.510981 2817.639482 2817.641740 2820.861544 2823.747623
120.180000 2814.080897 2816.985760 2820.730799 2820.664787 2823.980878 2827.376677
120.283333 2816.636650 2819.608292 2823.410029 2823.550809 2827.260323 2831.972664
120.386667 2819.173688 2822.439246 2826.369461 2826.562556 2830.673421 2834.554251
120.490000 2821.353275 2825.046044 2829.488036 2829.464171 2834.134989 2837.042180
120.565000 2822.976372 2826.919688 2831.733756 2831.624446 2836.330407 2839.292918
120.640000 2825.111867 2829.030545 2833.973752 2833.723400 2838.178016 2841.169347
120.783333 2829.054388 2833.269638 2838.327979 2837.840518 2842.040489 2845.714114
120.926667 2833.050633 2837.820106 2842.007728 2841.709778 2845.568444 2848.688622
121.070000 2838.376480 2842.400532 2845.672206 2845.644389 2848.986673 2852.134312
121.190000 2841.458748 2845.529534 2848.682399 2848.558454 2851.652575 2854.947671
121.310000 2845.087598 2848.562450 2851.582401 2851.580657 2854.324413 2858.237783
121.380000 2846.778247 2850.447211 2853.451587 2853.511297 2856.405387 2860.826698
121.470000 2848.753396 2852.500503 2855.339966 2855.690030 2858.693668 2864.333593
121.560000 2851.175787 2854.642437 2857.378428 2857.947569 2861.275155 2868.070988
121.680000 2854.736431 2857.828210 2860.655900 2861.335110 2864.886388 2871.068306
121.755000 2856.245194 2859.417978 2862.739732 2863.359934 2867.475553 2873.310348
121.830000 2857.559671 2861.100430 2864.990347 2865.396426 2869.786207 2875.423221
121.905000 2859.472507 2862.821324 2867.100821 2867.448556 2871.813467 2878.467370
121.980000 2861.592652 2865.030008 2869.211578 2869.613411 2873.921885 2881.192927
122.060000 2863.407846 2867.572553 2871.858090 2872.167102 2876.467709 2883.769287
122.140000 2865.643273 2870.134337 2874.443022 2874.750234 2879.315326 2886.335362
122.285000 2869.151795 2873.693065 2878.809027 2879.099945 2884.816361 2889.877183
122.430000 2871.962315 2877.430936 2883.233798 2883.221598 2889.465270 2893.147759
122.480000 2873.344961 2878.620204 2884.720002 2884.528237 2890.547119 2894.729067
122.602000 2876.508877 2881.673746 2887.605103 2887.471661 2893.249400 2897.405196
122.724000 2879.495801 2885.100628 2890.641440 2890.442287 2895.716826 2900.424132
122.846000 2883.009102 2888.536958 2893.376788 2893.285597 2898.257157 2902.766639
122.968000 2886.795445 2891.613866 2896.015807 2896.092387 2900.607325 2905.353187
123.090000 2891.213066 2894.673378 2898.696856 2898.888848 2903.059138 2907.652544
123.200000 2894.065968 2896.982421 2900.959048 2901.206246 2905.494347 2909.654693
123.275000 2895.674492 2898.604924 2902.475333 2902.787630 2907.187517 2910.786955
123.350000 2897.028516 2900.185932 2904.060709 2904.327119 2908.647065 2911.971751
123.460000 2899.266943 2902.401122 2906.499559 2906.608390 2910.761658 2913.904603
123.570000 2901.670892 2904.968245 2908.797264 2908.909448 2913.059456 2915.999311
123.650000 2903.347296 2906.621156 2910.737005 2910.692771 2914.743371 2917.496194
123.735000 2905.137783 2908.718751 2912.929048 2912.704397 2916.521707 2919.338570
123.820000 2906.913357 2910.808767 2915.070077 2914.730467 2918.469826 2921.217697
123.950000 2910.137142 2914.032097 2918.199240 2917.752915 2921.067251 2923.681425
124.050000 2912.009890 2915.958884 2920.293558 2919.813495 2923.115792 2925.772292
124.150000 2913.834686 2918.204140 2922.361096 2921.819732 2925.162337 2928.022917
124.250000 2915.644331 2920.415732 2924.382390 2923.849560 2927.082761 2930.028003
124.325000 2917.051581 2921.909944 2925.810625 2925.380059 2928.599984 2931.800224
124.400000 2919.031767 2923.420804 2927.221336 2926.852228 2930.013486 2932.990823
124.475000 2920.462066 2925.274922 2928.754014 2928.403201 2931.478613 2934.396481
124.550000 2921.657259 2926.823037 2930.223952 2929.875596 2932.849568 2935.849007
124.625000 2923.412455 2928.324296 2931.590028 2931.242573 2934.096131 2937.044701
124.700000 2925.329324 2929.834651 2932.914359 2932.552677 2935.242231 2938.168244
124.823333 2928.670830 2932.059452 2934.906712 2934.805081 2937.363105 2940.020438
124.946667 2931.611393 2934.524757 2937.112056 2937.083961 2939.563100 2942.547025
125.070000 2934.697115 2937.059164 2939.368741 2939.444037 2941.691378 2944.815874
125.130000 2935.991617 2938.226688 2940.501388 2940.627951 2943.038624 2946.094112
125.225000 2938.146506 2940.037924 2942.434991 2942.579067 2945.042686 2948.345196
125.320000 2939.899731 2941.855475 2944.264605 2944.479428 2947.024693 2950.163599
125.450000 2942.318150 2944.385447 2946.955892 2947.008658 2949.671347 2952.581499
125.525000 2943.565187 2945.977754 2948.424025 2948.571762 2951.417476 2954.274350
125.600000 2944.915494 2947.440399 2950.137516 2950.200815 2953.027326 2955.700761
125.675000 2946.419315 2949.062411 2951.812560 2951.877498 2954.780196 2957.682468
125.750000 2947.830000 2950.678339 2953.520239 2953.531027 2956.464528 2959.256347
125.825000 2949.462136 2952.192346 2955.129479 2955.217988 2958.238296 2961.334002
125.900000 2951.326619 2953.945997 2956.770070 2956.922904 2959.977029 2963.165310
125.975000 2952.793836 2955.710879 2958.507209 2958.609539 2961.675912 2964.881530
126.050000 2954.333663 2957.369146 2960.113592 2960.263598 2963.363104 2966.302062
126.125000 2956.026353 2959.093629 2962.064562 2962.140327 2965.343826 2968.153303
126.200000 2958.225196 2961.204700 2964.112864 2964.159675 2967.136750 2969.914005
126.330000 2961.553682 2964.617389 2967.760468 2967.704379 2970.798152 2973.587563
126.450000 2964.122419 2967.422878 2970.913220 2970.590670 2973.610150 2976.394825
126.570000 2966.953596 2970.198267 2973.475025 2973.253788 2976.023914 2978.608561
126.650000 2968.675059 2972.042853 2975.338770 2975.019853 2977.681079 2980.348367
126.735000 2970.500105 2974.138754 2977.132161 2976.836296 2979.539107 2981.800482
126.820000 2972.470182 2976.007252 2978.914088 2978.618147 2981.152625 2983.271872
126.950000 2975.845713 2978.919867 2981.373557 2981.284735 2983.693472 2986.158547
127.025000 2977.807611 2980.744725 2982.993585 2983.062708 2985.460308 2988.659819
127.100000 2980.075715 2982.455966 2984.748918 2984.856125 2987.212741 2990.482674
127.175000 2981.490368 2984.269356 2986.386365 2986.610123 2989.080803 2992.258616
127.250000 2982.959093 2985.831221 2988.147115 2988.274377 2990.857287 2994.520364
127.325000 2984.413425 2987.261415 2989.634211 2990.000836 2992.901535 2997.034363
127.400000 2986.024186 2988.716350 2991.311812 2991.637843 2994.735008 2999.395625
127.419000 2986.338575 2989.061311 2991.745760 2992.068044 2995.149773 2999.829328
127.494500 2987.754436 2990.600522 2993.323947 2993.625570 2996.700629 3001.350021
127.570000 2989.369935 2992.232308 2994.793273 2995.143158 2998.181641 3002.865427
127.700000 2991.797289 2994.495823 2997.303017 2997.595080 3000.674668 3005.769679
127.775000 2993.106622 2995.718596 2998.592466 2999.035445 3002.298134 3007.661603
127.850000 2994.428135 2997.069589 3000.087695 3000.535839 3004.037815 3010.127444
127.960000 2996.559060 2999.234025 3002.436005 3002.938876 3006.580624 3013.116096
128.070000 2998.497152 3001.257064 3004.797550 3005.423509 3009.522952 3016.173422
128.150000 3000.221518 3002.931726 3006.511132 3007.294858 3011.847787 3017.991335
128.235000 3001.834555 3005.011542 3009.057558 3009.560602 3014.116914 3020.363967
128.320000 3003.734234 3007.351963 3011.462238 3011.853611 3016.260521 3021.938746
128.430000 3006.223449 3010.496215 3015.133889 3015.155098 3019.711751 3024.776305
128.515000 3008.789387 3013.100538 3017.652608 3017.694858 3021.971015 3027.855152
128.600000 3011.284382 3015.938346 3020.248030 3020.361721 3024.517361 3029.461067
128.675000 3013.245565 3018.442631 3022.603310 3022.623307 3026.732300 3032.078161
128.750000 3016.008454 3021.053491 3024.920214 3025.076776 3029.186410 3033.963346
128.825000 3018.311962 3023.451212 3027.398464 3027.519822 3031.494636 3036.210491
128.900000 3021.967417 3026.129081 3030.092543 3030.070357 3033.883417 3038.732557
128.975000 3024.121399 3028.351234 3032.181668 3032.325206 3036.134139 3041.164999
129.050000 3026.010210 3030.319695 3034.492100 3034.519386 3038.683477 3043.648478
129.125000 3027.871716 3032.367516 3036.640303 3036.726404 3040.958260 3046.725022
129.200000 3030.438988 3034.384553 3038.812863 3038.866346 3043.050812 3048.907248
129.275000 3032.429345 3036.813081 3041.171637 3041.270365 3045.452720 3051.068838
129.350000 3034.343031 3039.408243 3043.593198 3043.669656 3047.800355 3052.784321
129.460000 3037.769546 3042.603186 3046.901080 3046.958693 3051.427578 3055.848179
129.570000 3041.190983 3045.628824 3050.152827 3050.121222 3054.931343 3059.006529
129.650000 3043.486676 3047.920899 3052.516196 3052.544030 3057.164775 3061.444815
129.735000 3046.465947 3050.557378 3055.240758 3055.339341 3060.224054 3064.526135
129.820000 3048.691598 3053.449925 3058.117952 3058.192667 3063.137943 3067.460151
129.950000 3052.213213 3057.113060 3062.237693 3062.095680 3066.993458 3071.520560
130.025000 3054.746942 3059.360026 3064.630403 3064.350300 3069.130037 3073.423594
130.100000 3056.352920 3061.305786 3067.011657 3066.500510 3070.894128 3074.795030
130.230000 3059.462028 3064.745990 3070.647100 3069.810507 3074.043707 3077.872838
130.315000 3061.533072 3066.780055 3072.821793 3072.027125 3076.328696 3081.103409
130.400000 3063.415760 3068.856535 3074.857044 3074.159546 3078.588511 3083.420098
130.500000 3065.002582 3071.247601 3077.068256 3076.444341 3080.864893 3086.171593
130.600000 3067.502927 3073.618981 3079.173934 3078.753153 3083.450766 3088.686253
130.700000 3069.057889 3076.021683 3081.307990 3081.008154 3085.978577 3090.921389
130.830000 3071.572460 3078.948454 3084.023618 3083.808729 3088.692822 3094.198426
130.936667 3074.123212 3081.115098 3086.353955 3086.206460 3091.343786 3097.164625
131.043333 3076.512817 3083.366220 3088.739004 3088.545037 3093.688548 3099.751305
131.150000 3078.342908 3085.671233 3090.929035 3090.873838 3096.260548 3102.514005
131.290000 3081.636119 3088.831417 3093.938425 3093.957638 3099.386895 3105.826069
131.430000 3084.722532 3091.827010 3096.722914 3096.997781 3102.584742 3108.787094
131.525000 3086.658350 3093.869708 3098.727750 3099.178438 3105.011012 3111.221291
131.620000 3089.333378 3096.241789 3101.192021 3101.380085 3107.054546 3113.029333
131.750000 3092.868165 3099.310648 3104.403595 3104.425031 3109.914097 3115.047082
131.835000 3095.555485 3101.362575 3106.300733 3106.482879 3111.762516 3116.838001
131.920000 3097.131987 3103.735608 3108.653794 3108.620061 3113.640841 3118.711554
131.995000 3099.126467 3105.551540 3110.739824 3110.681514 3115.699857 3120.603232
132.070000 3102.343774 3107.628406 3112.847004 3112.813378 3117.932140 3123.164051
132.200000 3106.265464 3111.686818 3117.225514 3117.210213 3122.440818 3129.601211
132.320000 3109.367483 3115.325486 3121.453927 3121.662350 3127.875020 3135.215442
132.440000 3113.131542 3119.495631 3126.057687 3126.284741 3133.266940 3139.769065
132.560000 3116.238380 3123.818332 3131.231712 3130.913687 3137.936942 3144.068262
132.680000 3120.390244 3128.802673 3136.138149 3135.513125 3141.918601 3149.056064
132.800000 3122.992213 3133.630200 3140.466268 3139.665658 3145.643367 3152.614553
132.875000 3124.997705 3135.943634 3142.772787 3141.945861 3147.719525 3153.826864
132.950000 3127.719777 3138.581865 3144.777372 3144.113977 3149.619216 3155.484133
133.025000 3130.692938 3141.348503 3146.724986 3146.333231 3151.921229 3158.125283
133.100000 3134.440542 3143.627767 3148.592182 3148.393165 3153.686263 3160.324828
133.210000 3139.121603 3146.373150 3150.958117 3151.126771 3156.367228 3163.017802
133.320000 3142.625148 3148.798741 3153.214391 3153.619170 3158.827480 3165.360760
133.445000 3146.268974 3151.466697 3155.570296 3156.262107 3161.352293 3168.383485
133.570000 3149.314703 3153.941409 3157.975991 3158.871248 3164.475566 3170.913700
133.700000 3152.781568 3156.279219 3160.375069 3161.437365 3167.197893 3173.921367
133.775000 3154.307726 3157.626309 3161.772496 3163.013301 3168.900789 3175.665740
133.850000 3155.588723 3158.879283 3163.458235 3164.540577 3170.772864 3177.064212
133.950000 3157.351500 3160.601091 3165.416579 3166.510756 3172.766044 3178.975192
134.050000 3158.824379 3162.163410 3167.372904 3168.448220 3175.173155 3181.405850
134.150000 3160.371041 3163.753268 3169.541761 3170.381935 3177.056780 3183.715177
134.225000 3161.885482 3165.054926 3171.192818 3171.798447 3178.472199 3185.210893
134.300000 3163.105687 3166.425685 3172.618935 3173.265147 3179.890813 3186.700676
134.375000 3164.236259 3167.785011 3174.077489 3174.712523 3181.392379 3188.005997
134.450000 3165.482937 3169.051564 3175.756956 3176.161624 3182.874415 3189.363670
134.525000 3166.923533 3170.291548 3177.551558 3177.665388 3184.471734 3191.035320
134.600000 3168.320499 3171.497866 3179.259003 3179.070528 3185.840244 3192.794623
134.710000 3170.266842 3173.283613 3181.494398 3181.122748 3187.819066 3194.894731
134.820000 3171.938373 3175.008617 3183.621140 3183.208141 3190.200819 3197.704281
134.880000 3172.996241 3176.172262 3184.697832 3184.356396 3191.429580 3199.393113
134.975000 3174.618682 3177.750103 3186.401885 3186.100984 3193.021417 3201.022715
135.070000 3176.483141 3179.401441 3188.325686 3187.848102 3194.765219 3203.318079
135.180000 3178.123738 3181.320310 3190.244248 3189.797678 3196.670770 3205.690466
135.265000 3179.587994 3182.814438 3191.942341 3191.399925 3198.354915 3207.518856
135.350000 3181.038676 3184.263020 3193.624952 3192.962809 3199.807142 3209.141088
135.480000 3182.908435 3186.331360 3196.121240 3195.273549 3201.965491 3212.417557
135.565000 3184.147642 3187.917142 3197.823560 3196.888645 3203.669927 3213.822724
135.650000 3185.687080 3189.217083 3199.558974 3198.602164 3205.515603 3216.721941
135.725000 3187.098795 3190.582208 3201.148338 3200.123430 3207.205648 3218.133396
135.800000 3188.366610 3192.049505 3202.568555 3201.674948 3208.768547 3220.046670
135.900000 3189.891141 3193.951191 3204.506223 3203.770447 3210.758646 3223.219571
136.000000 3191.482015 3195.962625 3206.375668 3205.998709 3213.466240 3226.463586
136.100000 3193.391788 3198.008313 3208.307875 3208.193712 3216.332957 3229.487961
136.210000 3195.442688 3200.091604 3210.364236 3210.619269 3219.477112 3232.212839
136.320000 3197.403143 3202.010514 3212.389118 3213.117721 3222.992789 3234.424250
136.430000 3199.582656 3204.138501 3214.886308 3215.624632 3226.599681 3236.941816
136.570000 3201.505105 3206.741529 3218.261955 3218.989254 3230.564758 3239.479369
136.700000 3203.769583 3210.141678 3222.004185 3222.136127 3233.780381 3241.742239
136.775000 3205.430230 3211.595677 3223.827762 3223.927076 3235.695375 3243.549336
136.850000 3207.109186 3213.209711 3225.807671 3225.689133 3237.245226 3244.905248
136.925000 3208.481458 3215.351123 3227.530227 3227.501267 3238.725999 3246.362638
137.000000 3210.152861 3217.339792 3229.413184 3229.386153 3240.230645 3248.213100
137.100000 3212.702695 3220.608195 3232.496529 3232.089813 3242.593855 3250.333081
137.200000 3215.727877 3223.803871 3235.186089 3234.842947 3245.054209 3252.377605
137.300000 3218.545758 3227.330047 3238.269682 3237.752206 3247.450342 3254.907611
137.430000 3223.151703 3231.646491 3242.279572 3241.835898 3251.741214 3258.949362
137.560000 3226.585240 3235.275787 3246.263763 3245.812210 3256.321612 3262.876309
137.690000 3230.476402 3238.651435 3250.682393 3250.007937 3260.561373 3265.743005
137.820000 3235.529598 3242.578299 3256.645827 3254.259133 3264.320132 3269.109684
137.900000 3238.300237 3244.488678 3260.739495 3256.866289 3266.420910 3270.908142
137.985000 3240.728450 3247.143512 3263.069057 3259.652403 3268.743033 3273.464917
138.070000 3243.392233 3250.501168 3265.697047 3262.637214 3271.237944 3275.878685
138.200000 3253.285422 3261.359165 3270.377511 3268.958794 3275.409453 3280.119012
138.275000 3256.768621 3265.602449 3272.789628 3271.944173 3277.798833 3282.082646
138.350000 3260.205452 3269.640050 3275.522754 3274.915693 3280.459652 3284.287530
