depth(m) lower_95(kyr) lower_68(kyr) median(kyr) mean(kyr) upper_68(kyr) upper_95(kyr)
87.910000 2684.577658 2693.532869 2700.594042 2699.646630 2705.428229 2709.449055
88.000000 2688.836716 2696.986722 2703.108771 2702.321188 2707.646363 2711.155903
88.100000 2691.436136 2700.098697 2706.067235 2705.258171 2710.410546 2713.598785
88.190000 2695.263548 2703.104974 2708.638431 2707.929698 2712.630621 2715.836798
88.280000 2698.947812 2706.255924 2711.341742 2710.563999 2714.988390 2717.738165
88.380000 2702.279737 2708.752709 2714.184775 2713.309148 2717.614085 2720.429661
88.470000 2705.573305 2711.547575 2716.540076 2715.860363 2720.001398 2722.788325
88.570000 2709.971822 2714.786714 2719.054119 2718.696849 2722.421467 2725.305601
88.660000 2713.598464 2718.374728 2722.058745 2721.736421 2725.051409 2728.086981
88.760000 2720.930017 2723.822233 2727.041548 2726.972574 2729.955427 2733.561188
88.850000 2725.300845 2728.184062 2730.981655 2731.025166 2733.949100 2737.444415
88.950000 2729.749632 2732.109136 2734.830814 2735.055586 2737.905677 2741.609447
89.040000 2732.609435 2734.776536 2737.876238 2737.937456 2740.939341 2744.311987
89.140000 2735.327910 2737.654075 2740.943660 2740.924690 2743.925582 2747.294537
89.230000 2737.491877 2740.082958 2743.369294 2743.388296 2746.684821 2749.899265
89.330000 2739.552360 2742.767791 2746.061619 2746.089266 2749.383269 2753.019045
89.420000 2741.982580 2745.196776 2748.478115 2748.649605 2752.148651 2755.653129
89.510000 2744.209190 2747.951954 2751.327649 2751.534100 2755.248310 2759.371196
89.610000 2747.141065 2750.915886 2754.452014 2754.890428 2759.037949 2764.468326
89.705000 2749.514884 2753.912161 2757.952408 2758.312998 2762.669810 2768.982514
89.800000 2752.372584 2757.154131 2761.340123 2761.721208 2767.007370 2772.764359
89.926667 2755.531843 2760.462975 2765.509463 2765.861569 2771.525905 2776.766778
90.053333 2759.111619 2763.925536 2769.739364 2769.944186 2776.171245 2780.572169
90.180000 2762.908524 2768.275576 2774.366951 2774.234492 2780.423842 2784.519603
90.270000 2765.214414 2771.257672 2777.572646 2777.170057 2783.346881 2786.817136
90.370000 2768.932492 2774.673512 2780.995418 2780.499845 2786.176971 2789.164891
90.460000 2771.866351 2777.749205 2784.147798 2783.356611 2788.690505 2791.636885
90.555000 2775.286457 2781.085301 2787.119167 2786.267900 2790.869632 2793.852442
90.650000 2778.075149 2784.946692 2789.958623 2789.190146 2793.136575 2795.954979
90.745000 2782.170085 2788.418040 2792.556352 2791.871449 2795.141432 2797.958805
90.840000 2786.612025 2791.882607 2794.901869 2794.505013 2797.141158 2799.684170
90.935000 2790.853177 2794.715726 2797.144822 2796.993680 2799.363477 2801.926575
91.030000 2794.763582 2797.323213 2799.382263 2799.402440 2801.374838 2804.565333
91.120000 2797.182475 2799.358963 2801.261764 2801.442231 2803.457234 2806.741979
91.220000 2799.595332 2801.439392 2803.296819 2803.573138 2805.794413 2808.940302
91.310000 2801.736002 2803.235021 2805.210671 2805.533671 2807.794932 2811.261705
91.410000 2803.498701 2805.236615 2807.254292 2807.700422 2810.272119 2813.451933
91.500000 2805.591979 2807.219408 2809.510445 2809.895915 2812.718663 2816.066105
91.600000 2807.833459 2809.738246 2812.383176 2812.685884 2815.892949 2818.910332
91.690000 2810.222881 2812.440735 2815.532647 2815.748138 2819.144809 2821.949924
91.790000 2812.973276 2816.246084 2819.868953 2820.040530 2823.543830 2827.641981
91.880000 2815.908447 2820.589520 2824.705799 2825.221385 2830.316178 2835.607594
91.970000 2818.827367 2823.815030 2829.592843 2829.870989 2836.518884 2840.663819
92.115000 2823.734224 2830.985300 2837.308163 2837.045996 2842.815925 2849.223787
92.260000 2831.949240 2838.669148 2843.469591 2843.812534 2849.753017 2855.269285
92.350000 2834.824786 2841.720771 2846.647828 2847.365928 2853.680423 2861.968408
92.495000 2839.860419 2845.354346 2851.455036 2853.408367 2862.738570 2873.954676
92.640000 2844.321070 2849.313814 2856.221926 2859.613261 2873.194132 2881.412107
92.780000 2848.037145 2853.105562 2864.532719 2865.578595 2878.807845 2887.065102
92.920000 2851.355681 2857.145614 2872.457636 2871.580501 2884.426919 2892.326703
93.020000 2853.932579 2859.801509 2877.320570 2875.644424 2888.109686 2894.892505
93.130000 2856.043811 2864.400269 2882.891277 2880.306579 2891.793303 2900.705671
93.240000 2858.474135 2869.855427 2888.007089 2884.899558 2895.584050 2905.667448
93.340000 2860.790356 2876.844034 2891.975585 2889.150064 2899.358997 2908.543685
93.430000 2862.919919 2884.340268 2895.508742 2893.131009 2903.229358 2910.743495
93.530000 2865.185604 2893.334611 2900.791861 2898.060285 2907.719992 2912.985003
93.630000 2868.623889 2898.308683 2906.183604 2902.523102 2911.838055 2915.270465
93.720000 2871.704150 2902.422976 2910.414886 2906.324388 2914.999819 2917.741981
93.820000 2875.285498 2907.454211 2914.771963 2910.412953 2918.146312 2920.923956
93.910000 2878.284375 2911.602418 2917.416117 2913.258490 2920.309758 2922.947509
94.010000 2882.773469 2913.994225 2919.652985 2916.000354 2922.450771 2925.200765
94.100000 2886.350400 2916.408054 2921.721208 2918.474326 2924.277463 2926.862610
94.200000 2890.583174 2919.617006 2923.987751 2921.290171 2926.455805 2928.985046
94.340000 2901.818412 2923.241244 2927.072493 2925.351709 2929.523980 2931.834026
94.480000 2922.816109 2927.384725 2930.225324 2929.783406 2932.507951 2934.728717
94.580000 2927.773768 2930.466183 2932.849541 2932.633998 2935.026712 2937.259592
94.680000 2931.773671 2933.973230 2936.288649 2936.102126 2938.414387 2940.393828
94.770000 2934.456117 2936.655302 2938.926158 2938.793358 2940.969472 2943.290903
94.865000 2936.900327 2939.142354 2941.457955 2941.401354 2943.616206 2945.809356
94.960000 2939.470333 2941.645790 2943.883664 2943.914712 2946.214905 2948.539054
95.060000 2942.049698 2944.103817 2946.306944 2946.382329 2948.721454 2950.952937
95.150000 2944.106209 2946.283369 2948.476429 2948.608663 2950.976025 2953.632546
95.250000 2946.703420 2948.680026 2951.111705 2951.319181 2953.905520 2956.952724
95.340000 2948.794607 2951.317845 2954.000075 2954.163160 2957.125942 2960.850242
95.440000 2951.692603 2954.110044 2957.403155 2957.541584 2960.780389 2965.342062
95.585000 2955.644028 2959.490361 2963.908199 2964.312510 2969.203621 2974.676112
95.730000 2962.237783 2966.692895 2971.603663 2971.630060 2977.257170 2980.173644
95.820000 2965.515849 2970.627181 2975.959578 2975.518492 2980.431759 2982.590752
95.915000 2969.824983 2975.458234 2980.390469 2979.457669 2983.244999 2985.329602
96.010000 2973.710934 2980.575823 2983.706148 2983.088531 2985.876391 2987.857162
96.110000 2979.114938 2983.743792 2986.175545 2985.869661 2988.276700 2990.059335
96.200000 2982.218986 2985.815627 2988.141311 2987.883251 2990.125636 2991.979797
96.300000 2984.605275 2987.859408 2990.101239 2989.952426 2992.172170 2994.277665
96.390000 2986.714618 2989.769298 2991.955096 2991.832579 2993.973880 2996.040321
96.490000 2988.977038 2991.841788 2994.054877 2993.941878 2996.021760 2998.159200
96.590000 2991.215570 2993.959726 2996.175244 2996.062148 2998.091732 3000.432615
96.680000 2993.293735 2995.913480 2998.072727 2998.009079 3000.120460 3002.462004
96.780000 2995.498332 2998.363382 3000.383233 3000.339786 3002.394675 3004.709853
96.870000 2997.877065 3000.397884 3002.401804 3002.533862 3004.760230 3007.418630
96.970000 3000.500757 3002.525301 3004.582756 3004.729070 3007.047670 3009.741539
97.060000 3002.407609 3004.436705 3006.509275 3006.709580 3009.036005 3011.915675
97.155000 3004.114199 3006.399195 3008.616158 3008.806258 3011.253508 3014.239722
97.250000 3006.122999 3008.318038 3010.697436 3010.862208 3013.411060 3016.283912
97.350000 3008.031823 3010.435412 3012.787266 3013.002058 3015.659571 3018.512033
97.495000 3010.801413 3013.290874 3016.063709 3016.167876 3018.903642 3022.294307
97.640000 3013.773418 3016.410109 3019.234873 3019.399772 3022.439458 3025.576318
97.730000 3015.803855 3018.682458 3021.647039 3021.878466 3024.914859 3028.935314
97.825000 3018.226884 3021.329743 3024.448544 3024.825110 3028.246071 3032.779570
97.920000 3021.526385 3024.164106 3027.868823 3027.976718 3031.620147 3035.973365
98.020000 3024.292099 3027.613920 3031.548391 3031.566087 3035.333463 3039.325483
98.110000 3026.647947 3030.820346 3034.992022 3034.863550 3038.948376 3042.448508
98.210000 3029.812444 3034.055728 3038.245987 3038.213219 3042.099144 3046.445775
98.300000 3032.781763 3037.179196 3041.166260 3041.069515 3045.059181 3048.982167
98.400000 3035.551852 3040.053255 3043.891582 3043.870737 3047.837558 3051.795946
98.545000 3039.081258 3043.708353 3047.721135 3047.737872 3051.881280 3056.930705
98.690000 3042.898617 3047.548558 3051.353368 3051.658369 3056.042980 3061.477958
98.780000 3045.775045 3050.171393 3054.226615 3054.414756 3058.854604 3064.168765
98.880000 3049.627730 3053.469477 3057.600951 3057.824869 3062.038176 3066.847727
98.970000 3052.737703 3056.724474 3060.846982 3061.072532 3065.600698 3069.945861
99.070000 3055.975049 3059.800783 3063.986055 3064.193138 3068.757502 3073.305190
99.160000 3058.151043 3061.894386 3066.500208 3066.704152 3071.289671 3076.558511
99.260000 3060.701361 3064.681004 3069.414043 3069.459637 3073.996917 3079.052528
99.355000 3063.098655 3067.050625 3072.056007 3072.096125 3076.665887 3082.636084
99.450000 3065.277850 3069.489746 3074.808035 3074.684404 3079.321488 3085.247539
99.550000 3067.858446 3071.950069 3077.284491 3077.274586 3082.122580 3087.928861
99.640000 3070.121959 3074.419206 3079.796168 3079.849043 3084.872413 3090.454157
99.740000 3072.744728 3076.849241 3082.690705 3082.646792 3088.094192 3093.352223
99.830000 3074.623701 3079.619323 3085.280561 3085.329490 3091.147075 3096.056929
99.930000 3077.948090 3082.662466 3088.483993 3088.473419 3094.157798 3098.662472
100.020000 3080.570625 3085.513771 3091.077354 3091.202531 3096.834779 3101.684719
100.120000 3082.898024 3088.692723 3094.204942 3094.339167 3100.278151 3104.430149
100.210000 3085.076642 3091.396558 3097.289105 3097.028350 3102.780857 3107.148478
100.310000 3088.299453 3094.389432 3100.276586 3099.888532 3105.446077 3109.430396
100.400000 3090.553886 3096.928749 3103.154092 3102.640889 3107.999269 3111.764124
100.500000 3093.706848 3100.633991 3106.265229 3105.827563 3110.936565 3115.105050
100.595000 3098.013237 3104.079508 3109.210941 3108.926724 3113.945739 3118.130180
100.690000 3102.677607 3107.985318 3112.459497 3112.323858 3116.894506 3121.191084
100.785000 3106.968662 3112.297132 3116.558617 3116.543185 3120.925003 3125.171230
100.880000 3113.011743 3117.139289 3120.845555 3120.870406 3124.605354 3128.813217
100.980000 3118.265117 3121.870390 3125.318641 3125.366360 3128.882919 3133.491034
101.070000 3122.302924 3125.816137 3129.065908 3129.291553 3132.872683 3137.286480
101.170000 3126.185247 3129.520182 3133.029312 3133.182969 3136.928875 3140.840959
101.260000 3129.944429 3132.933024 3136.610871 3136.807918 3140.689740 3144.317908
101.360000 3133.104507 3136.632308 3140.537753 3140.746781 3144.881064 3149.211923
101.450000 3135.655328 3139.516954 3143.863373 3143.904917 3148.169374 3152.804859
101.550000 3138.961836 3143.426689 3147.847535 3148.153215 3152.751673 3159.285829
101.645000 3142.204627 3146.628566 3151.402037 3151.779432 3156.638380 3164.059369
101.740000 3146.015788 3149.830211 3154.839144 3155.376042 3160.468565 3169.478124
101.840000 3149.198034 3153.406176 3158.302409 3159.064729 3164.674069 3174.350609
101.930000 3151.550214 3156.346776 3161.409071 3162.438612 3168.771813 3178.550550
102.030000 3154.649325 3159.805313 3165.019806 3166.077090 3172.568892 3183.590715
102.120000 3157.613273 3162.761465 3168.554880 3169.663821 3176.737672 3187.611942
102.215000 3160.132285 3165.874818 3172.099387 3173.243677 3181.084513 3190.839988
102.310000 3163.949741 3169.041126 3175.519129 3176.831237 3185.496098 3194.885174
102.405000 3166.659224 3172.054425 3179.126029 3180.494925 3190.440797 3199.199559
102.500000 3169.231707 3175.264317 3182.852978 3184.221642 3195.014440 3203.662957
102.575000 3171.449386 3177.752860 3186.168287 3187.237065 3198.389455 3206.341947
102.650000 3173.534724 3180.077166 3189.442132 3190.258663 3201.929197 3209.694596
102.740000 3175.552415 3182.829845 3192.990720 3193.877101 3205.912471 3214.216300
102.840000 3178.269259 3185.803705 3197.064874 3197.891726 3210.524143 3218.441129
102.930000 3180.830560 3188.602408 3201.199997 3201.333621 3213.690713 3220.794343
103.020000 3183.968023 3191.846007 3206.067876 3205.019409 3217.345996 3224.226240
103.120000 3186.852963 3195.368814 3211.929632 3209.303784 3220.891791 3227.868599
103.210000 3190.234364 3198.057516 3217.198492 3213.275044 3224.882242 3230.758094
103.310000 3193.422324 3201.506624 3221.974111 3217.406042 3228.567628 3233.649958
103.400000 3196.402116 3204.754720 3225.736129 3220.928067 3232.407624 3237.115707
103.500000 3199.881281 3208.194619 3229.429491 3224.702005 3236.187588 3240.631863
103.590000 3202.627763 3211.738140 3232.839295 3228.002181 3239.440922 3243.763557
103.680000 3204.707842 3215.408754 3235.658423 3231.111727 3242.307075 3246.646715
103.780000 3207.711211 3218.912094 3238.946996 3234.618064 3245.382996 3248.983566
103.870000 3211.621414 3222.301852 3242.208883 3237.754234 3247.832349 3251.472762
103.970000 3213.758269 3226.303660 3245.379039 3241.150679 3250.263866 3253.667620
104.060000 3217.042200 3230.278833 3248.233236 3244.169740 3252.735609 3255.986223
104.160000 3220.698778 3235.461329 3251.093160 3247.530077 3255.615330 3259.098891
104.250000 3224.461757 3239.392224 3253.670711 3250.373532 3258.190497 3261.589169
104.350000 3228.058959 3246.725544 3256.322640 3253.608679 3260.894085 3264.354735
104.440000 3231.667430 3251.086030 3258.793326 3256.612333 3263.365005 3266.565011
104.530000 3236.445793 3254.826540 3261.413861 3259.443138 3265.599723 3269.051709
104.630000 3241.748594 3258.889131 3264.404645 3262.720573 3268.336442 3271.548331
104.720000 3248.067770 3261.636396 3267.190083 3265.646567 3270.773754 3273.819058
104.820000 3253.619803 3264.782757 3270.305292 3269.032798 3273.804879 3276.325686
104.910000 3257.725145 3268.253291 3272.964867 3271.972014 3276.285598 3278.859307
105.010000 3264.057380 3272.015347 3275.765473 3275.369232 3279.092131 3282.332471
105.100000 3270.698010 3275.592125 3278.819371 3278.578353 3281.855030 3284.982448
105.190000 3275.479684 3278.835555 3282.034152 3281.933321 3284.880134 3288.054261
105.290000 3279.724925 3282.563333 3285.420778 3285.465917 3288.312326 3291.206683
105.380000 3282.610884 3285.236483 3288.064426 3288.121932 3291.112134 3293.840026
105.480000 3285.651425 3287.937480 3290.753269 3290.952224 3293.939475 3297.105917
105.570000 3287.936481 3290.423593 3293.201606 3293.429717 3296.439148 3299.187211
105.670000 3290.584439 3293.323612 3296.249884 3296.357578 3299.507192 3302.716314
105.760000 3293.061889 3295.920767 3299.071907 3299.157002 3302.431941 3305.778574
105.850000 3295.977628 3298.712187 3301.839544 3301.993859 3305.272629 3308.838743
105.970000 3299.635151 3302.791201 3306.015121 3306.067702 3309.335063 3313.604206
106.040000 3302.674466 3306.070114 3309.231179 3309.349935 3312.595575 3316.678293
106.140000 3307.363668 3310.834707 3314.146474 3314.206535 3317.696557 3321.313790
106.230000 3311.484778 3314.572825 3317.791217 3317.866353 3321.228975 3324.893137
106.330000 3314.660747 3318.032819 3322.041412 3321.975099 3325.637755 3329.802660
106.420000 3317.545509 3321.339126 3325.466118 3325.491427 3329.442891 3333.785488
106.520000 3321.073304 3325.127664 3329.233115 3329.381563 3333.502495 3338.712533
106.645000 3325.370091 3329.956966 3334.108387 3334.302331 3338.823413 3343.945018
106.770000 3330.030432 3334.806136 3339.382481 3339.257278 3343.807728 3348.005024
106.890000 3335.239262 3339.578827 3344.383216 3344.025606 3348.235816 3352.088360
106.990000 3339.163859 3344.153256 3348.516926 3348.359036 3352.257497 3356.857021
107.080000 3342.664291 3348.136861 3352.174166 3351.996976 3355.833469 3360.677537
107.180000 3349.073044 3352.924242 3356.335149 3356.586334 3360.441201 3364.134643
107.270000 3352.549485 3356.406380 3359.970678 3360.107604 3364.249714 3367.094629
107.360000 3355.922312 3359.349520 3363.310338 3363.290750 3367.225987 3370.315482
107.460000 3359.237821 3362.649970 3366.994871 3366.808751 3370.637659 3374.183928
107.550000 3362.636485 3366.475895 3370.447285 3370.394120 3374.268852 3378.197751
107.650000 3367.281194 3370.675448 3374.111260 3374.324868 3378.115734 3382.860258
107.740000 3370.835911 3374.055596 3377.549819 3377.772910 3381.511213 3385.751692
107.840000 3374.600267 3377.399559 3381.090960 3381.514229 3385.477451 3391.178587
107.930000 3377.412955 3380.519664 3384.502167 3385.104581 3389.576725 3395.939565
108.020000 3380.797095 3384.187218 3387.865985 3388.834702 3394.471610 3400.263483
108.120000 3384.447885 3387.653441 3392.052054 3393.159350 3399.332553 3405.130539
108.210000 3387.837203 3391.064118 3396.126187 3397.047134 3403.468391 3409.126436
108.310000 3391.330716 3394.835226 3400.848057 3401.114079 3407.335987 3413.296332
108.400000 3394.731262 3398.475445 3404.597575 3404.698796 3410.768115 3416.751708
108.500000 3398.527659 3403.454065 3408.822913 3409.042906 3414.852565 3421.237214
108.590000 3402.676864 3407.603746 3412.705286 3412.763251 3418.240139 3424.350538
108.680000 3405.566794 3410.924593 3416.059978 3416.195802 3421.623295 3427.078406
108.780000 3408.597632 3414.260375 3420.059939 3419.832838 3425.292060 3429.928707
108.870000 3411.568700 3418.063929 3423.569766 3423.155651 3428.440371 3432.483438
108.970000 3414.975287 3421.638301 3427.301565 3426.855158 3431.868542 3435.669850
109.060000 3417.737797 3425.065846 3430.815447 3430.116343 3434.767077 3438.702592
109.160000 3421.212055 3428.838224 3434.167933 3433.498037 3437.998787 3441.412437
109.250000 3425.493537 3432.169089 3437.182268 3436.510210 3440.578442 3444.363629
109.350000 3428.343638 3435.452926 3440.126857 3439.591802 3443.689510 3448.085103
109.440000 3432.923295 3438.315689 3442.861259 3442.491355 3446.694903 3450.816593
109.530000 3436.431657 3441.369449 3445.820275 3445.532132 3449.859316 3453.901089
109.630000 3439.845539 3444.633681 3449.135685 3449.199807 3453.826195 3458.619069
109.720000 3443.922303 3448.020586 3452.714982 3452.976887 3458.050188 3463.669896
109.815000 3447.536972 3451.615672 3457.133424 3457.386563 3463.004704 3468.538825
109.910000 3451.195578 3455.672457 3461.579236 3461.618829 3467.432924 3473.379033
110.010000 3455.922222 3460.659752 3466.340864 3466.281999 3471.535291 3477.030584
110.100000 3460.477597 3466.289731 3471.006258 3471.080145 3475.851382 3481.629960
110.190000 3467.380990 3471.872637 3476.220139 3476.404929 3480.902521 3487.855740
110.290000 3473.115457 3476.697179 3481.151884 3481.617551 3486.211454 3493.035111
110.380000 3476.881831 3480.597132 3485.139703 3485.552033 3490.337573 3496.625893
110.480000 3479.881586 3484.382889 3489.306431 3489.523553 3494.227381 3501.991779
110.570000 3482.715899 3487.410891 3492.416292 3492.719223 3497.792540 3505.363660
110.670000 3485.173459 3490.659430 3495.663272 3496.228527 3501.595739 3509.037112
110.760000 3488.181672 3493.591608 3498.713319 3499.493073 3506.019518 3512.203467
110.850000 3490.771130 3496.524081 3501.944605 3502.873858 3510.372344 3515.236583
110.950000 3494.507137 3500.151522 3506.043502 3506.711898 3514.690273 3519.053288
