depth(m) lower_95(kyr) lower_68(kyr) median(kyr) mean(kyr) upper_68(kyr) upper_95(kyr)
303.770000 2680.684892 2684.547557 2697.132250 2695.798875 2705.028620 2709.195814
303.903333 2681.315529 2685.408540 2697.895303 2696.428258 2705.647631 2709.738845
304.036667 2681.940207 2686.100514 2698.475504 2697.061245 2706.237362 2710.129706
304.170000 2682.564817 2686.804849 2699.025984 2697.640478 2706.752689 2710.587267
304.311875 2683.134182 2687.685810 2699.704775 2698.229468 2707.174062 2710.918207
304.453750 2683.867043 2688.576192 2700.272365 2698.822945 2707.588257 2711.267398
304.595625 2684.530980 2689.331214 2700.907674 2699.404878 2707.961859 2711.637847
304.737500 2685.362772 2690.156770 2701.404732 2699.978536 2708.381178 2711.936417
304.879375 2686.023415 2691.057403 2701.897929 2700.562370 2708.841686 2712.248130
305.021250 2686.927201 2692.027158 2702.446805 2701.155128 2709.153280 2712.611696
305.163125 2687.664796 2692.898825 2702.938129 2701.709592 2709.576243 2712.905943
305.305000 2688.136118 2693.746521 2703.432337 2702.268410 2709.880084 2713.259699
305.446875 2689.014907 2694.572702 2704.023038 2702.814105 2710.219652 2713.608642
305.588750 2689.827472 2695.212212 2704.392580 2703.356988 2710.495488 2713.963705
305.730625 2690.633367 2696.121501 2704.982865 2703.909672 2710.802466 2714.174690
305.872500 2691.744108 2696.896960 2705.513358 2704.454957 2711.077631 2714.425720
306.014375 2692.679682 2697.803339 2705.981204 2704.998092 2711.444027 2714.639401
306.156250 2693.757420 2698.510684 2706.414402 2705.547116 2711.743386 2714.940350
306.298125 2694.427857 2699.347609 2706.971235 2706.106790 2712.048575 2715.214690
306.440000 2695.169728 2700.308362 2707.518490 2706.635513 2712.331953 2715.465416
306.581875 2696.172139 2701.111987 2708.090330 2707.172605 2712.680090 2715.686084
306.723750 2697.166510 2701.884984 2708.618689 2707.701381 2712.983487 2715.981238
306.865625 2698.126928 2702.713062 2709.152945 2708.231944 2713.293717 2716.257316
307.007500 2698.622140 2703.600293 2709.616502 2708.773130 2713.611860 2716.591125
307.149375 2699.375183 2704.512886 2710.145939 2709.327960 2713.867551 2716.848265
307.291250 2699.981206 2705.442577 2710.651708 2709.884151 2714.203335 2717.127874
307.433125 2700.513711 2706.287248 2711.197612 2710.427890 2714.535528 2717.400952
307.575000 2701.081732 2707.062890 2711.748841 2710.973482 2714.839447 2717.724894
307.716875 2701.553564 2708.005328 2712.305739 2711.525944 2715.097803 2718.042025
307.858750 2702.016269 2708.767850 2712.814689 2712.071952 2715.465581 2718.360379
308.000625 2702.824909 2709.576312 2713.445917 2712.614607 2715.795218 2718.688367
308.142500 2703.583891 2710.273872 2713.977368 2713.159950 2716.081331 2718.959253
308.284375 2704.085847 2710.992079 2714.513378 2713.708365 2716.471077 2719.303547
308.426250 2704.931936 2711.866354 2715.009914 2714.266091 2716.846247 2719.615969
308.568125 2705.611505 2712.621840 2715.547384 2714.815301 2717.229385 2719.934838
308.710000 2706.516942 2713.276509 2716.082331 2715.377899 2717.646466 2720.307320
308.843333 2707.002562 2713.809858 2716.564241 2715.904037 2718.037743 2720.608439
308.976667 2707.588913 2714.448201 2717.062170 2716.426490 2718.525790 2720.987010
309.110000 2708.330302 2715.111947 2717.573723 2716.967223 2719.018732 2721.425143
309.243333 2709.028399 2715.742908 2718.015467 2717.502268 2719.560691 2721.818092
309.376667 2709.658441 2716.387843 2718.480617 2718.059850 2720.168463 2722.259086
309.510000 2710.683470 2717.046011 2718.933736 2718.599874 2720.714929 2722.659079
309.650000 2711.463749 2717.654096 2719.467748 2719.164391 2721.318435 2723.220601
309.790000 2712.617157 2718.273657 2719.941060 2719.716753 2721.820702 2723.823562
309.930000 2713.609187 2718.914209 2720.434293 2720.278794 2722.431503 2724.389548
310.070000 2714.778460 2719.570952 2720.912779 2720.850140 2722.989796 2724.940232
310.210000 2715.463128 2720.110769 2721.455145 2721.435991 2723.551726 2725.576076
310.310000 2715.754885 2720.500548 2721.825870 2721.848351 2723.984753 2726.068631
310.410000 2716.322021 2720.893763 2722.257710 2722.292534 2724.383745 2726.490048
310.530000 2717.407651 2721.353563 2722.855392 2722.917734 2725.013063 2727.470051
310.650000 2718.584780 2721.863701 2723.455369 2723.578955 2725.595633 2728.303082
310.770000 2719.221074 2722.347909 2724.139005 2724.285549 2726.341470 2729.999320
310.890000 2720.117166 2722.835049 2724.891312 2725.020454 2727.141629 2731.452671
311.010000 2721.078210 2723.300854 2725.635202 2725.737892 2727.950637 2732.780197
311.150000 2721.654833 2723.832792 2726.314464 2726.563841 2728.966279 2734.661023
311.290000 2722.411839 2724.359573 2726.917965 2727.409880 2730.229945 2736.673203
311.430000 2723.013803 2724.935930 2727.591980 2728.264836 2731.400200 2738.491074
311.570000 2723.628118 2725.509205 2728.283577 2729.178018 2732.891496 2740.444585
311.710000 2724.064462 2726.108219 2728.927799 2730.152153 2734.374047 2742.060514
311.843333 2724.559526 2726.664754 2729.675866 2731.345809 2736.465362 2744.358516
311.976667 2724.964050 2727.228474 2730.689648 2732.576660 2738.810975 2746.192197
312.110000 2725.455013 2727.854302 2731.692122 2733.791775 2741.107608 2747.738083
312.243333 2725.842051 2728.557464 2732.771311 2734.998944 2743.284728 2750.097635
312.376667 2726.372701 2729.093811 2733.968616 2736.185580 2744.777768 2751.282491
312.510000 2726.704242 2729.627047 2735.316097 2737.441524 2746.917616 2753.578097
312.650000 2727.050504 2730.263539 2737.122490 2738.869255 2749.219042 2754.996551
312.790000 2727.432873 2730.758119 2739.221444 2740.276768 2751.210807 2757.223774
312.930000 2727.877870 2731.347896 2741.012418 2741.698649 2753.287106 2758.823726
313.070000 2728.240040 2731.951771 2743.000789 2743.111668 2755.081040 2760.378858
313.210000 2728.617382 2732.485893 2744.907408 2744.457852 2756.712533 2761.622138
313.343333 2729.019809 2732.914469 2746.600273 2745.599598 2758.079873 2763.424660
313.476667 2729.523247 2733.413944 2748.546064 2746.721093 2759.109378 2764.405967
313.610000 2729.938013 2733.955498 2750.216099 2747.828727 2760.131750 2766.151206
313.743333 2730.340095 2734.435381 2752.050702 2748.904000 2761.077204 2767.126584
313.876667 2730.879559 2734.984418 2753.542574 2749.952862 2761.994440 2767.899933
314.010000 2731.412173 2735.487992 2755.038482 2751.006446 2762.794603 2769.157260
314.150000 2732.029756 2736.027719 2756.359804 2752.040450 2763.567330 2769.845409
314.290000 2732.545813 2736.584475 2757.481775 2753.076202 2764.551213 2770.574956
314.430000 2733.145264 2737.340924 2758.489204 2754.125159 2765.382696 2771.452306
314.570000 2733.674479 2738.123179 2759.783210 2755.157534 2766.438764 2772.179541
314.710000 2734.429172 2739.168620 2760.899324 2756.206248 2767.386463 2773.371965
314.851667 2735.321663 2739.863055 2761.911248 2757.197640 2768.382491 2774.718350
314.993333 2736.305748 2741.002528 2762.810466 2758.203702 2769.338552 2775.744793
315.135000 2737.125959 2742.158580 2763.625037 2759.205083 2770.219417 2776.536324
315.276667 2738.641667 2743.587701 2764.459459 2760.206128 2771.258740 2777.519800
315.418333 2739.444590 2745.185556 2765.145997 2761.238093 2772.226548 2778.560521
315.560000 2740.110965 2746.408220 2766.128539 2762.227223 2773.158522 2779.112087
315.701667 2741.145526 2747.840808 2766.843576 2763.221069 2774.318383 2779.828236
315.843333 2741.912457 2749.234460 2767.627021 2764.236565 2775.321643 2780.730104
315.985000 2742.860122 2750.150277 2768.332378 2765.238696 2776.193433 2781.303592
316.126667 2743.894698 2751.248972 2769.122257 2766.235520 2777.251268 2782.068271
316.268333 2744.886814 2752.585084 2769.650957 2767.249398 2778.262978 2782.899686
316.410000 2745.536351 2754.106382 2770.350920 2768.245776 2779.455148 2783.670339
316.551667 2746.144584 2755.145020 2771.407572 2769.234623 2780.502083 2784.359373
316.693333 2746.682122 2756.304032 2772.367611 2770.211282 2781.466064 2785.099677
316.835000 2747.545299 2757.380431 2773.191253 2771.225050 2782.456422 2785.845271
316.976667 2748.514950 2758.907759 2774.144701 2772.235079 2783.521384 2786.788914
317.118333 2749.426697 2760.194504 2775.142532 2773.254397 2784.530109 2787.437173
317.260000 2750.379072 2761.502277 2776.242325 2774.281483 2785.605854 2788.520131
317.401667 2751.186942 2763.024005 2777.647435 2775.310660 2786.407592 2789.291565
317.543333 2752.267797 2764.161845 2779.164994 2776.349959 2787.583118 2790.018329
317.685000 2752.910941 2765.138277 2780.414991 2777.373780 2788.547374 2790.825535
317.826667 2753.627484 2766.327961 2781.466348 2778.344621 2789.452355 2791.522785
317.968333 2754.822953 2767.461675 2782.715362 2779.331468 2790.409180 2792.477350
318.110000 2756.140267 2768.722506 2783.842643 2780.346814 2791.128053 2793.300941
318.210000 2756.775574 2769.279069 2784.456436 2780.979600 2791.622274 2793.782630
318.310000 2757.649399 2770.084847 2785.137576 2781.603672 2792.157251 2794.251505
318.410000 2758.806230 2771.062753 2785.802891 2782.239279 2792.610351 2794.552746
318.510000 2760.241136 2772.020050 2786.337706 2782.898509 2793.027233 2794.958462
318.645714 2762.135030 2773.131571 2787.152797 2783.868588 2793.610420 2795.483273
318.781429 2763.508627 2774.557166 2788.087635 2784.847499 2794.037210 2795.902186
318.917143 2765.871898 2776.020362 2789.024709 2785.853736 2794.603551 2796.322481
319.052857 2768.345083 2777.829215 2789.545249 2786.862401 2795.074234 2796.721735
319.188571 2770.184224 2779.341919 2790.433864 2787.841455 2795.568237 2797.130602
319.324286 2773.156707 2781.055105 2791.285476 2788.904454 2796.044061 2797.460315
319.460000 2775.213208 2782.718120 2792.226247 2789.914476 2796.530619 2798.014438
319.595714 2777.498477 2784.242170 2792.781307 2790.937539 2797.029034 2798.385776
319.731429 2779.742230 2785.913496 2793.631561 2791.957946 2797.459701 2798.932656
319.867143 2781.932479 2787.628474 2794.361077 2792.965808 2797.900814 2799.329781
320.002857 2783.687070 2789.054249 2795.059366 2793.913435 2798.382240 2799.692072
320.138571 2785.610787 2790.443294 2795.800440 2794.865272 2798.814856 2800.049953
320.274286 2787.381708 2791.851342 2796.549966 2795.769299 2799.291558 2800.439521
320.410000 2789.557275 2793.269013 2797.350085 2796.674582 2799.783063 2800.859515
320.550000 2791.269207 2794.714950 2798.202603 2797.558372 2800.266614 2801.217277
320.690000 2792.882091 2796.018560 2798.982798 2798.447518 2800.787641 2801.630584
320.830000 2794.660403 2797.183475 2799.688565 2799.314841 2801.253110 2802.064682
320.970000 2796.000460 2798.391062 2800.523762 2800.132647 2801.744756 2802.490033
321.110000 2797.535703 2799.302674 2801.286687 2800.878054 2802.285928 2802.899764
321.210000 2798.180667 2799.802475 2801.814560 2801.336908 2802.655426 2803.227555
321.310000 2798.763293 2800.309666 2802.258650 2801.790031 2803.043518 2803.576989
321.410000 2799.312586 2800.739181 2802.675645 2802.216874 2803.394070 2803.905848
321.510000 2800.001901 2801.166689 2803.079418 2802.633617 2803.745970 2804.243813
321.610000 2800.477107 2801.560683 2803.485139 2803.039972 2804.133925 2804.559019
321.710000 2801.093936 2801.962388 2803.869563 2803.441442 2804.472534 2804.945105
321.810000 2801.477996 2802.368447 2804.241853 2803.832590 2804.805216 2805.328353
321.910000 2801.900669 2802.756279 2804.635481 2804.229592 2805.191721 2805.656354
321.990000 2802.223405 2803.090126 2804.966488 2804.553038 2805.487159 2806.017564
322.070000 2802.549768 2803.428246 2805.246410 2804.869776 2805.801726 2806.377337
322.185000 2803.044810 2803.867072 2805.653346 2805.302404 2806.229246 2806.857890
322.300000 2803.489097 2804.355618 2806.053543 2805.743711 2806.651373 2807.324313
322.375000 2803.797171 2804.649835 2806.349014 2806.045795 2806.923066 2807.653899
322.450000 2804.058736 2804.991750 2806.629751 2806.351791 2807.221221 2808.175060
322.550000 2804.383943 2805.431009 2807.002530 2806.752037 2807.625308 2808.728693
322.650000 2804.747123 2805.813093 2807.370887 2807.162075 2808.040961 2809.383314
322.750000 2805.220174 2806.234278 2807.739531 2807.564503 2808.433097 2809.916004
322.850000 2805.596396 2806.742940 2808.099349 2807.972950 2808.853857 2810.481405
322.983333 2806.148641 2807.303841 2808.573099 2808.511247 2809.418566 2811.333938
323.116667 2806.625530 2807.868491 2809.081163 2809.065108 2809.967970 2812.311014
323.250000 2807.069951 2808.552677 2809.569563 2809.629519 2810.511414 2813.412162
323.350000 2807.453815 2809.013428 2810.024618 2810.084763 2810.989867 2813.984101
323.450000 2807.843718 2809.490113 2810.446047 2810.572945 2811.571088 2814.522527
323.550000 2808.290825 2809.935774 2810.919395 2811.058373 2812.158586 2814.996031
323.650000 2808.740862 2810.336336 2811.405949 2811.550623 2812.708831 2815.519709
323.725000 2809.153520 2810.681061 2811.792737 2811.960802 2813.181498 2815.867812
323.800000 2809.489570 2811.035560 2812.263800 2812.406237 2813.769093 2816.317091
323.875000 2809.887749 2811.330304 2812.640881 2812.830866 2814.254362 2816.789827
323.950000 2810.222439 2811.692453 2813.156118 2813.281174 2814.832424 2817.139418
324.050000 2810.787520 2812.146164 2813.740085 2813.828699 2815.405195 2817.721366
324.150000 2811.388398 2812.580179 2814.315793 2814.402386 2816.115527 2818.188600
324.250000 2811.786152 2813.042806 2814.991857 2814.968710 2816.831235 2818.610595
324.350000 2812.156176 2813.449704 2815.557198 2815.503554 2817.376147 2819.227237
324.450000 2812.608306 2813.890410 2816.034852 2816.030262 2818.011941 2819.883106
324.550000 2813.039887 2814.425059 2816.571520 2816.533897 2818.589233 2820.342995
324.650000 2813.406434 2814.849541 2817.084518 2817.010886 2818.966919 2820.888278
324.750000 2813.772659 2815.312933 2817.537521 2817.468843 2819.502873 2821.266737
324.895000 2814.399380 2815.961952 2818.083758 2818.080298 2820.149772 2821.810198
325.040000 2815.065632 2816.601642 2818.711493 2818.681536 2820.669144 2822.350107
325.185000 2815.565785 2817.269451 2819.312231 2819.277162 2821.211902 2822.850573
325.330000 2816.181130 2817.872753 2819.899936 2819.855553 2821.789195 2823.405181
325.475000 2816.693358 2818.497708 2820.459141 2820.441130 2822.376305 2823.888261
325.620000 2817.299976 2819.075665 2821.117134 2821.021740 2822.880556 2824.443435
325.765000 2817.812851 2819.744817 2821.683168 2821.605101 2823.449113 2824.963258
325.910000 2818.652459 2820.373706 2822.266039 2822.192370 2824.059357 2825.460121
326.055000 2819.278228 2820.994296 2822.848180 2822.783426 2824.570195 2825.958824
326.200000 2819.807195 2821.533213 2823.477991 2823.360503 2825.102649 2826.533706
326.345000 2820.444066 2822.084589 2824.044189 2823.941320 2825.697109 2827.099071
326.490000 2821.005173 2822.680633 2824.663259 2824.524074 2826.246985 2827.711763
326.635000 2821.535533 2823.283450 2825.264330 2825.117917 2826.816996 2828.276283
326.780000 2822.170348 2823.900641 2825.864277 2825.717478 2827.439885 2828.807007
326.925000 2822.715577 2824.440103 2826.460768 2826.315555 2828.018266 2829.523939
327.070000 2823.438955 2825.124419 2827.062756 2826.940129 2828.634482 2830.204162
327.215000 2824.084885 2825.712002 2827.749129 2827.571763 2829.279194 2830.812030
327.360000 2824.673901 2826.316064 2828.400414 2828.222299 2829.887458 2831.352368
327.435000 2825.118006 2826.637672 2828.781232 2828.577465 2830.229665 2831.627253
327.510000 2825.544089 2827.052602 2829.197408 2828.972802 2830.555834 2832.220475
327.610000 2826.086449 2827.629060 2829.733167 2829.495889 2831.083554 2832.661752
327.710000 2826.722528 2828.181028 2830.288028 2830.069828 2831.602753 2833.200051
327.810000 2827.248583 2828.926606 2830.835718 2830.649141 2832.103449 2833.855279
327.910000 2827.829521 2829.559065 2831.363090 2831.251206 2832.736801 2834.312786
328.010000 2828.582048 2830.272916 2831.946371 2831.884578 2833.412910 2834.878367
328.110000 2829.214867 2831.003585 2832.569836 2832.540422 2834.060181 2835.563995
328.210000 2829.852304 2831.726636 2833.207968 2833.201076 2834.718192 2836.285543
328.310000 2830.535880 2832.392601 2833.896212 2833.869469 2835.390118 2837.080762
328.410000 2831.293414 2833.040263 2834.496430 2834.501640 2835.982125 2837.752189
328.510000 2832.128003 2833.656417 2835.134986 2835.134436 2836.566660 2838.286057
328.610000 2832.859211 2834.272877 2835.753799 2835.776776 2837.208509 2838.864742
328.710000 2833.470143 2834.942741 2836.383534 2836.415782 2837.906634 2839.358223
328.835000 2834.434621 2835.742848 2837.177454 2837.204505 2838.752300 2840.019739
328.960000 2835.266315 2836.592571 2837.961495 2837.984838 2839.502757 2840.596079
329.085000 2836.083554 2837.376498 2838.685654 2838.786579 2840.351671 2841.234996
329.210000 2836.977218 2838.090633 2839.448960 2839.499868 2841.026453 2841.788943
329.310000 2837.612389 2838.627783 2840.004801 2840.069285 2841.574388 2842.292352
329.410000 2838.089556 2839.274771 2840.648807 2840.630991 2842.062012 2842.781685
329.510000 2838.542347 2839.735283 2841.272853 2841.148465 2842.533108 2843.213018
329.610000 2839.055492 2840.219709 2841.831279 2841.657981 2842.972321 2843.623431
329.710000 2839.524128 2840.671576 2842.446458 2842.142771 2843.393308 2844.030965
329.810000 2839.940161 2841.133755 2842.943588 2842.603202 2843.794564 2844.492442
329.910000 2840.366580 2841.595291 2843.449774 2843.060789 2844.210628 2845.066414
330.010000 2840.802741 2842.087205 2843.940649 2843.521262 2844.616349 2845.620075
330.110000 2841.196449 2842.518277 2844.346785 2843.953792 2845.036883 2846.067661
330.210000 2841.685020 2842.946921 2844.777413 2844.391434 2845.441294 2846.592583
330.295000 2842.027598 2843.382707 2845.136397 2844.767136 2845.808045 2847.137121
330.380000 2842.451502 2843.776072 2845.464937 2845.133419 2846.113639 2847.675556
330.455000 2842.720432 2844.132998 2845.775241 2845.465702 2846.437389 2848.056441
330.530000 2843.029908 2844.473008 2846.107288 2845.793880 2846.761958 2848.350014
330.630000 2843.395840 2844.896267 2846.486312 2846.204591 2847.155114 2848.716305
330.730000 2843.856405 2845.296294 2846.865756 2846.617706 2847.583753 2849.198981
330.830000 2844.258712 2845.783226 2847.227265 2847.025168 2847.965895 2849.600033
330.930000 2844.651118 2846.232993 2847.607071 2847.434735 2848.403546 2850.024413
331.030000 2845.072032 2846.654714 2847.993392 2847.846810 2848.775515 2850.380611
331.130000 2845.514970 2847.125838 2848.363786 2848.262822 2849.202076 2850.790784
331.263333 2846.002277 2847.700845 2848.885760 2848.798889 2849.810379 2851.337624
331.396667 2846.558807 2848.227196 2849.392276 2849.365639 2850.432938 2851.952883
331.530000 2847.196040 2848.848662 2849.898391 2849.919268 2851.064916 2852.587401
331.630000 2847.556112 2849.264197 2850.301418 2850.360801 2851.574287 2853.067895
331.730000 2848.004029 2849.713439 2850.735478 2850.813601 2852.044774 2853.641917
331.860000 2848.553714 2850.283940 2851.278985 2851.411767 2852.768684 2854.359023
331.990000 2849.192665 2850.909462 2851.856444 2852.040693 2853.488379 2855.050823
332.090000 2849.648701 2851.349743 2852.298101 2852.555531 2854.015319 2855.887889
332.190000 2850.304064 2851.814614 2852.771182 2853.083122 2854.540744 2856.634147
332.323333 2851.274185 2852.464963 2853.490557 2853.849505 2855.430448 2857.434163
332.456667 2851.928675 2853.099201 2854.237849 2854.640353 2856.278361 2858.819889
332.590000 2852.554242 2853.742605 2855.082088 2855.439047 2857.139169 2860.033746
332.690000 2853.096627 2854.230176 2855.744444 2856.083240 2857.854807 2861.114706
332.790000 2853.588083 2854.744211 2856.450617 2856.756745 2858.656770 2862.037507
332.932333 2854.324073 2855.548601 2857.500964 2857.857572 2860.033586 2863.740961
333.074667 2855.193560 2856.496067 2858.752512 2859.020751 2861.351063 2865.294144
333.217000 2855.929055 2857.548590 2859.943809 2860.200250 2862.679018 2866.430594
333.359333 2856.693353 2858.648392 2861.111752 2861.373131 2863.988493 2867.837582
