depth(m) lower_95(kyr) lower_68(kyr) median(kyr) mean(kyr) upper_68(kyr) upper_95(kyr)
68.140000 1480.719982 1483.500151 1487.496357 1493.982136 1508.528626 1525.112508
68.225000 1481.350283 1484.294031 1488.380659 1494.776405 1509.950678 1525.685829
68.310000 1482.047659 1485.217008 1489.039892 1495.588303 1510.765454 1526.377056
68.450000 1483.210239 1486.743391 1490.159688 1496.898365 1512.758209 1527.237011
68.525000 1483.762732 1487.535427 1490.734849 1497.598902 1514.136856 1527.823194
68.600000 1484.383269 1488.268517 1491.422188 1498.328635 1514.992450 1528.313314
68.685000 1485.042444 1488.971328 1491.990060 1499.108848 1516.239760 1528.853257
68.770000 1486.142401 1489.741406 1492.691342 1499.914957 1517.416374 1529.444439
68.904286 1487.310131 1490.852489 1493.572276 1501.282049 1519.871793 1530.278758
69.038571 1488.377806 1491.904195 1494.523578 1502.688497 1522.760916 1531.046625
69.172857 1489.485284 1492.932214 1495.379441 1504.042520 1525.130728 1531.809401
69.307143 1490.472096 1494.001818 1496.268486 1505.442625 1526.915774 1532.765676
69.441429 1491.593239 1494.936099 1497.132011 1506.807390 1528.628621 1533.607268
69.575714 1492.958313 1495.898120 1497.928201 1508.210364 1530.667099 1534.285490
69.710000 1494.095239 1496.795821 1498.794251 1509.586519 1532.189996 1535.156743
69.810000 1495.238694 1497.456485 1499.419039 1510.417375 1533.203316 1535.962680
69.950000 1496.207767 1498.438571 1500.277014 1511.597889 1534.843682 1536.828841
70.056667 1497.071875 1499.121862 1500.973652 1512.422602 1535.905719 1537.846505
70.163333 1498.075210 1499.866248 1501.684852 1513.217004 1536.843773 1538.733264
70.270000 1498.807695 1500.640750 1502.440781 1513.996452 1537.764332 1539.544181
70.370000 1499.614771 1501.285932 1503.086933 1514.731568 1538.597372 1540.445090
70.492500 1500.471618 1502.074118 1503.882300 1515.625363 1539.555627 1541.301394
70.615000 1501.253608 1502.882360 1504.750980 1516.500879 1540.511799 1542.161884
70.737500 1502.108327 1503.797406 1505.529476 1517.391964 1541.429430 1543.032865
70.860000 1503.013496 1504.553858 1506.447567 1518.291072 1542.296892 1543.839846
70.985000 1503.976769 1505.492039 1507.466439 1519.310279 1543.296571 1544.838250
71.110000 1504.849215 1506.331992 1508.508472 1520.318800 1544.231204 1546.255387
71.216667 1505.471220 1507.153049 1509.550014 1521.319437 1545.079468 1547.539098
71.323333 1506.245531 1508.002517 1511.022817 1522.384974 1545.934776 1548.585755
71.430000 1506.978873 1508.875130 1512.683373 1523.449250 1546.660242 1549.786179
71.573333 1508.064743 1509.834909 1515.158396 1525.013808 1547.676424 1551.666620
71.716667 1509.017884 1510.872911 1518.192451 1526.590035 1548.767672 1553.773546
71.860000 1509.863848 1511.937601 1521.314337 1528.164249 1549.726338 1555.201962
71.985000 1510.877527 1513.131888 1522.851793 1529.475476 1550.689394 1556.680062
72.110000 1512.045715 1514.653932 1524.662178 1531.001901 1551.713146 1558.275783
72.245000 1513.494177 1516.718849 1526.474544 1532.760069 1552.813937 1560.649951
72.380000 1514.878094 1518.892209 1528.178794 1534.605845 1553.922017 1562.707884
72.515000 1516.269833 1521.046745 1529.679555 1536.406291 1555.177576 1564.480180
72.650000 1518.766004 1523.560925 1531.071115 1538.276750 1556.106300 1566.123023
72.785000 1521.033366 1525.862938 1532.440515 1540.051932 1556.985969 1567.167714
72.920000 1523.698900 1528.057924 1533.820389 1541.854167 1557.997823 1568.549692
73.046667 1525.507574 1529.841927 1537.012654 1543.385424 1558.790632 1569.460467
73.173333 1527.724874 1531.302055 1539.637040 1544.929173 1559.919988 1570.210388
73.300000 1529.325843 1533.151949 1542.021804 1546.394330 1560.793991 1571.188701
73.443000 1531.062161 1534.876104 1544.287848 1547.998289 1562.057365 1571.966349
73.586000 1533.068398 1536.781153 1546.561243 1549.693264 1563.106039 1572.702672
73.729000 1534.507374 1538.837456 1548.606361 1551.359321 1564.131701 1573.469162
73.872000 1535.946601 1540.849351 1550.849637 1552.978209 1565.679295 1574.106021
74.015000 1538.034910 1543.310970 1552.898184 1554.674396 1566.387611 1574.728783
74.158000 1539.919196 1545.663995 1554.784849 1556.250985 1566.971236 1575.395296
74.301000 1542.168135 1547.796117 1556.719475 1557.892669 1568.149991 1575.829216
74.444000 1543.936630 1549.957018 1558.556082 1559.561524 1569.063157 1576.657416
74.587000 1546.236572 1552.349976 1560.398540 1561.205759 1570.004151 1577.076625
74.730000 1549.171353 1554.360039 1562.095911 1562.827212 1571.159751 1577.641819
74.873000 1551.574415 1556.530529 1563.775768 1564.396803 1572.568116 1578.506799
75.016000 1553.993753 1558.863220 1565.778105 1566.049879 1573.569671 1578.970977
75.159000 1556.273295 1560.913990 1567.462812 1567.594345 1574.610370 1579.729443
75.302000 1558.484982 1563.138863 1569.120196 1569.192562 1575.605750 1580.477194
75.445000 1560.184382 1565.533278 1570.850964 1570.841003 1576.890432 1581.304059
75.588000 1562.335133 1567.818452 1572.608145 1572.499019 1577.787525 1581.919064
75.731000 1565.095065 1570.403559 1574.330436 1574.160981 1578.668034 1583.069895
75.874000 1567.734276 1572.458643 1575.902934 1575.790297 1579.541959 1584.563640
76.017000 1569.711797 1574.830671 1577.414064 1577.344127 1580.353057 1586.174580
76.160000 1572.721426 1576.932964 1579.003378 1578.896790 1581.244301 1587.697682
76.235000 1573.889955 1577.793158 1579.792277 1579.708494 1581.883185 1588.229085
76.310000 1575.597729 1578.863061 1580.603854 1580.515735 1582.447352 1588.904638
76.420000 1577.503571 1580.097204 1581.671596 1581.688659 1583.470724 1590.062004
76.530000 1579.228280 1581.192637 1582.695244 1582.835730 1584.594664 1591.234527
76.620000 1580.280324 1582.079155 1583.562301 1583.822916 1585.868504 1592.155689
76.710000 1581.497585 1583.060948 1584.522072 1584.845820 1587.031891 1592.843952
76.847500 1582.813853 1584.427895 1586.298189 1586.685836 1589.464088 1593.715366
76.985000 1583.994532 1585.804973 1588.534524 1588.567754 1591.881153 1595.213423
77.122500 1585.026789 1587.536954 1590.912290 1590.534171 1593.836765 1596.339741
77.260000 1586.317956 1589.794130 1593.073584 1592.483316 1595.496539 1597.447540
77.380000 1587.199435 1591.976662 1594.803281 1594.161946 1596.966451 1599.036613
77.500000 1587.962228 1594.082029 1596.510530 1595.830092 1598.511615 1600.053679
77.585000 1588.695371 1595.104365 1597.425582 1596.799828 1599.448791 1600.911901
77.670000 1589.401603 1596.036305 1598.251423 1597.698867 1600.315891 1601.679480
77.750000 1590.162348 1596.775678 1599.094772 1598.487611 1601.064677 1602.276675
77.830000 1590.875291 1597.628888 1599.903690 1599.239509 1601.703712 1603.030244
77.948000 1592.661892 1598.629296 1600.813824 1600.205111 1602.495221 1603.877260
78.066000 1594.268259 1599.602528 1601.779950 1601.162798 1603.342257 1604.591841
78.184000 1595.758161 1600.546692 1602.673790 1602.121712 1604.198465 1605.353730
78.302000 1597.130531 1601.523879 1603.631206 1603.090670 1605.019632 1606.236202
78.420000 1598.649607 1602.698212 1604.621087 1604.065215 1605.922995 1607.110979
78.510000 1599.696719 1603.502824 1605.309643 1604.831707 1606.582945 1607.797847
78.600000 1601.384692 1604.333905 1606.101965 1605.648372 1607.317082 1608.545925
78.710000 1602.546091 1605.474386 1607.060126 1606.711125 1608.384168 1609.782246
78.813333 1603.891325 1606.403346 1607.869434 1607.700231 1609.416457 1611.054518
78.916667 1605.255345 1607.358809 1608.817631 1608.686614 1610.455697 1612.570772
79.020000 1606.301361 1608.302586 1609.693900 1609.679405 1611.524451 1613.878640
79.162500 1607.444847 1609.436808 1610.978714 1610.994234 1612.913055 1615.342252
79.305000 1608.475351 1610.588308 1612.320239 1612.338924 1614.550005 1616.726584
79.447500 1609.765998 1611.707915 1613.647296 1613.669467 1615.977849 1618.294521
79.590000 1610.837967 1613.016057 1615.022178 1614.966372 1617.202241 1619.979280
79.732500 1612.275389 1614.246999 1616.456121 1616.318198 1618.512256 1621.175940
79.875000 1613.544095 1615.580816 1617.735785 1617.640289 1619.805855 1622.432430
80.017500 1614.809045 1616.889532 1618.942226 1618.907766 1620.975273 1623.539179
80.160000 1616.081944 1618.248206 1620.218577 1620.188200 1622.218883 1624.807720
80.296667 1617.131305 1619.474881 1621.356226 1621.367358 1623.450286 1626.048333
80.433333 1618.397615 1620.499323 1622.499808 1622.528209 1624.635392 1627.196995
80.570000 1619.387979 1621.606953 1623.643394 1623.704031 1625.893400 1628.313111
80.690000 1620.559417 1622.582252 1624.744315 1624.770970 1627.060610 1629.521049
80.810000 1621.588865 1623.558152 1625.874927 1625.858130 1628.236689 1630.762674
80.900000 1622.434816 1624.308547 1626.751320 1626.714593 1629.115850 1631.631360
80.990000 1623.323146 1625.135989 1627.690371 1627.603656 1629.982043 1632.411418
81.000000 1623.412952 1625.230444 1627.775684 1627.703229 1630.133736 1632.508089
81.095000 1624.316433 1626.294176 1628.664008 1628.790412 1631.350521 1634.181730
81.190000 1624.975703 1627.228380 1629.629200 1629.875680 1632.573801 1635.721222
81.290000 1625.622736 1628.199891 1630.541914 1630.941255 1634.023791 1636.700530
81.390000 1626.310947 1629.160054 1631.555978 1631.969733 1635.265900 1637.868548
81.475000 1627.357471 1629.958628 1632.532899 1632.851825 1636.197236 1638.683000
81.560000 1628.352068 1630.679372 1633.547821 1633.741905 1637.393939 1639.426671
81.610000 1628.850654 1631.169604 1634.101758 1634.273442 1637.864649 1639.687152
81.730000 1630.015923 1632.507250 1635.663052 1635.636035 1639.071788 1640.562292
81.830000 1630.852439 1633.612311 1636.932504 1636.761033 1639.984393 1641.313985
81.850000 1631.081250 1633.863015 1637.185732 1636.984407 1640.161526 1641.533576
81.930000 1631.778904 1634.841286 1637.988259 1637.817970 1640.888743 1642.244486
82.010000 1633.234179 1635.900343 1638.908305 1638.700514 1641.523103 1642.802902
82.135000 1634.899246 1637.842669 1640.292226 1640.158893 1642.551390 1644.050212
82.260000 1637.043895 1639.592310 1641.709113 1641.653194 1643.665753 1645.553759
82.390000 1638.872447 1641.299026 1643.168922 1643.137125 1645.117228 1647.203054
82.520000 1640.712004 1642.671665 1644.546165 1644.597187 1646.539990 1649.015617
82.615000 1641.685959 1643.690045 1645.523734 1645.644593 1647.705328 1650.560959
82.710000 1642.535825 1644.633946 1646.433642 1646.656127 1648.784620 1652.125006
82.750000 1642.827383 1645.009810 1646.843061 1647.067882 1649.179713 1652.436492
82.875000 1644.182787 1646.211608 1647.975632 1648.247370 1650.472172 1653.526660
83.000000 1645.219108 1647.253917 1649.115178 1649.389468 1651.737014 1654.967844
83.125000 1646.238908 1648.286261 1650.239552 1650.534014 1652.939238 1656.182634
83.250000 1647.222619 1649.276994 1651.271140 1651.599909 1653.992248 1657.284253
83.395000 1648.474465 1650.429958 1652.519722 1652.819830 1655.255599 1658.565595
83.540000 1649.733436 1651.623881 1653.744387 1654.049855 1656.480661 1659.849145
83.640000 1650.704542 1652.335552 1654.635315 1654.925179 1657.440545 1660.728185
83.740000 1651.449178 1653.264889 1655.528347 1655.797986 1658.289418 1661.634929
83.840000 1652.209530 1654.218988 1656.408597 1656.684853 1659.223111 1662.618256
83.980000 1653.463801 1655.396577 1657.691127 1657.971441 1660.784934 1663.728596
84.120000 1654.655986 1656.479001 1658.892684 1659.228832 1662.135011 1665.272444
84.260000 1655.760911 1657.705840 1660.114499 1660.531256 1663.657648 1667.134869
84.400000 1656.896412 1659.008469 1661.366388 1661.904384 1665.033493 1669.157611
84.540000 1658.220755 1660.177809 1662.697860 1663.279895 1666.454026 1671.451905
84.645000 1659.294598 1661.210269 1663.757734 1664.481895 1667.692568 1673.358496
84.750000 1660.168067 1662.280992 1664.860257 1665.712867 1669.223616 1675.079233
84.850000 1661.004759 1663.252369 1666.123996 1666.956372 1670.589641 1677.048525
84.950000 1662.137920 1664.233887 1667.420939 1668.282230 1672.364147 1679.821858
85.050000 1662.961310 1665.103474 1668.627015 1669.556711 1674.279933 1680.990334
85.150000 1663.684943 1665.977513 1669.846764 1670.879984 1676.103062 1683.042007
85.250000 1664.540915 1666.848029 1670.951736 1672.124193 1677.774469 1684.666379
85.350000 1665.479622 1667.806487 1672.141036 1673.448222 1679.527437 1686.286763
85.480000 1666.455043 1669.189109 1674.094579 1675.446458 1682.825790 1689.098323
85.610000 1667.493006 1670.444878 1676.016092 1677.386635 1685.417916 1691.695710
85.640000 1667.682519 1670.827404 1676.412551 1677.779438 1685.982180 1691.972092
85.765000 1668.885125 1672.465976 1678.984055 1679.866117 1687.674833 1693.104359
85.890000 1669.987810 1674.283271 1681.769184 1681.981389 1689.556098 1694.182717
86.015000 1670.938238 1676.199651 1684.431092 1684.058594 1691.183991 1695.316952
86.140000 1671.737182 1678.417656 1686.909940 1686.066581 1693.025669 1696.677049
86.250000 1673.200328 1680.268651 1688.757724 1687.617392 1694.154874 1697.908422
86.395000 1675.228673 1683.115231 1690.889223 1689.670648 1695.559259 1699.959925
86.540000 1677.453512 1685.344544 1692.830364 1691.683687 1697.014955 1702.062112
86.643333 1678.613885 1686.912169 1693.974408 1692.857547 1697.832748 1703.292139
86.746667 1680.476912 1688.228440 1694.830732 1693.951895 1698.660159 1704.321443
86.850000 1681.719171 1689.503121 1695.753829 1694.974820 1699.382532 1705.511014
86.956667 1682.638931 1690.361830 1696.634834 1695.956981 1700.251297 1706.609122
87.063333 1685.183530 1691.470139 1697.327482 1696.908440 1701.028755 1707.251934
87.170000 1687.293250 1692.652806 1698.197224 1697.870524 1701.878847 1708.913371
87.315000 1689.401980 1694.057717 1699.256353 1699.124763 1702.962106 1710.680036
87.460000 1691.650816 1695.618216 1700.256849 1700.402400 1703.939741 1711.968519
87.555000 1692.732844 1696.354920 1700.878988 1701.179368 1704.625754 1713.018544
87.650000 1693.566625 1697.193951 1701.506749 1701.949243 1705.310121 1714.623924
87.750000 1694.562813 1698.031722 1702.311332 1702.782677 1706.073565 1716.888759
87.850000 1695.440472 1698.806399 1703.032377 1703.593356 1706.684323 1717.952850
87.950000 1696.349037 1699.624379 1703.827739 1704.392067 1707.543426 1720.386815
88.050000 1697.074073 1700.219133 1704.597973 1705.201556 1708.409801 1722.167486
88.195000 1697.797055 1701.230692 1705.613148 1706.370498 1709.648924 1725.043104
88.340000 1698.872907 1702.235321 1706.724333 1707.572381 1711.171956 1728.569477
88.440000 1699.745862 1702.920878 1707.509240 1708.438551 1712.363022 1730.419394
88.540000 1700.359038 1703.591658 1708.250317 1709.315844 1713.292399 1732.158574
88.640000 1700.957526 1704.291996 1709.024519 1710.190780 1714.769686 1733.357853
88.743333 1701.811654 1705.058053 1709.865114 1711.140682 1716.341370 1735.410300
88.846667 1702.536631 1705.860594 1710.678619 1712.089610 1717.798824 1737.613290
88.950000 1703.275492 1706.710520 1711.409161 1713.009881 1719.130523 1738.959812
89.045000 1704.012490 1707.307825 1712.140152 1713.877309 1720.403345 1740.278451
89.140000 1705.058562 1707.857656 1712.952567 1714.768046 1721.609997 1742.154074
89.250000 1706.024036 1708.813607 1713.867418 1715.847362 1722.979566 1742.904897
89.375000 1707.177203 1709.859288 1715.012425 1717.094148 1724.234580 1744.036361
89.500000 1708.148627 1710.869412 1716.086022 1718.339559 1725.653643 1745.877669
89.600000 1708.948860 1711.778653 1717.247328 1719.408500 1726.708452 1746.824391
89.700000 1709.877747 1712.642912 1718.459024 1720.527912 1727.654913 1748.229808
89.800000 1710.719904 1713.728091 1719.524158 1721.662221 1728.497744 1749.043335
89.930000 1712.218484 1715.068846 1721.085954 1723.220400 1729.815383 1749.981226
90.060000 1713.762208 1716.772084 1722.743246 1724.755864 1731.239493 1750.809606
90.190000 1715.002237 1718.733390 1724.139538 1726.352119 1732.570142 1752.043382
90.320000 1716.111801 1720.337607 1725.979885 1727.933468 1733.967663 1753.231206
90.450000 1717.557486 1721.978188 1727.728998 1729.480627 1735.486534 1754.328315
90.535000 1718.533723 1723.108754 1728.946734 1730.453066 1736.252901 1755.101766
90.620000 1719.819445 1724.203684 1729.941870 1731.445637 1737.076094 1756.238411
90.750000 1721.055221 1725.750191 1731.555633 1733.039556 1738.431624 1759.070046
90.875000 1723.006954 1727.071627 1732.736771 1734.599722 1739.551850 1762.206869
91.000000 1724.752194 1728.526365 1734.315248 1736.201824 1740.544645 1765.894648
91.116667 1726.042323 1729.903536 1735.602314 1737.731242 1741.686351 1771.861801
91.233333 1727.147614 1731.124995 1736.848336 1739.331313 1742.788858 1777.418636
91.350000 1728.483279 1732.638377 1738.214277 1740.901151 1743.770502 1781.933525
91.450000 1729.466246 1733.933753 1739.450759 1742.078890 1744.498300 1783.463090
91.550000 1730.719790 1735.520756 1740.439640 1743.269970 1745.297593 1785.329262
91.650000 1732.074635 1736.964014 1741.450331 1744.435757 1746.199781 1786.925786
91.783333 1733.909588 1738.741188 1742.909556 1746.052619 1747.181920 1788.393691
91.916667 1736.416684 1740.532528 1744.330737 1747.715131 1748.269883 1789.652415
92.050000 1738.589479 1742.307033 1745.738879 1749.337519 1749.428473 1791.080721
92.150000 1740.374230 1743.625700 1746.698962 1750.494426 1750.256082 1792.318504
92.250000 1741.894329 1744.829580 1747.687355 1751.596139 1750.965705 1793.206552
92.355000 1743.031442 1745.991678 1748.762009 1752.710459 1751.750428 1794.726637
92.460000 1744.386960 1747.263252 1749.864328 1753.805247 1752.654048 1796.183814
92.563333 1745.347371 1748.371481 1750.900861 1754.853549 1753.546691 1797.319937
92.666667 1746.464962 1749.406991 1751.940535 1755.901830 1754.551087 1798.755319
92.770000 1747.529463 1750.423810 1753.013852 1756.957378 1755.613940 1799.909651
92.890000 1748.998450 1751.694927 1754.181319 1758.172766 1756.852525 1801.521743
93.010000 1750.293414 1752.873340 1755.252533 1759.372422 1758.128666 1802.933195
93.123333 1751.127506 1753.941380 1756.357285 1760.488419 1759.316027 1804.009821
93.236667 1752.559610 1754.998169 1757.425037 1761.664048 1760.991961 1805.257364
93.350000 1753.559939 1756.070849 1758.449613 1762.823586 1762.275143 1806.166150
93.463333 1754.563052 1757.050500 1759.466543 1763.980804 1763.788201 1807.393359
93.576667 1755.605667 1758.078360 1760.463769 1765.135447 1765.273203 1808.455448
93.690000 1756.695179 1759.097211 1761.518778 1766.283624 1766.567689 1809.718857
93.793333 1757.646965 1759.995807 1762.523223 1767.331884 1767.971045 1810.660175
93.896667 1758.397399 1761.033703 1763.541756 1768.387967 1769.598778 1812.088586
94.000000 1759.394047 1761.907702 1764.504102 1769.398499 1771.218416 1812.922451
94.125000 1760.282458 1762.977034 1765.751756 1770.606012 1772.459937 1814.330168
94.250000 1761.212162 1764.098234 1766.826518 1771.842825 1773.512572 1815.682496
94.356667 1762.079868 1764.983472 1767.954486 1772.926069 1774.914441 1816.844451
94.463333 1763.198136 1765.999108 1768.978958 1774.021156 1776.149954 1817.890863
94.570000 1764.205551 1767.015427 1770.059006 1775.144936 1777.231344 1818.925452
94.705000 1765.424139 1768.240555 1771.420681 1776.555408 1778.615900 1820.464201
94.840000 1766.596697 1769.553520 1772.696101 1778.060348 1781.242460 1821.651760
94.970000 1767.804894 1770.818620 1774.023739 1779.562691 1783.293532 1823.157080
95.100000 1768.971920 1772.189066 1775.444785 1781.157193 1786.598195 1824.372550
95.220000 1770.402314 1773.523118 1776.650917 1782.756946 1791.619330 1825.345324
95.340000 1771.885437 1774.825620 1778.280650 1784.450308 1795.140722 1826.637601
95.460000 1773.413719 1776.054038 1779.777672 1786.168602 1799.183424 1827.644361
95.605000 1774.759441 1777.732464 1781.803797 1788.581231 1803.599318 1829.303510
95.750000 1776.409566 1779.267444 1783.958315 1790.981121 1807.421155 1830.831364
95.853333 1777.275207 1780.352041 1785.605137 1792.639681 1809.992037 1832.221070
95.956667 1778.702465 1781.544282 1787.180565 1794.340899 1811.614626 1833.576585
96.060000 1779.984402 1782.869836 1788.893601 1796.189553 1813.455151 1834.985366
