depth(m) lower_95(kyr) lower_68(kyr) median(kyr) mean(kyr) upper_68(kyr) upper_95(kyr)
213.780000 1762.521296 1765.582321 1768.536484 1768.395178 1771.243169 1773.828693
213.925455 1763.010870 1766.019664 1768.992287 1768.873031 1771.655310 1774.234843
214.070909 1763.464117 1766.586988 1769.500490 1769.358839 1772.039514 1774.889418
214.216364 1764.146823 1767.122612 1769.957605 1769.815409 1772.479304 1775.121559
214.361818 1764.684303 1767.602805 1770.431309 1770.276545 1772.917522 1775.505508
214.507273 1765.344193 1768.159010 1770.837998 1770.728375 1773.289620 1775.838869
214.652727 1765.865235 1768.688359 1771.295325 1771.168563 1773.683267 1776.125088
214.798182 1766.351596 1769.224784 1771.721008 1771.605116 1774.071107 1776.398540
214.943636 1766.651780 1769.602518 1772.139690 1772.028368 1774.421890 1776.783554
215.089091 1767.425535 1770.067450 1772.629592 1772.472871 1774.739896 1777.063277
215.234545 1768.051194 1770.559820 1773.068803 1772.905218 1775.167454 1777.363653
215.380000 1768.620808 1771.092307 1773.488738 1773.333783 1775.485412 1777.689909
215.525455 1769.208749 1771.638996 1773.860654 1773.779589 1775.908679 1778.063262
215.670909 1769.881790 1772.170132 1774.259965 1774.212703 1776.192313 1778.482156
215.816364 1770.474415 1772.650063 1774.668715 1774.643910 1776.612683 1778.752707
215.961818 1771.015319 1773.137447 1775.079123 1775.075261 1777.016071 1779.109374
216.107273 1771.426101 1773.579314 1775.502176 1775.485180 1777.364486 1779.406181
216.252727 1771.915616 1774.017583 1775.887276 1775.904488 1777.804337 1779.754830
216.398182 1772.506767 1774.507241 1776.299193 1776.334654 1778.251955 1780.075604
216.543636 1773.120734 1775.001856 1776.704161 1776.755780 1778.640590 1780.424500
216.689091 1773.757262 1775.456597 1777.145661 1777.181286 1779.027348 1780.723736
216.834545 1774.140086 1775.918638 1777.589614 1777.608205 1779.424561 1781.083092
216.980000 1774.628294 1776.336381 1778.001302 1778.022705 1779.831371 1781.419543
217.125455 1774.995301 1776.782665 1778.439306 1778.458177 1780.155742 1781.738435
217.270909 1775.538965 1777.223293 1778.910348 1778.885227 1780.564682 1782.187434
217.416364 1776.018527 1777.692785 1779.327346 1779.316881 1781.067876 1782.493678
217.561818 1776.499522 1778.156620 1779.726824 1779.745024 1781.451907 1783.042242
217.707273 1776.984253 1778.617105 1780.177178 1780.178952 1781.849636 1783.447020
217.852727 1777.419757 1779.012564 1780.584431 1780.615512 1782.285459 1783.774281
217.998182 1777.890346 1779.431673 1780.965287 1781.043138 1782.697250 1784.183692
218.143636 1778.268726 1779.832640 1781.413422 1781.478057 1783.148514 1784.626677
218.289091 1778.691436 1780.256989 1781.859185 1781.916710 1783.560716 1785.015880
218.434545 1779.187889 1780.639211 1782.338853 1782.352850 1784.021822 1785.509298
218.580000 1779.724109 1781.156637 1782.777632 1782.793634 1784.386179 1785.996059
218.680000 1780.100021 1781.512926 1783.077977 1783.105183 1784.684874 1786.259397
218.780000 1780.377629 1781.843965 1783.404112 1783.420681 1785.010535 1786.566668
218.880000 1780.710464 1782.163578 1783.762969 1783.722642 1785.291953 1786.843722
218.980000 1781.078578 1782.516516 1784.067620 1784.040127 1785.588109 1787.059172
219.080000 1781.366626 1782.851912 1784.377180 1784.362887 1785.872934 1787.377415
219.180000 1781.634966 1783.173601 1784.674401 1784.688890 1786.164025 1787.743205
219.308571 1782.011588 1783.533744 1785.098092 1785.070587 1786.498155 1788.088776
219.437143 1782.408156 1783.954107 1785.491174 1785.463071 1786.868281 1788.396059
219.565714 1782.919009 1784.371062 1785.868460 1785.845064 1787.268019 1788.721162
219.694286 1783.282971 1784.813415 1786.302060 1786.241478 1787.642021 1789.041573
219.822857 1783.662129 1785.222338 1786.698001 1786.626615 1788.002815 1789.411762
219.951429 1784.130164 1785.626503 1787.097967 1787.024558 1788.386372 1789.742944
220.080000 1784.599346 1786.024627 1787.480080 1787.405639 1788.764167 1790.144742
220.217500 1785.109707 1786.448291 1787.906323 1787.833965 1789.194670 1790.500433
220.355000 1785.632654 1786.861581 1788.357159 1788.284861 1789.651914 1790.904091
220.492500 1786.044301 1787.340732 1788.788569 1788.719163 1790.061759 1791.320056
220.630000 1786.457035 1787.791882 1789.183440 1789.170296 1790.532920 1791.696452
220.680000 1786.616109 1787.993990 1789.366751 1789.351486 1790.687977 1791.945803
220.825000 1787.145676 1788.513644 1789.862464 1789.853376 1791.202571 1792.472521
220.970000 1787.679368 1788.994352 1790.369240 1790.387193 1791.767589 1793.100605
221.115000 1788.154758 1789.550608 1790.910104 1790.925585 1792.323892 1793.782725
221.260000 1788.792175 1790.076684 1791.400957 1791.467398 1792.883124 1794.481801
221.405000 1789.359831 1790.551781 1791.952840 1792.030826 1793.526361 1795.101615
221.550000 1789.979876 1791.089104 1792.478253 1792.584999 1794.037269 1795.822932
221.695000 1790.528133 1791.675929 1793.026931 1793.160490 1794.667690 1796.491318
221.840000 1791.021864 1792.232174 1793.589336 1793.714053 1795.232958 1796.968617
221.985000 1791.522709 1792.748506 1794.149233 1794.260898 1795.798678 1797.671925
222.130000 1792.045223 1793.294082 1794.764440 1794.855346 1796.438989 1798.383861
222.263333 1792.439561 1793.871927 1795.282636 1795.412762 1797.010533 1798.921111
222.396667 1792.876913 1794.426980 1795.860760 1795.968043 1797.565576 1799.683347
222.530000 1793.481639 1794.888588 1796.416058 1796.528960 1798.288957 1800.222705
222.663333 1794.028390 1795.355385 1796.933669 1797.112147 1798.909677 1801.022879
222.796667 1794.392195 1795.930722 1797.493308 1797.678389 1799.507497 1801.762042
222.930000 1794.941066 1796.366757 1798.017084 1798.213311 1800.009315 1802.285053
223.063333 1795.325809 1796.917275 1798.651469 1798.779401 1800.631453 1802.767615
223.196667 1795.917186 1797.441376 1799.231861 1799.362081 1801.356020 1803.385750
223.330000 1796.429818 1797.949534 1799.855472 1799.919838 1801.915994 1804.115100
223.463333 1796.765230 1798.419823 1800.354195 1800.450066 1802.496948 1804.820123
223.596667 1797.172861 1798.963326 1800.850075 1800.994608 1803.116787 1805.380428
223.730000 1797.624280 1799.347118 1801.319437 1801.507705 1803.688207 1805.948736
223.863333 1798.165585 1799.834759 1801.890717 1802.027540 1804.296269 1806.525272
223.996667 1798.625253 1800.268927 1802.344112 1802.523426 1804.880702 1807.002459
224.130000 1799.240591 1800.806296 1802.837254 1803.043200 1805.422482 1807.633601
224.263333 1799.656743 1801.250393 1803.417468 1803.558600 1805.940738 1808.173093
224.396667 1800.115566 1801.842117 1803.895552 1804.079053 1806.463969 1808.954509
224.530000 1800.527871 1802.243732 1804.393122 1804.588386 1806.952464 1809.510584
