depth(m) lower_95(kyr) lower_68(kyr) median(kyr) mean(kyr) upper_68(kyr) upper_95(kyr)
14.315000 1495.391628 1499.143681 1501.586983 1501.261096 1503.609110 1505.102154
14.340000 1497.375959 1500.941603 1503.277873 1502.892321 1504.924045 1506.350251
14.365000 1499.464770 1502.570231 1504.697345 1504.436381 1506.312968 1507.757396
14.390000 1501.674596 1504.152245 1506.204025 1506.003708 1507.826126 1509.324668
14.415000 1503.982649 1506.080463 1507.927776 1507.945312 1509.751147 1512.312059
14.440000 1505.798632 1507.780662 1509.522267 1509.719610 1511.710134 1514.763316
14.465000 1508.228111 1510.070149 1512.022829 1512.257895 1514.551765 1517.453224
14.490000 1510.351236 1512.264214 1514.824545 1514.879204 1517.400112 1520.274075
14.540000 1513.899355 1517.293338 1519.871591 1519.780588 1522.496944 1524.785362
14.565000 1515.862773 1519.449589 1522.400611 1522.211365 1525.089348 1527.422049
14.615000 1521.554407 1524.201635 1527.355809 1527.123035 1529.983765 1531.728138
14.640000 1526.868400 1529.462487 1531.432958 1531.154282 1532.793414 1533.787895
14.665000 1530.663261 1532.633001 1533.647984 1533.545762 1534.539070 1535.514972
14.690000 1533.580535 1534.422090 1535.289333 1535.286888 1536.138562 1537.050726
14.715000 1535.010532 1535.723252 1536.578188 1536.561349 1537.377780 1538.146822
14.740000 1536.181264 1536.934138 1537.754019 1537.735709 1538.511007 1539.329539
14.765000 1537.263003 1538.125537 1538.889373 1538.862900 1539.627376 1540.427665
14.790000 1538.347862 1539.283092 1540.002993 1540.014472 1540.765007 1541.466623
14.815000 1539.562496 1540.435545 1541.154244 1541.169857 1541.946262 1542.636970
14.840000 1540.695111 1541.553889 1542.284156 1542.284377 1543.054487 1543.820693
14.865000 1541.929343 1542.691308 1543.452416 1543.481357 1544.318020 1545.202064
14.890000 1542.887712 1543.723993 1544.563794 1544.616721 1545.445693 1546.533624
14.915000 1544.049988 1544.881640 1545.713334 1545.805785 1546.675776 1548.012445
14.940000 1545.047046 1545.958206 1546.900805 1547.021414 1548.066280 1549.535974
14.965000 1546.306573 1547.126418 1548.174917 1548.319946 1549.475300 1551.163094
14.990000 1547.384839 1548.341732 1549.420758 1549.633268 1550.841467 1553.015683
15.015000 1548.429781 1549.459321 1550.716544 1550.948829 1552.354299 1554.596017
15.040000 1549.566435 1550.611551 1552.057908 1552.286904 1553.950308 1556.485155
15.065000 1550.672365 1551.833060 1553.384633 1553.706314 1555.496200 1558.714914
15.090000 1551.853508 1553.097542 1554.854786 1555.208247 1557.090395 1560.780299
15.115000 1553.000313 1554.445083 1556.527050 1557.226610 1560.000456 1565.265517
15.140000 1554.350714 1555.868967 1558.142838 1559.199166 1563.162700 1568.157072
15.165000 1555.702380 1557.522000 1560.217454 1561.284065 1565.992305 1570.403169
15.215000 1560.585024 1563.430271 1566.412722 1566.544277 1569.867724 1573.292741
15.240000 1567.932674 1569.783886 1571.623511 1571.771820 1573.875545 1576.680958
15.265000 1570.820411 1572.406661 1574.383015 1574.609614 1576.952167 1578.794067
15.290000 1572.522878 1574.773934 1577.206827 1576.971784 1579.014642 1580.609325
15.315000 1574.389149 1577.097043 1579.314795 1579.088720 1580.937004 1582.434004
15.340000 1576.032738 1578.967589 1580.956686 1580.747830 1582.426233 1584.099691
15.365000 1579.106285 1581.048643 1582.817835 1582.800467 1584.489089 1586.718277
15.390000 1580.992551 1582.708420 1584.386381 1584.512130 1586.230491 1588.848241
15.415000 1583.233445 1584.600247 1586.207810 1586.425572 1588.333450 1590.522306
15.440000 1584.747694 1586.170417 1587.932463 1588.146790 1590.220224 1592.289642
15.465000 1586.454929 1588.064514 1589.761091 1589.932841 1591.943139 1594.347359
15.490000 1588.008357 1590.191300 1591.898942 1591.887265 1593.601393 1595.501920
15.515000 1589.728119 1592.078478 1594.034513 1593.877848 1595.624563 1597.398370
15.540000 1591.577750 1594.094459 1595.914414 1595.825195 1597.559265 1599.225962
15.565000 1594.049255 1595.983035 1597.827092 1597.714538 1599.429336 1600.992417
15.590000 1596.440292 1598.161057 1599.907642 1599.796569 1601.420533 1602.472824
15.615000 1598.377166 1600.107332 1601.696959 1601.560975 1602.926965 1604.082226
15.640000 1600.216310 1601.848948 1603.316006 1603.141444 1604.261839 1605.454619
15.665000 1602.140151 1603.574647 1604.895710 1604.775608 1605.941496 1606.992557
15.690000 1603.956666 1605.256288 1606.479759 1606.470060 1607.717512 1608.764988
15.715000 1605.616466 1606.869474 1608.006479 1608.101196 1609.319014 1610.998908
15.740000 1607.157735 1608.230159 1609.473730 1609.685270 1611.012490 1613.268035
15.765000 1608.543095 1609.726399 1611.258740 1611.453438 1613.179406 1615.291273
15.790000 1609.916631 1611.222253 1612.999861 1613.189051 1615.158165 1617.831653
15.815000 1611.175394 1612.839712 1614.666654 1614.921193 1616.991230 1620.145690
15.840000 1612.794573 1614.512614 1616.721531 1616.861900 1619.181400 1621.865987
15.865000 1614.440836 1616.254107 1618.572892 1618.730176 1621.355976 1623.763292
15.890000 1616.203418 1618.050721 1620.554952 1620.658338 1623.286763 1625.459047
15.915000 1617.811768 1620.074812 1622.725654 1622.675534 1625.136483 1627.449706
15.940000 1620.086978 1622.494242 1625.009104 1624.767217 1626.922506 1629.050501
15.965000 1621.768606 1624.563801 1626.845080 1626.624669 1628.659636 1630.736459
15.990000 1623.606489 1626.549610 1628.728019 1628.588291 1630.627283 1632.866260
16.015000 1625.397777 1628.352108 1630.767827 1630.743902 1633.093516 1635.874374
16.040000 1627.294386 1629.993810 1632.960044 1632.924909 1635.852410 1638.629745
16.065000 1629.035848 1631.988777 1635.289911 1635.137325 1638.325169 1640.723223
16.095000 1631.943900 1635.048137 1638.211491 1637.829815 1640.463869 1642.262112
16.115000 1633.391443 1637.381209 1639.993018 1639.652840 1641.986932 1643.619516
16.140000 1636.510757 1639.717859 1641.793303 1641.603900 1643.675723 1645.429976
16.165000 1639.828411 1642.008786 1643.759991 1643.788923 1645.607396 1647.529196
16.190000 1642.548201 1644.236310 1645.972390 1646.029634 1647.875546 1649.665139
16.215000 1644.502646 1646.064765 1647.891540 1647.903606 1649.670415 1651.488646
16.240000 1645.984326 1647.683921 1649.570184 1649.500697 1651.205996 1652.904994
16.265000 1647.195896 1649.070007 1650.944564 1650.857641 1652.584888 1654.245650
16.290000 1648.649313 1650.339039 1652.177913 1652.144947 1653.895091 1655.442802
16.315000 1649.834408 1651.598291 1653.441274 1653.374905 1655.042704 1656.652529
16.365000 1651.895232 1653.957382 1655.668992 1655.589024 1657.203769 1658.833423
16.390000 1653.268558 1655.241665 1656.846547 1656.786752 1658.344577 1659.862618
16.415000 1654.598011 1656.513343 1658.079093 1658.026974 1659.479738 1661.106120
16.440000 1656.289518 1657.866813 1659.404393 1659.385540 1660.934478 1662.534498
16.465000 1657.632181 1659.349165 1660.843096 1660.924391 1662.534604 1664.448498
16.490000 1659.720870 1661.158249 1662.774000 1662.942063 1664.741652 1667.732816
16.515000 1662.018192 1663.440412 1665.269311 1665.720474 1668.191598 1671.552144
16.540000 1663.620454 1665.284781 1667.705489 1668.064290 1671.086401 1674.319261
16.565000 1665.052402 1666.920895 1669.695499 1670.022101 1673.221507 1676.823951
16.590000 1666.594615 1668.464819 1671.560318 1671.831696 1675.154255 1678.778857
16.615000 1668.123368 1670.018843 1673.263304 1673.617834 1677.246275 1681.038736
16.640000 1669.685648 1671.834996 1675.277571 1675.569118 1679.292161 1682.758847
16.665000 1671.156625 1673.609915 1677.310936 1677.420233 1681.400032 1684.684206
16.690000 1672.553450 1675.544925 1679.250760 1679.333710 1683.150488 1687.158539
16.715000 1674.098224 1677.523841 1681.224785 1681.309879 1685.098264 1688.829616
16.740000 1675.893605 1679.457945 1683.249659 1683.282590 1686.956144 1690.742922
16.765000 1677.460867 1681.401931 1685.346778 1685.256091 1688.850581 1692.634937
16.790000 1679.845131 1683.598705 1687.581766 1687.376609 1691.075887 1694.291431
16.815000 1682.139807 1685.861473 1689.691069 1689.493476 1693.119157 1696.143521
16.840000 1684.313552 1688.513718 1691.946381 1691.836939 1695.303053 1698.392217
16.865000 1687.366153 1691.261261 1694.666155 1694.534780 1697.789882 1701.294532
16.890000 1690.422665 1694.185605 1697.661067 1697.508128 1700.775421 1704.125540
16.940000 1697.909019 1700.649729 1704.030004 1704.116569 1707.419783 1710.483018
16.965000 1700.182263 1703.550790 1706.967893 1706.907592 1710.275031 1713.126576
17.010000 1706.769097 1710.506507 1713.507049 1713.284650 1716.212343 1718.487224
17.035000 1709.399714 1712.875498 1715.779680 1715.569264 1718.314498 1720.370689
17.060000 1711.792750 1715.041237 1717.684871 1717.468724 1719.979566 1722.301052
17.087500 1713.630733 1717.079346 1719.467681 1719.273889 1721.632114 1723.660720
17.112500 1714.862363 1718.650364 1721.009874 1720.852557 1723.149511 1725.266593
17.137500 1716.649854 1720.033233 1722.479057 1722.300768 1724.560688 1726.856397
17.162500 1718.325285 1721.464989 1723.842734 1723.706177 1725.966093 1728.486243
17.187500 1720.024441 1722.890530 1725.105014 1725.047112 1727.301582 1729.953167
17.212500 1721.656419 1724.149775 1726.359133 1726.371249 1728.640463 1731.473962
17.237500 1722.961748 1725.404329 1727.570962 1727.653313 1729.913065 1733.218436
17.262500 1724.166366 1726.670987 1728.775073 1728.930016 1731.352227 1734.443218
17.287500 1725.236351 1727.843856 1729.865492 1730.226784 1732.774759 1736.118915
17.312500 1726.627728 1729.209715 1731.136299 1731.522282 1734.072111 1737.630313
17.337500 1728.002838 1730.402608 1732.445431 1732.862604 1735.619963 1739.406142
17.365000 1729.370353 1731.655903 1733.798211 1734.290728 1737.236177 1741.150673
17.387500 1730.394228 1732.729761 1734.968688 1735.528890 1738.658471 1742.943401
17.412500 1731.725709 1733.836828 1736.298829 1736.920890 1740.285185 1745.179325
17.437500 1732.822812 1734.957185 1737.508948 1738.259659 1741.817364 1747.221679
17.465000 1734.256968 1736.279527 1738.910230 1739.792354 1743.736987 1749.387816
17.490000 1735.689543 1737.556244 1740.177264 1741.235268 1745.555891 1751.093487
17.515000 1737.097209 1738.826857 1741.574725 1742.710753 1747.302803 1752.341551
17.540000 1738.438130 1740.238911 1743.184043 1744.314332 1749.133022 1753.740268
17.550000 1739.275967 1740.966503 1743.990240 1745.035219 1749.837282 1754.337513
17.585000 1741.225995 1743.470079 1747.590448 1747.860687 1752.312317 1756.055357
17.610000 1742.857435 1745.590339 1749.945174 1749.858466 1754.012269 1757.237126
17.635000 1744.575664 1748.115771 1751.917848 1751.834376 1755.572569 1758.550638
17.660000 1746.708423 1750.781922 1754.106830 1754.014697 1757.330345 1760.134822
17.685000 1749.589612 1753.587548 1756.652622 1756.493408 1759.390671 1762.510103
17.710000 1753.144841 1756.052109 1758.941095 1758.983072 1761.760258 1765.112933
17.735000 1756.131904 1759.006828 1761.885360 1761.859666 1764.858648 1768.091576
17.760000 1758.525598 1761.224815 1764.210969 1764.383385 1767.639523 1771.414357
17.785000 1760.820040 1763.327272 1766.713722 1766.790327 1770.321035 1773.536765
17.810000 1763.373752 1765.800847 1769.142343 1769.216891 1772.547799 1775.785996
17.835000 1765.774515 1768.610334 1771.700883 1771.798208 1775.088581 1778.196924
17.860000 1768.131120 1771.318635 1774.611074 1774.479792 1777.570956 1781.039525
17.885000 1771.108163 1773.964658 1777.330084 1777.296716 1780.514614 1783.617729
17.910000 1774.005607 1777.042427 1780.417745 1780.320199 1783.447939 1785.914488
17.935000 1778.290734 1781.421853 1784.242941 1784.020654 1786.559393 1788.226480
17.960000 1781.811515 1784.185298 1786.570465 1786.352552 1788.459650 1789.843394
17.985000 1783.872353 1786.218663 1788.304849 1788.051073 1789.776080 1790.912754
18.020000 1786.792634 1788.621823 1790.276108 1790.047648 1791.335500 1792.354577
18.035000 1787.660052 1789.671301 1791.053861 1790.894753 1792.078310 1793.136922
18.085000 1791.853078 1792.651266 1793.485216 1793.494946 1794.271454 1795.123501
18.110000 1793.136684 1794.068732 1795.049839 1795.099898 1796.108182 1797.430125
18.135000 1794.467656 1795.496321 1796.718525 1796.813939 1798.111830 1799.624118
18.160000 1795.813055 1796.901960 1798.455387 1798.377523 1799.714422 1801.169826
18.185000 1796.903433 1798.276987 1799.752317 1799.686478 1801.002252 1802.450743
18.210000 1798.074117 1799.361144 1800.838675 1800.805993 1802.135823 1803.537121
18.235000 1799.243467 1800.492048 1801.861966 1801.838280 1803.187853 1804.626530
18.260000 1800.183633 1801.450540 1802.866181 1802.839260 1804.170069 1805.603912
18.285000 1801.099313 1802.464978 1803.799799 1803.798209 1805.098844 1806.426735
18.310000 1802.053135 1803.412193 1804.749493 1804.738999 1806.050371 1807.595798
18.335000 1802.850200 1804.291943 1805.719955 1805.661495 1807.022745 1808.376001
18.360000 1803.743247 1805.217074 1806.648098 1806.605530 1807.910746 1809.230710
18.385000 1804.708353 1806.197960 1807.621927 1807.559875 1808.876469 1810.156305
18.410000 1805.727436 1807.083611 1808.576894 1808.518573 1809.805554 1811.196655
18.435000 1806.557784 1808.076685 1809.527078 1809.470729 1810.858900 1812.173132
18.460000 1807.538971 1809.019854 1810.429295 1810.408072 1811.758554 1813.186597
18.485000 1808.423604 1809.971276 1811.419954 1811.359209 1812.690823 1814.101261
18.510000 1809.596780 1810.954492 1812.362002 1812.299161 1813.607790 1815.003531
18.535000 1810.413006 1811.847308 1813.286918 1813.226523 1814.527996 1815.881110
18.560000 1811.374956 1812.754578 1814.260315 1814.171067 1815.460891 1816.814007
18.585000 1812.307633 1813.763433 1815.196482 1815.106455 1816.418470 1817.793501
18.610000 1813.277299 1814.703558 1816.097429 1816.043450 1817.334496 1818.572402
18.635000 1814.284417 1815.676182 1817.039348 1816.999917 1818.340814 1819.572376
18.660000 1815.136241 1816.648126 1817.963103 1817.920196 1819.149439 1820.490070
18.685000 1816.089407 1817.575911 1818.877153 1818.860140 1820.143396 1821.517436
18.710000 1817.000518 1818.535906 1819.836606 1819.821250 1821.106920 1822.416682
18.735000 1817.937127 1819.499380 1820.830288 1820.781037 1822.041800 1823.338983
18.760000 1818.826854 1820.469468 1821.780075 1821.714015 1822.998400 1824.187725
18.785000 1819.679877 1821.375404 1822.708967 1822.658679 1823.949768 1825.131055
18.810000 1820.739681 1822.304204 1823.686671 1823.610779 1824.938621 1825.988931
18.835000 1821.748604 1823.286159 1824.639688 1824.573685 1825.898374 1826.992565
18.860000 1822.778768 1824.258774 1825.643399 1825.528469 1826.813689 1827.836498
18.885000 1823.618506 1825.279031 1826.555316 1826.493734 1827.732909 1828.852085
18.910000 1824.604041 1826.286443 1827.539551 1827.466810 1828.664632 1829.730606
18.935000 1825.658058 1827.257161 1828.503035 1828.446554 1829.651410 1830.601777
18.985000 1827.747612 1829.099694 1830.324742 1830.242903 1831.351699 1832.345610
19.010000 1828.744467 1830.068760 1831.302814 1831.217823 1832.348075 1833.259134
19.035000 1829.842874 1831.143741 1832.326784 1832.224133 1833.324625 1834.266235
19.085000 1831.731931 1833.037659 1834.185271 1834.121053 1835.126779 1836.038538
19.110000 1833.040616 1834.218594 1835.200855 1835.177887 1836.181380 1837.083867
19.135000 1834.460292 1835.343723 1836.300320 1836.262381 1837.170396 1838.250220
19.160000 1835.802100 1836.617037 1837.411035 1837.438628 1838.306459 1839.163177
19.185000 1836.827781 1837.868692 1838.846567 1839.085040 1840.160371 1843.028506
19.210000 1837.970828 1839.136959 1840.440498 1840.831024 1842.504549 1845.988874
19.235000 1839.214675 1840.794417 1842.643521 1843.064840 1845.332467 1849.202518
19.260000 1840.608413 1842.375580 1844.725305 1845.158697 1848.018399 1851.951346
19.285000 1842.051413 1844.024158 1846.740543 1847.111211 1850.255113 1854.249556
19.310000 1843.420911 1845.633529 1848.649648 1849.080777 1852.538277 1857.513695
19.335000 1845.082895 1847.690135 1850.732978 1851.153401 1854.584586 1859.592122
19.360000 1846.912120 1849.687912 1852.896188 1853.353172 1856.824183 1862.069711
19.385000 1848.797872 1851.733140 1855.135372 1855.651988 1859.553164 1865.330865
19.410000 1850.786441 1853.776708 1857.518353 1858.224478 1862.673617 1869.532857
19.435000 1853.361027 1856.238716 1860.324981 1861.184934 1866.449217 1872.262885
19.460000 1855.675327 1859.158616 1864.185283 1864.466245 1869.952450 1874.517551
19.485000 1857.922049 1862.232238 1867.773800 1867.785856 1873.393984 1877.230014
19.510000 1860.880140 1865.552563 1871.079010 1870.885960 1876.377946 1879.277169
19.535000 1863.254862 1869.209802 1874.416308 1874.065545 1879.020076 1881.469780
19.560000 1866.199478 1871.985051 1877.595970 1876.902211 1881.477693 1884.356118
19.585000 1870.111205 1874.507990 1880.358903 1879.745649 1884.270370 1886.917171
19.610200 1872.988862 1876.994125 1882.925457 1882.182618 1886.627680 1889.390920
19.635000 1876.178421 1879.636870 1884.857888 1884.385087 1888.701844 1891.369991
19.660000 1880.058623 1883.249136 1887.548547 1887.201857 1890.916487 1893.385445
19.685000 1882.762630 1886.235783 1890.286822 1889.871841 1893.001157 1895.630084
19.710000 1885.637419 1889.125737 1892.773776 1892.363285 1895.230560 1897.520455
19.735000 1887.969811 1891.549123 1894.707140 1894.462920 1897.260917 1899.528096
19.760000 1890.658375 1893.533568 1896.611066 1896.438082 1899.267058 1901.382244
19.785000 1892.598701 1895.710105 1898.576355 1898.416354 1901.193066 1903.210846
19.810000 1894.724976 1898.029591 1900.637783 1900.485548 1903.119684 1905.214609
19.835000 1896.932793 1900.280079 1902.968985 1902.811429 1905.347947 1907.866959
19.860000 1900.041468 1902.802920 1905.405339 1905.375820 1907.961897 1910.815783
19.885000 1905.364850 1906.775530 1908.892911 1909.399556 1912.338122 1915.319112
19.910000 1914.655491 1915.549347 1916.496910 1916.497275 1917.418077 1918.329080
19.935000 1916.312897 1917.399593 1918.472569 1918.566370 1919.739284 1921.358529
19.960000 1917.821939 1919.030531 1920.418149 1920.529778 1921.950887 1924.405622
19.985000 1919.244536 1920.597888 1922.216822 1922.397798 1924.252886 1926.507804
20.010000 1920.658967 1922.249953 1924.074537 1924.250720 1926.325950 1928.417924
20.035000 1921.828949 1923.597119 1925.660718 1925.722253 1927.868983 1929.961824
20.060000 1923.121026 1924.874971 1927.055320 1927.087739 1929.321284 1931.229699
20.085000 1924.336877 1926.129932 1928.257558 1928.329089 1930.539947 1932.404599
20.110000 1925.598593 1927.432193 1929.555482 1929.641403 1931.917779 1933.992824
20.135000 1926.810516 1928.611286 1930.696180 1930.844726 1933.115355 1935.151837
20.160000 1927.923001 1929.803970 1931.865653 1931.976670 1934.127540 1936.368829
20.185000 1929.141055 1930.969237 1933.164075 1933.169942 1935.358745 1937.515364
20.210000 1930.429516 1932.259374 1934.371450 1934.347124 1936.446323 1938.351073
20.235000 1931.499039 1933.440410 1935.565223 1935.534151 1937.612114 1939.634036
20.260000 1932.729680 1934.634587 1936.723043 1936.690966 1938.740465 1940.608702
20.285000 1933.822692 1935.753368 1937.874455 1937.835760 1939.769024 1941.596746
20.310000 1935.094608 1936.949868 1939.075667 1939.032996 1940.964596 1942.819030
20.335000 1936.299769 1938.134257 1940.439608 1940.227634 1941.996582 1943.926818
20.360000 1937.402687 1939.422509 1941.646065 1941.438002 1943.211750 1945.027453
20.385000 1938.538981 1940.618807 1942.828919 1942.598956 1944.376071 1946.170433
20.411000 1939.732648 1941.752324 1943.905460 1943.706496 1945.448618 1947.250209
20.460000 1941.794998 1943.676234 1945.770724 1945.616684 1947.290628 1949.276823
20.485000 1942.750907 1944.773533 1946.762096 1946.628410 1948.304735 1950.455122
20.510000 1943.755327 1945.688874 1947.720351 1947.628946 1949.295046 1951.550632
20.535000 1944.861249 1946.658184 1948.769084 1948.633781 1950.276350 1952.503239
20.560000 1945.773340 1947.689403 1949.838494 1949.672938 1951.351303 1953.449949
20.585000 1946.838331 1948.719947 1950.813710 1950.673484 1952.371560 1954.596031
