depth(m) lower_95(kyr) lower_68(kyr) median(kyr) mean(kyr) upper_68(kyr) upper_95(kyr)
105.850000 2680.165336 2681.020826 2683.361429 2684.507712 2687.702527 2695.551764
105.940000 2681.356184 2682.576611 2684.926422 2686.123372 2689.406072 2696.603501
106.040000 2682.761466 2684.228295 2686.826006 2687.899582 2691.263852 2698.269311
106.140000 2684.171731 2685.723157 2688.726865 2689.634862 2693.051710 2700.266601
106.250000 2685.809925 2687.597071 2690.819518 2691.606289 2695.423009 2702.065600
106.350000 2687.192350 2689.170256 2692.557749 2693.405772 2697.244977 2704.041534
106.450000 2688.944086 2690.906111 2694.311464 2695.152936 2699.009238 2705.784485
106.550000 2690.362699 2692.610702 2696.381023 2696.971440 2700.753429 2707.784527
106.660000 2691.942297 2694.566542 2698.327206 2698.938457 2703.021148 2710.254571
106.760000 2693.695186 2696.365811 2700.114598 2700.827401 2705.151927 2712.570817
106.850000 2695.130007 2698.263139 2701.992908 2702.702468 2707.076467 2714.319923
106.950000 2696.869561 2700.224941 2704.150078 2705.047757 2710.185813 2717.647507
107.040000 2698.372794 2701.837910 2706.232331 2707.113458 2713.015418 2719.635615
107.130000 2700.194151 2703.712729 2708.449005 2709.408102 2715.742524 2721.583653
107.220000 2701.856318 2705.546031 2710.823792 2711.697593 2718.501344 2723.817086
107.300000 2704.031399 2707.410777 2713.283340 2713.831033 2720.476571 2725.237519
107.380000 2705.892066 2709.679059 2715.915958 2716.070057 2722.309642 2726.831481
107.470000 2708.954543 2712.867550 2718.916506 2718.719419 2724.191263 2728.443593
107.560000 2712.329574 2716.760043 2722.022685 2721.682684 2726.445140 2730.074446
107.650000 2715.734315 2720.290153 2724.869057 2724.750575 2729.023503 2733.306571
107.750000 2721.075237 2725.287975 2728.962594 2728.989877 2732.683622 2736.762781
107.850000 2726.467159 2730.199022 2733.586710 2733.539063 2736.891377 2740.517935
107.950000 2730.078181 2733.496761 2736.696069 2736.743247 2740.143711 2743.841312
108.070000 2733.438716 2736.237866 2739.418063 2739.708190 2743.291064 2747.048350
108.190000 2736.018101 2738.819228 2742.181603 2742.496604 2746.067565 2750.515394
108.320000 2738.402095 2741.340999 2745.119834 2745.441297 2749.761990 2754.023003
108.415000 2740.040512 2743.102712 2747.335392 2747.576869 2752.105013 2757.068046
108.510000 2741.917443 2744.957141 2749.407637 2749.736475 2754.426378 2759.342065
108.610000 2743.729565 2747.224446 2751.757737 2751.980413 2756.768280 2761.453688
108.710000 2745.552938 2749.463025 2753.878663 2754.310961 2759.105855 2763.469506
108.810000 2748.089196 2751.863938 2756.544770 2756.689950 2761.545210 2765.663097
108.900000 2750.251869 2754.115273 2758.765296 2758.819709 2763.701272 2767.575012
109.000000 2752.304879 2756.690184 2761.311273 2761.247768 2765.924921 2769.592559
109.090000 2754.348429 2758.752702 2763.526395 2763.335462 2767.878911 2771.570766
109.200000 2756.990509 2761.501031 2766.003969 2765.724029 2770.005175 2773.244307
109.300000 2759.880297 2764.089604 2768.222539 2768.043031 2771.996184 2775.197094
109.400000 2762.638723 2766.571080 2770.400644 2770.345505 2774.213384 2777.515477
109.500000 2765.106778 2769.014158 2772.920170 2772.801659 2776.416088 2779.876717
109.610000 2768.037761 2772.170267 2775.979388 2775.699010 2779.375314 2782.357577
109.680000 2769.586179 2774.173067 2777.977705 2777.673768 2781.282680 2784.202032
109.760000 2771.659124 2776.294060 2779.996326 2779.679634 2783.125602 2785.950735
109.840000 2773.746887 2778.398157 2781.965540 2781.613364 2784.883204 2787.687354
109.920000 2775.951706 2780.227084 2783.722865 2783.432378 2786.692549 2789.301599
110.020000 2778.286332 2782.584678 2785.987735 2785.740389 2788.960399 2791.678723
110.140000 2781.853312 2785.155520 2788.394732 2788.282550 2791.474173 2794.506632
110.220000 2783.584990 2787.034185 2790.128645 2790.050342 2793.196720 2796.036074
110.300000 2785.636444 2788.845775 2791.989656 2791.828027 2794.764475 2797.256491
110.390000 2787.571410 2790.813379 2794.028838 2793.874692 2796.917051 2798.886783
110.480000 2790.380496 2793.250075 2796.168011 2795.986905 2798.806931 2800.653815
110.620000 2794.213045 2796.983560 2799.733608 2799.442557 2801.805369 2803.537689
110.710000 2796.798489 2799.235613 2801.574886 2801.418053 2803.559483 2805.247955
110.790000 2799.621950 2801.779485 2803.605533 2803.570042 2805.463589 2807.063773
110.850000 2801.452559 2803.253228 2804.981577 2805.010355 2806.777404 2808.449966
110.900000 2802.723107 2804.432854 2806.207120 2806.195022 2807.890626 2809.753649
110.960000 2804.111062 2805.815453 2807.615243 2807.575666 2809.332618 2810.977386
111.010000 2805.305389 2806.929570 2808.846653 2808.824412 2810.552790 2812.441793
111.070000 2806.752531 2808.584536 2810.540693 2810.524422 2812.457324 2814.425633
111.160000 2809.606554 2811.593076 2813.878137 2813.921374 2816.096452 2818.298173
111.250000 2812.208182 2814.502197 2816.784936 2816.791694 2818.984869 2821.924037
111.360000 2815.082102 2817.125932 2819.422886 2819.610553 2822.001622 2825.054988
111.470000 2817.589104 2819.732980 2822.327349 2822.594366 2825.543394 2829.160990
111.570000 2819.548664 2822.019009 2824.910700 2825.054039 2828.076739 2831.618755
111.670000 2821.225760 2823.942416 2827.235730 2827.301500 2830.624831 2834.323272
111.760000 2823.184428 2825.779669 2829.369601 2829.430153 2832.891593 2836.193504
111.850000 2825.021802 2828.087084 2831.684332 2831.655262 2835.227491 2838.597447
111.940000 2827.158196 2830.354823 2833.688224 2833.817262 2837.184656 2841.049378
112.040000 2829.469542 2832.652800 2835.965890 2836.079008 2839.400483 2843.138379
112.140000 2831.925013 2834.917628 2838.308233 2838.292435 2841.513325 2845.065743
112.250000 2834.330313 2837.253146 2840.567716 2840.529893 2843.812696 2846.867319
112.360000 2836.383747 2839.356074 2842.730747 2842.626349 2845.835156 2849.043897
112.460000 2838.534802 2841.273872 2844.612489 2844.606000 2847.835466 2850.677418
112.550000 2840.212216 2843.160256 2846.303993 2846.307731 2849.423702 2852.431577
112.650000 2842.176465 2845.038734 2848.203814 2848.193756 2851.308166 2854.162730
112.740000 2843.914221 2846.848988 2850.040584 2850.009583 2853.205229 2856.167637
112.840000 2845.963101 2848.791811 2851.998178 2851.981602 2855.150982 2857.939226
112.950000 2848.375733 2851.226171 2854.595788 2854.592092 2857.908055 2861.423645
113.060000 2850.789569 2853.707946 2857.084191 2857.131760 2860.453360 2864.035295
113.170000 2852.665587 2856.151814 2859.573158 2859.498091 2862.906648 2866.033149
113.270000 2854.584323 2858.037677 2861.617805 2861.551181 2865.264305 2867.882410
113.370000 2856.517623 2859.790488 2863.558387 2863.454838 2867.054586 2869.587863
113.470000 2858.343297 2861.595905 2865.524914 2865.339629 2868.980457 2871.197430
113.560000 2860.168812 2863.417204 2867.350701 2867.069340 2870.606956 2872.852711
113.650000 2862.359201 2865.407226 2869.181447 2868.878962 2872.147337 2874.474909
113.750000 2864.635933 2867.907295 2871.109164 2870.918161 2873.910586 2876.031050
113.840000 2866.618493 2870.238788 2873.127982 2872.949623 2875.650185 2877.668246
113.940000 2870.060941 2872.768594 2875.676148 2875.343281 2877.855670 2879.657996
114.040000 2873.256787 2875.942523 2878.020510 2877.991609 2880.103634 2882.296214
114.150000 2876.269682 2878.350918 2880.320296 2880.307491 2882.269000 2884.410581
114.250000 2878.309844 2880.184482 2882.100208 2882.116644 2884.021472 2886.155502
114.350000 2879.951713 2881.871862 2883.746371 2883.760258 2885.632181 2887.782320
114.450000 2881.458958 2883.379700 2885.322945 2885.403833 2887.253962 2890.324540
114.560000 2883.323123 2885.047885 2887.080063 2887.197923 2889.058474 2892.754956
114.660000 2884.976265 2886.443966 2888.680001 2888.903408 2891.020818 2895.856493
114.760000 2886.387944 2888.134432 2890.412723 2890.787249 2893.231988 2898.893628
114.860000 2888.174086 2889.793759 2892.285584 2892.872616 2895.799536 2901.750074
114.960000 2889.796842 2891.609125 2894.345299 2895.051920 2898.575082 2904.222339
115.050000 2891.315083 2893.291407 2896.210028 2897.083458 2901.019298 2906.465723
115.150000 2892.927916 2895.221993 2898.812677 2899.381243 2903.851774 2908.026191
115.250000 2894.686989 2897.360833 2901.463897 2901.759748 2906.404293 2910.012167
115.350000 2896.493015 2899.819119 2904.158953 2904.119503 2908.459002 2911.897066
115.450000 2898.298514 2902.159628 2906.519729 2906.410622 2910.538908 2913.975294
115.550000 2900.434982 2904.625619 2908.806679 2908.636858 2912.579274 2915.826332
115.660000 2902.643501 2906.806509 2911.333421 2910.926802 2914.523539 2918.049532
115.760000 2905.036556 2909.176523 2913.334540 2912.941769 2916.466097 2919.743441
115.850000 2907.475673 2911.338691 2915.360746 2915.003885 2918.446104 2921.305546
115.950000 2909.739222 2913.953190 2917.374887 2917.140969 2920.446125 2922.940838
116.040000 2912.219999 2915.877982 2919.137069 2918.982159 2922.166814 2924.750628
116.140000 2914.336903 2917.981899 2921.085438 2920.932849 2924.029524 2926.346614
116.240000 2916.521485 2919.779994 2922.835553 2922.718860 2925.590238 2927.902724
116.350000 2918.823710 2922.011331 2924.744201 2924.669893 2927.325049 2929.665535
116.450000 2920.961092 2923.800413 2926.403321 2926.378567 2928.909952 2931.224419
116.550000 2922.609375 2925.587568 2928.161878 2928.078402 2930.538178 2932.677423
116.640000 2924.396176 2927.347074 2929.677521 2929.655513 2932.079881 2934.197789
116.730000 2926.493138 2928.985853 2931.431442 2931.342501 2933.666506 2935.808726
116.810000 2928.192993 2930.705215 2933.078799 2932.987999 2935.370224 2937.154142
116.890000 2930.010698 2932.464819 2934.791118 2934.744388 2937.063187 2938.743672
116.980000 2932.162169 2934.347163 2936.659787 2936.557025 2938.826932 2940.608006
117.080000 2934.059614 2936.334476 2938.501711 2938.443615 2940.574287 2942.414890
117.220000 2936.711092 2938.643190 2940.809585 2940.785954 2942.936954 2944.587293
117.300000 2937.928630 2940.001477 2942.229048 2942.113551 2944.161238 2945.837664
117.380000 2939.191807 2941.296751 2943.485250 2943.388390 2945.473779 2947.029297
117.475000 2940.661220 2942.827882 2945.016201 2944.840267 2946.843446 2948.289146
117.570000 2942.007071 2944.338848 2946.459301 2946.267166 2948.230537 2949.679281
117.710000 2944.469590 2946.496051 2948.440242 2948.320311 2950.067190 2951.517334
117.810000 2946.069742 2948.012292 2949.884846 2949.797310 2951.406085 2952.950084
117.890000 2947.508056 2949.235636 2951.134093 2951.053731 2952.557272 2954.450576
117.950000 2948.464822 2950.407705 2952.206318 2952.098725 2953.492361 2956.054352
117.960000 2948.778514 2950.581765 2952.393855 2952.291758 2953.669731 2956.371054
118.010000 2949.558570 2951.516207 2953.382566 2953.255459 2954.624491 2957.631200
118.050000 2950.246586 2952.181111 2954.119728 2953.999330 2955.370227 2958.656984
118.060000 2950.464836 2952.396900 2954.310883 2954.195019 2955.564792 2958.807318
118.150000 2952.304701 2954.083697 2955.756654 2955.782213 2957.226251 2960.299815
118.220000 2953.438161 2955.417261 2956.936391 2957.083973 2958.676140 2961.902779
118.250000 2953.908808 2955.902207 2957.482887 2957.680566 2959.429043 2962.817748
118.320000 2954.998792 2957.171964 2958.795434 2959.071303 2961.095855 2964.352618
118.350000 2955.687846 2957.753556 2959.475199 2959.747253 2961.878972 2964.938131
118.410000 2957.151287 2959.006034 2960.942697 2961.274687 2963.644012 2967.067460
118.450000 2957.977356 2959.851885 2961.955841 2962.281454 2964.831494 2968.056763
118.550000 2959.831651 2961.847548 2964.360000 2964.622594 2967.501859 2971.315405
118.650000 2961.503014 2964.125083 2966.742828 2967.109024 2970.081455 2974.015566
118.750000 2963.926455 2966.702890 2969.920378 2970.030319 2973.572577 2977.118870
118.850000 2965.983230 2968.930915 2972.622804 2972.853210 2976.626442 2980.742530
118.950000 2968.182794 2971.435090 2975.713432 2975.589143 2979.688395 2983.245490
119.050000 2970.491593 2974.007550 2978.594140 2978.408666 2982.571237 2986.073716
119.150000 2972.930621 2977.393830 2981.411609 2981.213986 2985.055708 2988.042043
119.250000 2976.593024 2980.507424 2984.136264 2983.893788 2987.226534 2990.180413
119.350000 2979.479337 2982.994270 2986.274994 2986.194402 2989.236030 2992.287239
119.450000 2982.289688 2985.162597 2988.234248 2988.214688 2991.069432 2994.301254
119.550000 2984.536212 2987.338026 2990.012002 2990.183803 2992.987285 2996.568312
119.650000 2986.435252 2989.099265 2991.776053 2992.000044 2994.963020 2998.296443
119.750000 2988.296669 2990.917725 2993.665645 2993.884640 2996.976221 3000.226238
119.850000 2989.952631 2992.643231 2995.631463 2995.805905 2999.073337 3002.383278
119.950000 2991.694385 2994.454675 2997.636516 2997.804335 3001.222023 3004.893103
120.025000 2993.420331 2995.921227 2999.110352 2999.313669 3002.808830 3006.784844
120.100000 2995.016921 2997.306922 3000.790356 3000.879919 3004.360441 3008.144281
120.180000 2996.458708 2998.998887 3002.484049 3002.574107 3006.032306 3009.824775
120.260000 2997.790216 3000.492085 3004.174093 3004.302598 3007.828764 3011.716281
120.350000 2999.438846 3002.328220 3006.020702 3006.189528 3010.015193 3013.654673
120.440000 3001.100371 3004.199422 3007.843846 3007.984684 3011.702281 3015.260488
120.540000 3002.741212 3006.249540 3009.974163 3010.028572 3013.659103 3017.720016
120.640000 3004.966065 3008.409307 3012.160674 3012.132507 3015.699302 3019.456459
120.750000 3007.218494 3010.728713 3014.581838 3014.452002 3018.043495 3021.725021
120.850000 3009.030904 3012.822411 3016.832662 3016.540013 3020.083059 3023.312149
120.950000 3011.072868 3015.107374 3018.800165 3018.647568 3022.177807 3025.474740
121.050000 3013.051962 3016.999891 3020.798199 3020.626213 3024.018816 3027.251809
121.150000 3015.548879 3019.187526 3022.823787 3022.690265 3026.006202 3028.968062
121.250000 3018.334804 3021.678993 3024.872502 3024.854908 3028.028543 3031.021274
121.350000 3020.670793 3023.833620 3026.886132 3026.904186 3030.079966 3032.843601
121.450000 3022.874584 3025.902216 3029.051527 3028.907731 3031.948092 3034.432983
121.550000 3025.120160 3027.658232 3030.901908 3030.832366 3033.712766 3036.265757
121.650000 3027.074474 3029.749973 3032.659688 3032.768164 3035.513170 3038.821337
121.750000 3029.152395 3031.506800 3034.713283 3034.804454 3037.632560 3041.388489
121.850000 3030.810249 3033.612128 3036.911553 3037.083650 3040.206533 3045.067779
121.950000 3032.684288 3035.759117 3039.286893 3039.626884 3043.529468 3048.605116
122.050000 3034.673160 3037.785644 3041.804405 3042.228723 3046.791765 3051.389643
122.140000 3036.978128 3040.341397 3044.771483 3044.982768 3049.903049 3053.811869
122.240000 3039.260359 3043.391880 3047.963453 3048.062378 3052.971536 3056.561355
122.340000 3041.729912 3046.757275 3051.094739 3051.060488 3055.675581 3059.463890
122.440000 3045.019111 3050.545733 3054.598780 3054.262626 3058.097762 3062.165557
122.550000 3048.859402 3054.131543 3057.833791 3057.678500 3061.177162 3064.844877
122.650000 3052.797578 3056.876573 3060.272221 3060.231658 3063.709678 3067.186398
122.750000 3055.229847 3059.042120 3062.472353 3062.454648 3065.946721 3069.068655
122.850000 3058.360068 3061.131823 3064.541162 3064.586307 3068.117882 3071.098694
122.950000 3060.341811 3063.194200 3066.532354 3066.589604 3069.959882 3073.307327
123.050000 3062.381014 3065.028532 3068.330364 3068.471391 3072.089682 3075.170033
123.150000 3064.345175 3066.951359 3070.203271 3070.379843 3073.822004 3077.105878
123.250000 3066.300302 3068.850317 3072.037500 3072.262937 3075.788676 3078.547737
123.350000 3068.018888 3070.774658 3073.962309 3074.256660 3077.687376 3081.424286
123.450000 3069.553431 3072.921535 3076.118815 3076.322763 3079.897272 3084.008132
123.550000 3071.241520 3074.709335 3078.368518 3078.527188 3082.345099 3086.656058
123.650000 3073.129136 3076.825263 3080.639190 3080.938799 3084.982614 3090.508587
123.750000 3075.537938 3079.201578 3083.130542 3083.560466 3087.946564 3094.008675
123.850000 3077.802398 3081.525992 3085.856068 3086.197705 3090.975861 3096.185384
123.950000 3080.093362 3083.875839 3088.428342 3088.781177 3093.792200 3098.598073
124.050000 3082.438178 3086.269226 3091.456396 3091.504341 3096.837596 3101.615377
124.150000 3084.295191 3088.635378 3094.117493 3094.190465 3099.676823 3104.138937
124.250000 3086.475170 3091.328728 3096.902512 3096.775849 3101.998407 3106.413526
124.350000 3088.783370 3094.141743 3099.740671 3099.445174 3104.596056 3108.759369
124.450000 3090.467978 3096.825001 3102.155674 3101.934133 3106.777980 3111.061617
124.550000 3093.561370 3099.574233 3104.847356 3104.386588 3109.125494 3113.807486
124.650000 3095.694062 3102.453409 3107.213353 3106.919428 3111.610339 3115.961416
124.750000 3098.797674 3105.141319 3109.704766 3109.511162 3114.292343 3118.238732
124.850000 3101.830322 3107.598544 3111.913398 3111.926484 3116.825351 3120.310415
124.950000 3105.476783 3110.401884 3114.620694 3114.612755 3119.262659 3122.720856
125.050000 3108.777931 3112.906301 3117.131122 3117.166427 3121.732214 3125.162029
125.150000 3111.642988 3115.649488 3119.741364 3119.756732 3124.137911 3127.372249
125.250000 3114.063680 3118.141680 3122.549447 3122.217935 3126.413648 3129.262838
125.350000 3116.684917 3121.278736 3125.356514 3124.950590 3128.658866 3131.321005
125.450000 3119.967519 3124.634496 3128.321263 3128.009479 3131.354922 3133.602142
125.550000 3123.421645 3128.040869 3131.070867 3130.675085 3133.549314 3135.550305
125.650000 3126.898542 3130.667937 3133.411668 3133.076634 3135.535257 3137.301929
125.750000 3129.571133 3133.169766 3135.504272 3135.250743 3137.471904 3139.389469
125.850000 3132.245205 3135.273612 3137.471867 3137.273346 3139.405989 3141.175638
125.950000 3134.601001 3137.263159 3139.407198 3139.263081 3141.245206 3143.173281
126.050000 3136.554191 3139.410324 3141.360619 3141.358540 3143.460940 3145.586431
126.150000 3138.842067 3141.445908 3143.582496 3143.651206 3145.756478 3148.705410
126.250000 3141.800162 3143.768170 3145.979973 3146.365278 3148.881494 3153.811762
126.350000 3144.634250 3146.630226 3149.261080 3150.165050 3153.876252 3161.116718
126.450000 3146.740154 3149.337111 3153.111098 3154.219842 3159.723724 3166.406567
126.550000 3149.225284 3152.532129 3158.080196 3158.707612 3165.138075 3169.992954
126.650000 3151.793524 3156.153352 3163.372065 3162.994994 3169.348992 3173.406842
126.750000 3154.329486 3161.171181 3167.477442 3166.923027 3172.787644 3176.196384
126.850000 3157.623748 3165.505396 3170.716992 3170.352465 3175.512389 3179.382633
126.950000 3162.816921 3169.131736 3173.718534 3173.465185 3178.054513 3181.991885
127.050000 3166.322656 3171.887705 3176.171789 3176.022688 3180.513638 3184.348983
127.160000 3169.964262 3174.477786 3178.639198 3178.557304 3182.987445 3186.467392
127.260000 3172.395994 3176.683074 3180.789352 3180.831316 3185.358605 3189.308724
127.360000 3175.313050 3179.002477 3182.708120 3183.059643 3187.381208 3191.993296
127.460000 3177.668694 3181.270039 3185.060454 3185.443522 3189.502506 3194.916326
127.550000 3179.762662 3183.269416 3187.499787 3187.757371 3191.941489 3197.828925
127.650000 3182.086848 3185.877867 3190.436083 3190.517808 3194.866708 3200.371836
127.750000 3184.442213 3188.545340 3193.402979 3193.317632 3197.790633 3203.243856
127.870000 3186.973296 3191.851541 3196.521314 3196.505508 3200.913782 3207.125208
128.000000 3189.869093 3195.202296 3199.769098 3199.865401 3204.191214 3210.756179
128.080000 3191.362518 3197.123069 3201.768240 3201.882550 3206.630442 3213.650840
128.160000 3192.667764 3199.240352 3203.673942 3203.829963 3208.836378 3215.323823
128.245000 3194.588423 3201.334816 3205.693209 3205.877642 3210.911388 3216.884999
128.330000 3196.703504 3203.465476 3207.872790 3208.015901 3213.411461 3218.789397
128.380000 3197.954144 3204.805421 3209.022764 3209.284953 3214.545535 3220.327648
