depth(m) lower_95(kyr) lower_68(kyr) median(kyr) mean(kyr) upper_68(kyr) upper_95(kyr)
228.085000 2699.946860 2704.515513 2708.025188 2707.696807 2710.834756 2713.838675
228.185000 2702.230084 2706.300034 2709.635497 2709.311976 2712.143499 2714.937755
228.285000 2704.877666 2708.160024 2711.192975 2710.945948 2713.654344 2716.084466
228.385000 2706.765294 2710.003917 2712.603134 2712.497755 2715.056028 2717.376017
228.485000 2708.901986 2711.435760 2714.011001 2713.982440 2716.437607 2718.906202
228.585000 2710.773142 2713.159451 2715.478806 2715.495946 2717.995975 2720.315159
228.685000 2712.129839 2714.595328 2716.913487 2716.945653 2719.414682 2721.761344
228.785000 2713.623866 2716.103900 2718.536150 2718.557816 2721.054610 2723.485426
228.885000 2715.475663 2717.838450 2720.395404 2720.374840 2722.766837 2725.624476
228.985000 2717.301106 2719.926148 2722.527534 2722.505528 2725.212935 2727.789025
229.085000 2719.491577 2722.199747 2724.913978 2725.018722 2727.786098 2730.604916
229.185000 2722.556843 2724.914383 2727.827898 2727.844035 2730.692071 2733.325105
229.285000 2724.796516 2727.291269 2730.318706 2730.397851 2733.337731 2736.313323
229.385000 2727.343226 2729.978252 2733.286029 2733.269441 2736.331328 2739.917659
229.485000 2729.532584 2732.510613 2735.642528 2735.755836 2739.200659 2742.203222
229.585000 2731.284552 2734.258525 2737.695321 2737.807814 2741.233762 2745.168100
229.685000 2732.916685 2736.155017 2739.726035 2739.847911 2743.451064 2747.795628
229.785000 2734.241987 2737.633836 2741.396798 2741.645255 2745.461618 2750.243231
229.885000 2735.501130 2739.379514 2743.174173 2743.475887 2747.881550 2753.298288
229.985000 2737.068137 2740.693980 2744.878581 2745.260010 2749.905613 2755.684252
230.085000 2738.028359 2742.136261 2746.642916 2746.976557 2751.610166 2757.729853
230.185000 2739.399008 2743.867897 2748.531819 2748.730229 2753.501669 2759.559913
230.285000 2740.801608 2745.283332 2750.345797 2750.481627 2755.363607 2761.528811
230.385000 2741.828160 2746.893171 2752.182965 2752.099579 2757.025818 2763.251437
230.485000 2743.195007 2748.404380 2753.923123 2753.657027 2758.609967 2765.519709
230.585000 2744.160223 2749.975557 2755.592655 2755.239434 2760.023679 2766.866612
230.685000 2745.558062 2751.537059 2757.159652 2756.741868 2761.554614 2768.269601
230.785000 2746.930346 2752.905600 2758.655908 2758.217769 2762.892092 2769.510200
230.885000 2748.530486 2754.404607 2760.098425 2759.615618 2764.287699 2770.563537
230.985000 2750.230383 2755.746770 2761.584475 2761.043479 2765.624768 2771.666172
231.005000 2750.680073 2756.041926 2761.837456 2761.329342 2765.768637 2771.946005
231.141111 2752.736102 2757.998123 2763.404471 2762.965892 2767.111755 2772.865523
231.277222 2754.611136 2759.862508 2765.031814 2764.530538 2768.448351 2773.770259
231.413333 2757.071079 2761.793071 2766.610110 2766.134853 2769.837354 2774.458047
231.549444 2759.479942 2763.643349 2768.120632 2767.671957 2771.257805 2775.338293
231.685556 2761.493642 2765.722908 2769.669550 2769.267080 2772.549565 2776.218621
231.821667 2763.940245 2767.530319 2771.211447 2770.849244 2773.879724 2777.024053
231.957778 2765.932513 2769.335130 2772.747660 2772.435331 2775.360526 2777.900745
232.093889 2767.778845 2771.267351 2774.458790 2774.053541 2776.728758 2778.983666
232.230000 2770.491908 2773.187201 2776.119568 2775.743375 2778.124163 2779.992167
232.280000 2771.237948 2774.004320 2776.742441 2776.461115 2778.810435 2780.480270
232.330000 2772.191858 2774.820138 2777.398063 2777.173624 2779.472598 2780.953820
232.380000 2772.813089 2775.698064 2778.094643 2777.943329 2780.221588 2781.572539
232.430000 2773.742493 2776.645856 2778.925695 2778.734161 2780.922978 2782.285283
232.480000 2774.641282 2777.482427 2779.734720 2779.521621 2781.611471 2782.867427
232.530000 2775.664112 2778.447560 2780.462783 2780.296160 2782.341609 2783.605884
232.580000 2776.510513 2779.201885 2781.216777 2781.074306 2783.053245 2784.322449
232.630000 2777.310996 2780.074374 2781.984448 2781.885355 2783.811691 2785.120377
232.680000 2778.139136 2780.878599 2782.823614 2782.685610 2784.616737 2785.919109
232.730000 2779.074718 2781.563749 2783.625255 2783.456575 2785.356396 2786.736641
232.780000 2780.026378 2782.348486 2784.519161 2784.278403 2786.149076 2787.677589
232.830000 2781.180870 2783.188712 2785.318713 2785.093843 2786.906956 2788.509034
232.880000 2782.332605 2783.958994 2786.045550 2785.901700 2787.710136 2789.486991
232.980000 2783.797948 2785.601142 2787.397770 2787.386149 2789.089775 2790.780119
233.030000 2784.711760 2786.428468 2788.240635 2788.205353 2789.882500 2791.649870
233.080000 2785.528075 2787.427433 2789.099539 2789.094968 2790.821159 2792.376955
233.130000 2786.441706 2788.309842 2789.995706 2789.971017 2791.724415 2793.121601
233.180000 2787.343112 2789.131832 2790.855072 2790.815104 2792.608263 2793.837744
233.230000 2788.448671 2789.919183 2791.769320 2791.689000 2793.421303 2794.661478
233.280000 2789.330029 2790.876125 2792.667882 2792.568392 2794.222746 2795.558877
233.330000 2790.045782 2791.743358 2793.519623 2793.417417 2795.052835 2796.309359
233.380000 2790.906210 2792.714991 2794.487920 2794.314380 2795.800241 2797.218412
233.430000 2791.991750 2793.698271 2795.344975 2795.246515 2796.683203 2798.190281
233.480000 2792.989386 2794.720043 2796.334418 2796.231525 2797.624737 2799.146112
233.530000 2794.057397 2795.820689 2797.279676 2797.236776 2798.626997 2800.157573
233.575000 2795.239638 2796.754367 2798.035728 2798.065289 2799.464082 2800.943204
233.625000 2796.116840 2797.710321 2798.855002 2798.954316 2800.327138 2801.641786
233.675000 2797.281838 2798.631886 2799.760541 2799.846089 2801.215956 2802.586720
233.725000 2798.432748 2799.411955 2800.539177 2800.644990 2801.973564 2803.437562
233.775000 2799.270751 2800.166036 2801.280723 2801.386396 2802.634930 2804.105875
233.825000 2799.967312 2800.886772 2801.959651 2802.051372 2803.283735 2804.808314
233.875000 2800.727651 2801.559564 2802.611491 2802.721404 2803.932872 2805.532793
233.925000 2801.372243 2802.161434 2803.233114 2803.344610 2804.517285 2806.140466
233.975000 2801.999667 2802.821862 2803.810101 2803.954087 2805.117997 2806.608336
234.025000 2802.626448 2803.449395 2804.398709 2804.559266 2805.661142 2807.330904
234.075000 2803.218175 2804.069892 2805.003918 2805.167989 2806.248452 2808.081911
234.125000 2803.788677 2804.689472 2805.633768 2805.767902 2806.795618 2808.743670
234.175000 2804.445532 2805.297285 2806.230512 2806.373939 2807.397476 2809.343475
234.225000 2805.079806 2805.900979 2806.819644 2806.961878 2807.943374 2809.978088
234.275000 2805.756731 2806.510525 2807.419243 2807.558298 2808.546427 2810.493180
234.325000 2806.326853 2807.109391 2808.024037 2808.160181 2809.141073 2811.087627
234.375000 2806.890715 2807.696454 2808.622130 2808.772636 2809.750358 2811.752382
234.425000 2807.473974 2808.350453 2809.213127 2809.390408 2810.354105 2812.402125
234.475000 2808.135260 2808.945412 2809.858629 2810.032621 2811.034334 2813.029367
234.525000 2808.762481 2809.624838 2810.512296 2810.701861 2811.753454 2813.908439
234.575000 2809.373726 2810.299134 2811.192138 2811.411288 2812.596673 2814.566936
234.625000 2810.023071 2810.914020 2811.859090 2812.124669 2813.304792 2815.643115
234.725000 2811.288379 2812.198369 2813.213722 2813.771565 2814.737413 2821.412415
234.775000 2811.959599 2812.936427 2814.037735 2814.657044 2815.664480 2824.012597
234.825000 2812.781158 2813.789099 2814.990124 2815.711410 2816.854069 2826.768518
234.875000 2813.762491 2814.811712 2816.205572 2817.005104 2818.373582 2830.524797
234.925000 2814.792260 2816.068422 2817.869804 2818.639240 2820.373017 2831.642313
234.975000 2816.169766 2817.700779 2819.894130 2820.717568 2822.925789 2833.361729
235.025000 2817.991058 2819.784414 2822.205582 2823.146545 2825.937663 2834.514072
235.075000 2819.405151 2821.610319 2824.304915 2825.375291 2828.857752 2838.503454
235.125000 2820.712462 2823.436246 2826.971247 2827.793648 2831.647395 2840.542913
235.175000 2822.217885 2825.561394 2829.424450 2830.312100 2835.018769 2843.713762
235.225000 2823.868897 2827.706734 2832.088936 2832.809209 2838.056168 2846.358382
235.275000 2825.301862 2829.788625 2834.782975 2835.451280 2840.991608 2849.851432
235.325000 2827.036419 2831.696291 2837.686375 2838.253832 2844.788537 2852.979921
235.375000 2828.739853 2833.767925 2840.739592 2841.039613 2848.281354 2855.076290
235.425000 2830.109356 2836.084998 2843.974253 2843.885786 2851.257480 2857.045309
235.475000 2832.034951 2838.541196 2847.561816 2846.851255 2854.506339 2859.081001
235.525000 2834.472732 2841.666873 2850.829857 2849.683314 2856.971420 2860.612560
235.575000 2836.854670 2844.686133 2853.900168 2852.379480 2859.008956 2861.835035
235.625000 2839.821304 2848.219188 2856.405931 2854.882105 2860.829120 2863.380613
235.675000 2841.838086 2851.545095 2858.540787 2857.077509 2862.313599 2864.769957
235.725000 2844.927793 2854.308293 2860.389220 2859.115246 2863.683648 2866.369036
235.775000 2847.711601 2856.742565 2862.006032 2860.922248 2864.959043 2867.800161
235.825000 2850.167622 2858.845426 2863.502893 2862.614253 2866.252036 2868.945170
235.875000 2854.458504 2860.559811 2864.870335 2864.150425 2867.528924 2870.035443
235.925000 2856.483672 2862.523312 2866.311909 2865.742346 2868.866270 2871.476535
235.975000 2858.691435 2864.352019 2867.858164 2867.297439 2870.461865 2872.924437
236.025000 2861.085043 2866.195076 2869.272354 2868.858850 2871.842033 2874.238581
236.075000 2863.294311 2867.911978 2870.752793 2870.462946 2873.285720 2875.591207
236.125000 2865.176760 2869.501550 2872.523803 2872.221742 2874.997021 2877.331045
236.175000 2867.137545 2871.297025 2874.336973 2874.122025 2877.011291 2879.888760
236.225000 2868.966210 2872.938229 2875.907139 2875.885601 2878.762860 2882.555861
236.325000 2872.848929 2875.824455 2879.029663 2879.544673 2882.830659 2890.091379
236.375000 2874.439072 2877.625983 2880.922298 2881.527446 2885.157544 2892.150530
236.425000 2876.077005 2879.116310 2882.759391 2883.458732 2887.464501 2895.783736
236.475000 2877.350687 2880.622190 2884.713069 2885.445435 2889.812205 2898.877259
236.525000 2878.517468 2882.090789 2886.961892 2887.644432 2892.445094 2903.743536
236.630000 2880.854135 2884.937283 2892.268409 2894.239424 2905.132232 2913.090094
236.680000 2881.996692 2886.398604 2895.778587 2896.910767 2908.288871 2915.273897
236.750000 2883.418931 2888.617091 2902.479357 2901.123779 2912.660454 2918.223207
236.780000 2884.191468 2889.693560 2904.197696 2902.594300 2914.114788 2919.166599
236.850000 2885.703123 2892.726361 2909.973645 2906.962748 2916.958631 2921.509558
236.880000 2886.744140 2894.265488 2911.583050 2908.377544 2918.096154 2922.451143
236.950000 2888.832682 2899.839048 2915.010949 2911.955746 2920.561078 2923.822006
236.980000 2889.786251 2901.773311 2916.001143 2913.256484 2921.628681 2924.585347
237.050000 2892.959970 2909.132051 2918.646323 2916.595419 2923.741021 2926.675551
237.080000 2894.065497 2911.403437 2919.837020 2917.832687 2924.540690 2927.499260
237.150000 2898.093630 2916.547601 2922.318687 2920.766042 2926.376160 2928.995727
237.180000 2900.061066 2918.121701 2923.307845 2921.870497 2927.304698 2929.793502
237.230000 2902.109382 2919.807512 2924.755663 2923.532558 2928.664242 2930.965572
237.280000 2906.100048 2921.836034 2926.473950 2925.265459 2930.129281 2932.423383
237.330000 2907.842978 2923.485365 2928.033221 2926.930125 2931.502312 2933.979999
237.430000 2915.432138 2926.768083 2930.913583 2930.071108 2934.314774 2936.724336
237.480000 2917.106398 2928.408965 2932.464944 2931.722091 2935.744125 2938.073590
237.530000 2921.716899 2930.170244 2934.082209 2933.395953 2937.188535 2939.539806
237.580000 2924.222638 2932.055341 2935.804070 2935.163981 2938.767794 2940.921739
237.630000 2926.448428 2933.889392 2937.356158 2936.875327 2940.260380 2942.544274
237.680000 2929.690471 2935.750110 2938.929905 2938.587459 2941.825127 2944.384485
237.730000 2932.125073 2937.428632 2940.660177 2940.333092 2943.571541 2945.990190
237.780000 2934.166573 2939.003738 2942.415074 2942.063770 2945.208296 2948.188524
237.830000 2936.583284 2940.651378 2944.062803 2943.754908 2946.820362 2950.087374
237.930000 2940.774504 2944.034769 2947.428840 2947.199181 2950.115958 2953.241452
237.980000 2942.656321 2945.842685 2949.125096 2948.943947 2951.704008 2954.738257
238.030000 2944.551446 2947.823005 2950.982893 2950.709380 2953.485319 2956.398690
238.080000 2946.012242 2949.740119 2952.628037 2952.472702 2955.337386 2957.793761
238.130000 2948.166791 2951.762880 2954.203571 2954.291981 2957.205163 2959.329261
238.175000 2950.176434 2953.668442 2955.712803 2955.925184 2958.893359 2960.973741
238.190000 2950.958790 2954.212282 2956.266595 2956.481538 2959.408343 2961.552666
238.225000 2952.509767 2955.548968 2957.453393 2957.783100 2960.677720 2962.789702
238.240000 2953.267729 2956.082048 2957.953247 2958.339821 2961.277070 2963.288256
238.275000 2954.817031 2957.233725 2959.067380 2959.520938 2962.475806 2964.517833
238.290000 2955.425414 2957.747663 2959.558756 2960.061065 2963.015428 2965.055690
238.325000 2956.547594 2958.832501 2960.679440 2961.249159 2964.177160 2966.552258
238.340000 2957.546450 2959.408577 2961.253047 2961.835671 2964.702002 2967.450032
238.375000 2959.119177 2960.650201 2962.710656 2963.196637 2965.990549 2968.663913
238.390000 2959.756252 2961.185736 2963.377756 2963.769798 2966.554341 2969.247961
238.425000 2960.991957 2962.354897 2964.711853 2965.024163 2967.617275 2970.572545
238.440000 2961.426957 2962.882945 2965.274031 2965.563639 2968.173040 2971.280580
238.475000 2962.621385 2963.949717 2966.597610 2966.770783 2969.312627 2972.688580
238.525000 2963.886787 2965.391008 2968.293211 2968.393493 2971.145876 2975.052755
238.540000 2964.234662 2965.918870 2968.783260 2968.922915 2971.820451 2975.580520
238.575000 2965.300923 2966.909618 2970.011236 2970.139671 2973.129593 2977.169624
238.590000 2965.814685 2967.388256 2970.557775 2970.695798 2973.737017 2977.730522
238.625000 2966.919542 2968.592204 2971.708754 2972.001077 2975.205370 2980.486335
238.640000 2967.373658 2969.127600 2972.193924 2972.586296 2975.922160 2980.980633
238.690000 2969.025997 2970.868781 2973.867897 2974.564846 2978.254742 2984.720919
238.725000 2970.254789 2972.294922 2975.228139 2976.047853 2979.965282 2986.849497
238.740000 2970.844826 2972.896710 2975.796105 2976.667462 2980.637270 2987.520289
238.775000 2972.037228 2974.497363 2977.211612 2978.151589 2982.103437 2988.972126
238.790000 2972.649869 2975.128490 2977.768531 2978.785190 2982.929062 2989.688197
238.825000 2973.782501 2976.586012 2979.161813 2980.293345 2984.654599 2991.277705
238.840000 2974.266872 2977.145967 2979.771156 2980.916254 2985.156525 2991.745666
238.875000 2975.524234 2978.558438 2981.286801 2982.474872 2987.281554 2993.231177
238.890000 2976.200802 2979.109309 2981.886047 2983.118550 2987.879363 2993.844602
238.925000 2978.244452 2980.543017 2983.612955 2984.684731 2989.718352 2995.050219
238.940000 2978.673454 2981.021447 2984.241807 2985.307663 2990.494807 2995.550016
238.975000 2980.213085 2982.158431 2985.830970 2986.730773 2992.184102 2996.838774
238.990000 2980.882909 2982.617301 2986.483156 2987.337375 2992.954481 2997.442338
239.025000 2982.240803 2983.625303 2988.264289 2988.746064 2994.705554 2999.176756
239.040000 2982.681887 2984.061894 2988.884575 2989.341761 2995.394574 2999.802309
239.075000 2983.781363 2985.027809 2990.334329 2990.696327 2996.967319 3001.175783
239.090000 2984.222669 2985.444325 2990.996275 2991.263061 2997.620219 3001.969046
239.125000 2985.130608 2986.381352 2992.412485 2992.706246 2999.405005 3003.681554
239.140000 2985.593684 2986.818287 2993.117180 2993.324611 2999.979830 3004.287196
239.180000 2986.587670 2987.877033 2994.618259 2994.957215 3002.100396 3006.986265
239.190000 2986.887522 2988.185807 2995.023875 2995.358374 3002.528139 3007.321791
239.230000 2987.916585 2989.346597 2996.819032 2997.096227 3004.774609 3009.053682
239.240000 2988.196035 2989.599181 2997.255101 2997.513875 3005.223529 3009.738791
239.280000 2989.299468 2990.856791 2999.252744 2999.401599 3007.192878 3011.724121
239.290000 2989.603579 2991.255457 2999.633574 2999.849455 3007.628100 3012.153610
239.330000 2990.666432 2992.540895 3001.524920 3001.766477 3010.100532 3013.585167
239.340000 2990.913901 2993.044401 3001.948176 3002.210188 3010.609231 3013.940389
239.380000 2992.025367 2994.764341 3004.073710 3004.067506 3012.656511 3015.463565
239.390000 2992.318260 2995.160663 3004.638723 3004.503893 3013.049449 3015.717270
239.430000 2993.347286 2997.053544 3006.959103 3006.288908 3014.697726 3016.894160
239.480000 2994.785458 2999.834303 3009.624318 3008.706729 3016.613985 3018.482795
239.490000 2995.247617 3000.382310 3010.094120 3009.150882 3016.948532 3018.844404
239.530000 2996.568169 3002.696914 3012.287472 3011.110732 3018.194902 3020.617767
239.540000 2996.932198 3003.223831 3012.773883 3011.557783 3018.597729 3021.068508
239.580000 2998.659123 3005.856131 3014.880221 3013.509848 3019.862120 3022.315011
239.590000 2999.306566 3006.445813 3015.278005 3013.942683 3020.138802 3022.574522
239.630000 3001.378076 3008.817176 3017.263614 3015.822701 3021.412419 3023.771184
239.680000 3004.055674 3012.873475 3019.781539 3018.196610 3022.885868 3025.059963
239.690000 3004.478457 3013.383232 3020.364600 3018.597945 3023.198123 3025.302668
239.730000 3006.385422 3015.281107 3022.000018 3020.247810 3024.316917 3026.438771
239.740000 3007.060199 3015.773837 3022.398201 3020.635986 3024.611521 3026.690955
239.780000 3010.030157 3017.560974 3023.885653 3022.170097 3025.946091 3027.867914
239.790000 3010.458361 3018.033728 3024.143941 3022.534693 3026.274778 3028.196785
239.830000 3013.077484 3019.742994 3025.389037 3023.933542 3027.496843 3029.439230
239.840000 3013.388575 3020.138301 3025.721843 3024.299220 3027.820669 3029.752600
239.880000 3015.839701 3022.155748 3026.876102 3025.751391 3028.950412 3031.337314
239.890000 3016.169354 3022.639027 3027.160736 3026.114006 3029.266589 3031.848190
239.930000 3018.484026 3024.313537 3028.322630 3027.501070 3030.346923 3033.170533
239.940000 3018.901353 3024.824882 3028.608787 3027.857053 3030.700492 3033.674246
239.980000 3020.354447 3026.399637 3029.764080 3029.171337 3031.734081 3034.859438
239.990000 3020.871485 3026.817578 3030.086855 3029.517929 3032.031819 3035.185492
240.040000 3023.292495 3028.639026 3031.404128 3031.083788 3033.211476 3037.336562
240.080000 3024.843062 3030.241233 3032.529834 3032.354850 3034.196864 3039.325204
240.090000 3025.231763 3030.623314 3032.862700 3032.698543 3034.519798 3039.713347
240.130000 3027.322056 3032.167992 3034.181256 3034.038616 3035.517724 3041.407845
240.140000 3027.734186 3032.674212 3034.530132 3034.397250 3035.814144 3041.690661
240.180000 3029.533678 3034.051469 3035.729711 3035.736418 3036.913456 3044.239458
240.190000 3030.120355 3034.410594 3036.058220 3036.085665 3037.219897 3044.679602
240.230000 3032.349632 3035.717730 3037.220640 3037.392101 3038.271579 3046.387300
240.240000 3032.645948 3036.045604 3037.520162 3037.727166 3038.586654 3046.791847
240.280000 3034.008198 3037.451163 3038.588313 3038.955012 3039.644669 3047.933020
240.290000 3034.425730 3037.796412 3038.895432 3039.277916 3039.967555 3048.272391
240.330000 3036.101312 3038.969201 3039.960430 3040.466660 3041.058189 3049.666630
240.340000 3036.433642 3039.317727 3040.251192 3040.791239 3041.334728 3050.044213
240.380000 3037.900078 3040.380452 3041.288519 3041.946212 3042.497831 3051.448548
240.390000 3038.259913 3040.693839 3041.588261 3042.255465 3042.751847 3051.812189
240.430000 3039.514704 3041.725684 3042.599943 3043.362074 3043.911231 3053.427765
240.440000 3039.800605 3042.021672 3042.878518 3043.665749 3044.293567 3053.877043
