depth(m) lower_95(kyr) lower_68(kyr) median(kyr) mean(kyr) upper_68(kyr) upper_95(kyr)
149.760000 1492.592977 1496.741201 1499.622159 1499.398928 1502.079601 1504.199835
149.885000 1495.088798 1498.475771 1501.236703 1500.963466 1503.325191 1505.438489
150.010000 1497.522997 1500.368598 1502.815875 1502.577349 1504.797945 1506.643241
150.135000 1499.943523 1502.185956 1504.354047 1504.225135 1506.311778 1507.880187
150.260000 1502.152804 1504.023601 1505.901845 1505.871935 1507.813182 1509.289333
150.380000 1503.639997 1505.415526 1507.394198 1507.335404 1509.224392 1510.683463
150.510000 1505.139980 1507.047402 1508.886371 1508.845592 1510.567323 1512.116473
150.650000 1506.883529 1508.799499 1510.625920 1510.537980 1512.272951 1513.593053
150.790000 1508.769089 1510.623633 1512.389750 1512.279836 1513.939439 1515.375207
150.915000 1510.220675 1512.064460 1513.866580 1513.774081 1515.475061 1516.849651
151.040000 1512.154160 1513.505149 1515.352825 1515.263191 1516.890983 1518.322931
151.165000 1513.410212 1515.005070 1516.533884 1516.558699 1518.140711 1519.636362
151.290000 1514.759418 1516.314704 1517.850174 1517.851975 1519.487077 1520.992966
151.415000 1515.795636 1517.503151 1519.013147 1519.065630 1520.696143 1522.369035
151.540000 1517.143903 1518.736898 1520.254839 1520.334778 1521.996846 1523.741433
151.665000 1518.481187 1519.985998 1521.598473 1521.687377 1523.452154 1525.303336
151.790000 1519.835650 1521.400403 1523.130672 1523.216030 1525.166862 1527.098341
151.915000 1521.275088 1523.171801 1525.086545 1525.141765 1527.195259 1529.191231
152.040000 1523.290382 1525.151286 1527.192353 1527.112562 1529.077909 1530.880633
152.165000 1525.274579 1527.237958 1529.357847 1529.235070 1531.182119 1532.891206
152.290000 1527.277285 1529.253906 1531.256282 1531.118142 1532.937994 1534.427501
152.415000 1529.021761 1530.830248 1532.594822 1532.553080 1534.299779 1535.584052
152.540000 1530.482299 1532.286961 1533.895751 1533.830814 1535.371677 1536.668362
152.665000 1531.586609 1533.405127 1534.993091 1534.910630 1536.481770 1537.745995
152.790000 1532.954047 1534.458084 1535.968296 1535.935042 1537.454529 1538.602753
152.915000 1533.953281 1535.501120 1536.958180 1536.919618 1538.368985 1539.443075
153.040000 1535.134544 1536.540365 1537.930859 1537.915211 1539.323922 1540.421851
153.165000 1536.172694 1537.546733 1538.911687 1538.897243 1540.263868 1541.416771
153.290000 1537.171573 1538.554424 1539.890206 1539.876888 1541.198560 1542.394738
153.415000 1538.355404 1539.603025 1540.942208 1540.923366 1542.219050 1543.636793
153.540000 1539.463034 1540.694280 1542.028716 1542.040937 1543.328901 1544.750931
153.665000 1540.658123 1541.900434 1543.211784 1543.297813 1544.676123 1546.107528
153.790000 1542.069078 1543.178752 1544.543254 1544.593689 1546.054144 1547.551086
153.915000 1543.298132 1544.464691 1545.931742 1545.981224 1547.444096 1549.051185
154.040000 1544.626015 1545.747067 1547.361340 1547.378328 1548.886461 1550.721008
154.165000 1545.839554 1547.027124 1548.677634 1548.738898 1550.330976 1552.239899
154.290000 1547.006489 1548.454563 1550.029716 1550.086243 1551.836610 1553.714353
154.415000 1548.333769 1549.731951 1551.441671 1551.505202 1553.182261 1555.000420
154.540000 1549.723319 1551.168131 1552.816430 1552.909508 1554.683646 1556.497578
154.665000 1550.939502 1552.387024 1554.186753 1554.204917 1555.974937 1557.822290
154.790000 1552.009476 1553.586782 1555.459742 1555.463268 1557.299901 1559.047436
154.915000 1553.145961 1554.762185 1556.670671 1556.659433 1558.460343 1560.096518
155.040000 1554.280520 1555.994987 1557.983149 1557.860391 1559.641567 1560.941608
155.165000 1555.509190 1557.341723 1559.221022 1559.054531 1560.711221 1561.992308
155.290000 1556.693383 1558.643445 1560.389852 1560.233052 1561.754687 1562.958371
155.425000 1558.300729 1560.045752 1561.578646 1561.453922 1562.866090 1564.024732
155.560000 1559.874253 1561.381507 1562.711138 1562.666687 1563.970270 1565.053661
155.675000 1561.159925 1562.494376 1563.699976 1563.668929 1564.861413 1566.016024
155.790000 1562.411590 1563.571906 1564.676383 1564.734410 1565.937251 1567.035908
155.820000 1562.770451 1563.872545 1565.000589 1565.046209 1566.210021 1567.420197
155.930000 1563.853863 1565.025294 1566.258109 1566.290226 1567.621894 1568.763651
156.040000 1565.046492 1566.205193 1567.526986 1567.563371 1568.880427 1570.521100
156.143333 1566.129660 1567.397346 1568.853675 1568.870884 1570.310887 1571.968322
156.246667 1567.306197 1568.685808 1570.164970 1570.187230 1571.678827 1573.206322
156.350000 1568.275553 1569.964764 1571.467174 1571.412546 1572.893403 1574.265835
156.470000 1569.492653 1571.138912 1572.540157 1572.544621 1573.976352 1575.113407
156.590000 1570.802393 1572.268080 1573.585639 1573.602531 1575.018308 1576.289992
156.710000 1571.855075 1573.241110 1574.574295 1574.575870 1575.969539 1577.203004
156.830000 1572.884664 1574.205474 1575.565459 1575.511428 1576.849867 1577.964092
156.950000 1573.842675 1575.090979 1576.513290 1576.437472 1577.711727 1578.955726
157.070000 1574.751464 1576.002747 1577.427881 1577.374859 1578.678405 1579.899939
157.195000 1575.627638 1577.038506 1578.331236 1578.321693 1579.616392 1581.094982
157.320000 1576.732937 1578.014563 1579.272315 1579.319179 1580.625180 1582.147003
157.445000 1577.700983 1578.989033 1580.313785 1580.371779 1581.751835 1583.331791
157.570000 1578.698075 1580.049895 1581.407829 1581.471575 1582.910826 1584.711551
157.710000 1579.769636 1581.120009 1582.626468 1582.730573 1584.381602 1586.074992
157.850000 1580.915772 1582.329165 1583.866034 1584.043765 1585.745991 1588.022492
157.970000 1582.099073 1583.600951 1585.208345 1585.327352 1587.142181 1589.182932
158.090000 1583.193914 1584.859702 1586.545600 1586.616015 1588.525246 1590.551982
158.210000 1584.306411 1586.008988 1587.831751 1587.865878 1589.777602 1591.768175
158.330000 1585.593748 1587.254596 1589.121192 1589.158305 1591.093322 1592.934456
158.450000 1586.628885 1588.531801 1590.461075 1590.415783 1592.303523 1594.166960
158.570000 1587.845079 1589.889349 1591.730193 1591.685338 1593.542180 1595.216511
158.695000 1589.222260 1591.188894 1593.085114 1593.027919 1594.798915 1596.295935
158.820000 1590.630966 1592.616860 1594.415241 1594.367084 1596.135994 1597.742406
158.945000 1592.220164 1593.978382 1595.727697 1595.659419 1597.284705 1599.036352
159.070000 1593.404569 1595.266565 1596.935188 1596.829510 1598.397173 1599.985351
159.210000 1594.941113 1596.614737 1598.164077 1598.112300 1599.578315 1600.973507
159.350000 1596.447772 1597.950359 1599.417597 1599.381553 1600.789866 1602.235801
159.470000 1597.623067 1598.962443 1600.371960 1600.379946 1601.813313 1603.236491
159.590000 1598.717040 1600.138722 1601.403448 1601.427394 1602.805034 1604.173346
159.710000 1599.728587 1600.990682 1602.327397 1602.375736 1603.725637 1605.263530
159.830000 1600.644163 1601.935649 1603.295121 1603.334043 1604.719387 1606.171155
159.950000 1601.532070 1602.878363 1604.412752 1604.366699 1605.782985 1607.152434
160.070000 1602.506803 1603.940046 1605.490288 1605.425936 1606.870627 1608.282611
160.195000 1603.586836 1605.172269 1606.694061 1606.670086 1608.170229 1609.575739
160.320000 1604.831859 1606.395649 1607.960254 1607.966783 1609.526747 1611.277273
160.430000 1606.091792 1607.517742 1609.045289 1609.101292 1610.666062 1612.404974
160.540000 1607.309532 1608.595834 1610.198921 1610.251479 1611.861485 1613.528569
160.643333 1608.326603 1609.642921 1611.218657 1611.307783 1612.988236 1614.559243
160.746667 1609.314511 1610.798450 1612.343381 1612.373134 1613.991167 1615.600341
160.850000 1610.481170 1611.714023 1613.395338 1613.412840 1615.049595 1616.745048
160.945000 1611.417771 1612.725029 1614.332151 1614.403222 1616.115182 1617.758535
161.040000 1612.388058 1613.752357 1615.225963 1615.356309 1617.084987 1618.659543
161.185000 1613.819349 1615.171812 1616.762189 1616.882204 1618.607354 1620.505642
161.330000 1615.044032 1616.539065 1618.228539 1618.357797 1620.126580 1622.147281
161.452500 1616.257420 1617.799744 1619.603188 1619.674330 1621.556630 1623.542488
161.575000 1617.585652 1619.049511 1620.942757 1620.995000 1622.873123 1624.753212
161.697500 1618.808531 1620.355547 1622.222831 1622.299942 1624.239264 1626.328416
161.820000 1620.147503 1621.632678 1623.621857 1623.611100 1625.401037 1627.670680
161.945000 1621.325995 1623.125740 1624.974285 1624.979304 1626.782006 1628.808465
162.070000 1622.664288 1624.569673 1626.406813 1626.356217 1628.032776 1630.133958
162.155000 1623.790252 1625.453004 1627.313411 1627.328978 1629.133366 1631.100770
162.240000 1624.840029 1626.361170 1628.273835 1628.285434 1630.127252 1632.054394
162.365000 1626.095351 1627.857201 1629.713587 1629.723465 1631.593505 1633.349644
162.490000 1627.546210 1629.221309 1631.104173 1631.090810 1632.952870 1634.778099
162.625000 1628.890994 1630.604536 1632.475038 1632.510830 1634.394498 1636.501433
162.760000 1630.032208 1631.907611 1633.927145 1633.944894 1635.930471 1638.218388
162.880000 1631.287767 1633.138637 1635.179487 1635.235303 1637.340741 1639.437316
163.000000 1632.796700 1634.399077 1636.501981 1636.601912 1638.795737 1640.885029
163.130000 1633.974749 1635.908404 1638.202907 1638.243184 1640.535028 1642.810786
163.260000 1635.467676 1637.401328 1639.925182 1639.970023 1642.521111 1644.961847
163.400000 1637.106483 1639.361579 1641.895191 1641.992710 1644.732476 1646.943661
163.540000 1638.825618 1641.446039 1644.138233 1644.126309 1646.945622 1648.759871
163.645000 1640.620364 1643.188361 1645.934500 1645.918135 1648.659332 1650.840243
163.750000 1642.480012 1645.135473 1647.728985 1647.678722 1650.216604 1652.214834
163.880000 1644.457985 1647.157040 1649.857203 1649.717766 1652.101164 1654.206543
164.010000 1646.698212 1649.189456 1651.744245 1651.646529 1653.988713 1656.013396
164.135000 1648.687372 1651.013468 1653.365533 1653.329957 1655.697199 1658.008429
164.260000 1650.303793 1652.715476 1654.993303 1654.961447 1657.292298 1659.621031
164.385000 1651.936895 1654.350360 1656.505183 1656.535551 1658.776661 1661.116584
164.510000 1653.892147 1655.950572 1658.144705 1658.122419 1660.350717 1662.672965
164.625000 1655.172770 1657.374228 1659.614603 1659.701077 1661.937860 1664.178580
164.740000 1656.792679 1658.874163 1661.274286 1661.302800 1663.717637 1665.872316
164.850000 1657.985686 1660.270325 1662.897862 1662.943979 1665.488697 1668.318705
164.960000 1659.123181 1661.824272 1664.511913 1664.607646 1667.459136 1670.157681
