depth(m) lower_95(kyr) lower_68(kyr) median(kyr) mean(kyr) upper_68(kyr) upper_95(kyr)
61.800000 1500.832740 1503.566244 1506.426415 1506.066565 1508.415263 1510.054422
61.900000 1502.748591 1505.271420 1507.844304 1507.587514 1509.772276 1511.328827
61.980000 1503.902548 1506.771222 1509.132831 1508.922313 1510.943911 1512.434369
62.100000 1506.801205 1509.454266 1511.369056 1511.198272 1512.950097 1514.245805
62.200000 1510.458067 1512.250652 1513.730327 1513.669003 1515.191838 1516.630378
62.300000 1512.581106 1514.157342 1515.567809 1515.617851 1517.195296 1518.597066
62.400000 1514.224979 1515.597782 1517.121232 1517.137054 1518.680973 1520.131104
62.500000 1515.750207 1517.086268 1518.614954 1518.635227 1520.141891 1521.445651
62.600000 1517.127310 1518.503744 1520.164189 1520.128588 1521.659831 1523.031524
62.700000 1518.750897 1520.247228 1521.933596 1521.886714 1523.479277 1525.166481
62.800000 1520.439086 1522.328231 1524.131938 1524.112637 1525.917318 1527.742646
62.900000 1523.222602 1525.005482 1526.949107 1526.957508 1528.904040 1530.585684
63.000000 1526.393673 1528.273242 1530.227854 1530.280418 1532.131440 1534.212258
63.100000 1529.512870 1531.444621 1533.326230 1533.426478 1535.418807 1537.705068
63.200000 1532.627569 1534.412197 1536.529982 1536.528980 1538.593798 1540.601661
63.300000 1535.801635 1537.998630 1540.104726 1540.060912 1542.131067 1544.176870
63.400000 1541.243502 1543.054983 1544.828937 1544.895704 1546.616081 1548.885393
63.480000 1544.110763 1545.900344 1547.784645 1547.927572 1549.989584 1552.392732
63.590000 1547.035604 1548.710905 1550.718973 1550.900363 1553.155437 1555.582420
63.700000 1549.928008 1551.359236 1553.294351 1553.540069 1555.769354 1558.355735
63.800000 1552.130225 1553.498227 1555.620851 1555.766767 1558.076283 1560.120902
63.900000 1554.262220 1555.653795 1557.935429 1557.933106 1560.172012 1561.609428
64.000000 1556.273993 1557.829602 1560.155131 1560.094133 1562.205162 1563.940554
64.100000 1558.479151 1560.570968 1562.408834 1562.379918 1564.226870 1565.871804
64.200000 1561.122627 1562.984341 1564.794659 1564.730944 1566.507110 1568.194017
64.300000 1563.705272 1565.893445 1567.679585 1567.716639 1569.641113 1571.243156
64.400000 1568.435537 1570.247240 1572.216421 1572.218399 1574.126937 1576.097035
64.500000 1572.193957 1574.311630 1576.034549 1576.004771 1577.788159 1579.417025
64.600000 1575.727470 1577.939918 1579.752911 1579.646180 1581.320917 1582.645402
64.620000 1576.328751 1578.621322 1580.461074 1580.340362 1582.013613 1583.305587
64.700000 1578.828605 1580.929208 1582.584614 1582.560567 1584.216965 1585.860143
64.800000 1581.975451 1583.642519 1585.284114 1585.385132 1587.099370 1589.131352
64.900000 1585.339374 1586.820874 1588.502516 1588.722737 1590.704383 1593.007741
64.980000 1587.638869 1589.008734 1590.940695 1591.100823 1593.293187 1595.327126
65.000000 1588.185953 1589.563170 1591.521780 1591.693358 1593.897462 1595.810559
65.100000 1590.571991 1591.998642 1594.110010 1594.012251 1595.931728 1597.301149
65.200000 1593.053689 1594.781585 1596.572800 1596.410347 1597.930829 1598.927805
65.300000 1595.914365 1597.439840 1598.716867 1598.686396 1599.917691 1601.364343
65.400000 1598.541229 1599.580421 1600.586386 1600.639831 1601.725866 1602.994518
65.500000 1600.290144 1601.163729 1602.197026 1602.242372 1603.306064 1604.460989
65.570000 1601.338431 1602.206974 1603.340112 1603.376379 1604.483387 1605.879555
65.600000 1601.868808 1602.783665 1603.883540 1603.939274 1605.044180 1606.586178
65.700000 1603.457091 1604.650606 1605.839890 1605.993985 1607.355203 1609.288335
65.800000 1605.101117 1606.525888 1607.972022 1608.464136 1610.537622 1614.250785
65.900000 1607.260400 1608.960101 1611.377004 1612.026884 1615.322936 1619.352127
65.980000 1609.460016 1611.546796 1615.319920 1615.297303 1619.028327 1621.707243
66.000000 1609.991215 1612.122694 1616.217604 1616.105959 1619.895358 1622.186901
66.080000 1612.233542 1615.415526 1619.193550 1618.952936 1622.187785 1624.566871
66.200000 1616.488483 1619.485274 1622.492553 1622.314710 1625.151400 1627.305398
66.300000 1619.526932 1622.238300 1624.877448 1624.841818 1627.441632 1630.052886
66.400000 1622.235109 1624.681750 1627.210331 1627.180420 1629.670367 1632.409882
66.500000 1624.596913 1626.945801 1629.636242 1629.569854 1632.203520 1634.531690
66.600000 1626.883550 1629.224706 1631.944392 1631.919536 1634.617173 1637.008858
66.700000 1629.392280 1631.771817 1634.172558 1634.326671 1636.833053 1639.845785
66.800000 1631.990534 1634.278355 1636.946133 1637.172003 1640.099805 1643.551502
66.900000 1635.024472 1638.040942 1641.346121 1641.594658 1645.167054 1648.845568
67.000000 1640.199702 1642.870770 1646.652078 1646.774976 1650.629151 1654.215086
67.080000 1643.482671 1646.313051 1649.908270 1650.009830 1653.748932 1656.849088
67.200000 1647.689892 1650.741717 1654.049172 1653.945012 1657.293950 1659.680670
67.300000 1650.916282 1653.715972 1656.828726 1656.674156 1659.705644 1661.531837
67.400000 1653.882596 1656.535511 1659.348749 1659.138628 1661.707280 1663.434278
67.500000 1656.373749 1658.955466 1661.552347 1661.280762 1663.437906 1664.836942
67.600000 1658.685599 1661.190527 1663.580534 1663.236486 1665.088732 1666.234222
67.700000 1660.983760 1663.358279 1665.405814 1665.085418 1666.637557 1667.757213
67.800000 1663.483635 1665.386381 1666.996618 1666.839892 1668.220905 1669.386281
67.900000 1666.430632 1667.620842 1668.816033 1668.791144 1669.992841 1671.104063
68.000000 1668.415176 1669.571335 1670.688017 1670.719829 1671.902796 1673.011031
68.100000 1671.054373 1672.215242 1673.461375 1673.526287 1674.845871 1676.384560
68.180000 1673.140940 1674.379837 1675.905017 1676.050901 1677.736289 1679.394914
68.200000 1673.614201 1674.857555 1676.577934 1676.613409 1678.306291 1680.194076
68.300000 1675.693001 1677.253367 1679.082126 1679.080963 1680.801099 1682.878226
68.400000 1677.686925 1679.443137 1681.451123 1681.452947 1683.446019 1685.504086
68.500000 1679.920339 1681.788711 1684.049490 1684.097214 1686.140827 1688.590325
68.600000 1682.416939 1684.615497 1686.918851 1686.936612 1689.278774 1691.676492
68.700000 1684.703397 1687.044178 1689.390680 1689.393788 1691.766145 1693.992044
68.800000 1687.246971 1689.452037 1691.850274 1691.796792 1694.137892 1695.873064
68.900000 1689.725989 1691.849187 1694.255953 1694.103238 1696.254763 1697.850648
69.000000 1692.268075 1694.641168 1696.661202 1696.602938 1698.539007 1700.152097
69.100000 1694.837618 1697.117833 1698.926238 1698.838250 1700.627063 1702.256846
69.200000 1697.271678 1699.127326 1700.670106 1700.679416 1702.268086 1703.842112
69.300000 1699.140166 1700.708915 1702.278020 1702.264276 1703.862882 1705.210093
69.410000 1700.844041 1702.334314 1703.907447 1703.926799 1705.463239 1706.823016
69.500000 1702.148361 1703.869614 1705.372680 1705.428150 1706.919853 1708.863296
69.600000 1703.834903 1705.578272 1707.366294 1707.431134 1709.228305 1711.563466
69.680000 1705.419999 1707.089881 1708.939986 1709.120563 1711.371113 1714.043707
69.800000 1707.863468 1709.622523 1711.896194 1712.164251 1714.585803 1718.140673
69.900000 1710.109623 1712.253080 1715.007606 1715.138911 1718.219717 1720.875376
70.000000 1712.177544 1714.996906 1718.349247 1718.149627 1721.074299 1723.646783
70.100000 1714.542323 1717.790661 1721.130600 1720.794516 1723.584601 1726.376130
70.200000 1717.402681 1720.491034 1723.437180 1723.142344 1725.592494 1727.991862
70.310000 1720.212307 1723.043372 1725.449861 1725.318005 1727.476530 1729.884410
70.400000 1722.228627 1724.945603 1727.118757 1727.067161 1729.123323 1731.410517
70.500000 1724.351008 1726.877554 1729.005539 1728.982104 1731.166225 1733.445480
70.600000 1726.522315 1728.628296 1730.874320 1731.016281 1733.466180 1736.316719
70.700000 1728.321931 1730.689232 1732.957559 1733.219488 1735.851848 1739.039694
70.800000 1730.114895 1732.650755 1735.369218 1735.525052 1738.509996 1741.583834
70.900000 1732.271608 1734.821888 1737.911090 1737.855051 1740.994042 1743.585253
71.000000 1734.839706 1737.380890 1740.299919 1740.280055 1743.191675 1745.465795
71.100000 1737.405250 1739.997273 1742.809875 1742.703954 1745.334099 1747.369109
71.180000 1739.493927 1742.140043 1744.694869 1744.525318 1746.906912 1748.865092
71.300000 1742.099654 1744.531349 1747.070195 1746.845156 1749.084320 1751.270461
71.400000 1743.978897 1746.630524 1748.964831 1748.910312 1751.247389 1753.471560
71.475000 1745.313099 1748.114431 1750.590939 1750.644179 1753.173638 1755.387254
71.550000 1747.483931 1749.931445 1752.496695 1752.475990 1755.103034 1757.424874
71.650000 1749.721415 1752.504702 1755.149722 1755.165311 1758.044504 1760.869797
71.750000 1752.631705 1755.153561 1757.784826 1757.888191 1760.791080 1763.611430
71.800000 1753.934142 1756.621477 1759.218369 1759.319182 1762.117091 1764.552638
71.875000 1756.093340 1758.727125 1761.342756 1761.366791 1764.056581 1766.485107
71.950000 1758.189533 1760.752450 1763.466701 1763.390233 1766.047055 1768.122142
72.025000 1760.362551 1762.681192 1765.636211 1765.419635 1767.857279 1769.767721
72.100000 1762.177493 1764.794477 1767.626070 1767.391686 1769.756445 1771.774676
72.175000 1764.187160 1766.889128 1769.396090 1769.186857 1771.477039 1773.513261
72.250000 1766.287127 1768.648114 1771.166618 1770.997417 1773.241405 1775.320480
72.325000 1768.198851 1770.436456 1772.870855 1772.752364 1774.863704 1777.134563
72.400000 1770.009924 1772.433251 1774.653025 1774.582905 1776.677094 1778.500605
72.500000 1772.847245 1775.299164 1777.407923 1777.309213 1779.416691 1781.125683
72.600000 1776.327113 1778.475185 1780.544889 1780.501602 1782.499881 1784.274343
72.680000 1778.851915 1780.861238 1783.046504 1782.886461 1784.829151 1786.383320
72.800000 1782.442339 1784.108741 1785.968014 1785.871707 1787.622319 1788.945852
72.900000 1784.855752 1786.358992 1788.033326 1787.944262 1789.433221 1790.682052
73.000000 1786.639899 1788.508815 1789.788826 1789.727469 1791.040505 1792.048439
73.100000 1788.920909 1790.248162 1791.306745 1791.264554 1792.295330 1793.279899
73.200000 1790.939134 1791.897126 1792.716106 1792.721411 1793.580576 1794.360961
73.300000 1792.118223 1793.046509 1794.006893 1794.043004 1795.046350 1796.217177
73.400000 1793.203923 1794.212909 1795.316850 1795.391049 1796.555041 1797.945123
73.500000 1794.368978 1795.531056 1796.874622 1796.991711 1798.450472 1800.569136
73.600000 1795.821973 1797.220432 1798.826086 1799.057496 1800.790857 1803.809926
73.700000 1797.709591 1799.414229 1801.321350 1801.686710 1804.160603 1807.382323
73.800000 1800.446293 1802.129212 1804.629408 1804.932572 1807.666591 1811.994692
73.900000 1802.497034 1804.683124 1807.615042 1807.832669 1810.945305 1815.423100
74.000000 1804.795003 1807.346092 1810.365934 1810.670073 1814.091255 1818.526412
74.100000 1807.159027 1809.915133 1813.691263 1813.800918 1817.446229 1821.645501
74.180000 1809.266519 1812.606226 1816.393113 1816.491599 1820.395021 1824.243758
74.300000 1812.473028 1816.742854 1820.422627 1820.478512 1824.398082 1827.777201
74.400000 1815.054612 1820.148074 1824.066325 1823.804045 1827.464595 1830.681633
74.500000 1818.164279 1823.462008 1827.373751 1826.990587 1830.410555 1833.094217
74.600000 1821.971275 1826.704803 1830.319874 1829.948760 1833.282763 1835.332517
74.700000 1825.031871 1829.782392 1833.028184 1832.631217 1835.531023 1837.306308
74.800000 1828.664356 1832.432939 1835.504666 1835.056824 1837.578207 1839.150704
74.900000 1831.687422 1835.090055 1837.569735 1837.203273 1839.369575 1840.727930
75.000000 1834.644004 1837.427453 1839.414813 1839.170799 1840.972909 1842.350865
75.100000 1837.251371 1839.322261 1841.043857 1840.876243 1842.431918 1843.613237
75.200000 1839.388723 1841.270254 1842.647643 1842.529884 1843.831075 1845.025396
75.300000 1842.494469 1843.379560 1844.402894 1844.376975 1845.304823 1846.290933
75.400000 1844.284210 1845.443531 1846.774243 1847.148258 1848.785010 1852.366385
75.500000 1845.928357 1847.377511 1849.241980 1849.846885 1852.580975 1856.024083
75.600000 1847.673582 1849.571491 1851.946686 1852.522870 1855.817495 1859.560133
75.680000 1849.783866 1851.802579 1854.566379 1855.008891 1858.500965 1862.221030
75.800000 1853.552074 1855.829093 1858.834689 1859.002911 1862.087321 1865.404916
75.900000 1856.977467 1859.607496 1862.651083 1862.557490 1865.487456 1867.979792
76.000000 1860.375023 1862.992397 1865.865569 1865.733519 1868.549273 1870.547072
76.050000 1861.978677 1864.609410 1867.436136 1867.260522 1869.932599 1871.499659
76.100000 1863.539337 1866.183929 1869.032198 1868.763084 1871.172972 1872.726567
76.200000 1867.487308 1869.929639 1871.924695 1871.654519 1873.305202 1874.536554
76.300000 1872.534089 1873.486202 1874.357543 1874.367847 1875.260361 1876.182505
76.400000 1873.917130 1874.886905 1875.920684 1876.020000 1877.097087 1878.659134
76.500000 1875.213972 1876.193382 1877.354461 1877.519981 1878.852531 1880.797648
76.600000 1876.376365 1877.370987 1878.710710 1878.908256 1880.415564 1882.503990
76.700000 1877.538760 1878.629453 1880.137121 1880.339430 1882.143998 1884.288924
76.800000 1878.758240 1879.987166 1881.712528 1881.902962 1883.909573 1885.920612
76.890000 1879.828186 1881.263087 1883.449625 1883.499970 1885.644858 1887.624533
77.000000 1881.491160 1883.512805 1885.836585 1885.748259 1888.008142 1889.595066
77.100000 1883.167097 1885.609746 1888.079954 1887.845222 1889.955718 1891.490839
77.200000 1885.626656 1887.871110 1890.225909 1889.943363 1891.850601 1893.202062
77.280000 1887.936819 1889.987099 1891.760099 1891.577941 1893.095002 1894.439934
77.400000 1891.242239 1892.718320 1893.980558 1893.923657 1895.152042 1896.159939
77.410000 1891.511727 1892.959783 1894.177383 1894.126976 1895.347051 1896.277308
77.490000 1893.371641 1894.489236 1895.641132 1895.597456 1896.702221 1897.714838
77.500000 1893.572237 1894.700095 1895.859455 1895.799056 1896.914706 1897.882479
77.590000 1895.074312 1896.238798 1897.440873 1897.410225 1898.504661 1899.618180
77.600000 1895.283925 1896.438713 1897.627688 1897.604236 1898.695934 1899.861165
77.680000 1896.673131 1897.935833 1899.137005 1899.170496 1900.393447 1901.848173
77.700000 1897.040338 1898.346319 1899.551361 1899.574574 1900.783488 1902.305452
77.790000 1898.842113 1899.997357 1901.354425 1901.468028 1902.950126 1904.474115
77.800000 1899.018090 1900.244966 1901.608227 1901.722953 1903.244705 1904.743506
77.890000 1901.146117 1902.791625 1904.502014 1904.471823 1906.140998 1907.479611
77.900000 1901.425634 1903.120477 1904.836550 1904.790632 1906.560230 1907.773434
78.000000 1904.317778 1906.066197 1907.670186 1907.573531 1909.088674 1910.377430
78.090000 1907.110076 1908.834874 1910.211056 1910.138797 1911.491592 1912.500876
78.100000 1907.441911 1909.090644 1910.480889 1910.390017 1911.693850 1912.766403
78.200000 1909.810350 1911.064406 1912.266475 1912.219986 1913.327191 1914.315049
78.290000 1911.289408 1912.456143 1913.590964 1913.534882 1914.595456 1915.441033
78.370000 1912.457306 1913.536861 1914.563720 1914.546526 1915.578485 1916.386198
78.480000 1913.902689 1914.955911 1915.848778 1915.829865 1916.733161 1917.575474
78.590000 1915.683069 1916.336071 1917.160976 1917.168185 1917.960701 1918.720582
78.690000 1916.938920 1917.779636 1918.660382 1918.762044 1919.737883 1921.309198
78.780000 1918.324820 1919.219805 1920.419799 1920.571815 1921.960286 1923.665045
78.890000 1919.852850 1921.046213 1922.615088 1922.755796 1924.505657 1926.253156
78.990000 1921.272553 1922.864430 1924.711898 1924.744917 1926.590582 1928.388256
79.090000 1923.061786 1924.694304 1926.702164 1926.727606 1928.707888 1930.640465
79.180000 1924.770472 1926.537211 1928.572162 1928.533289 1930.451141 1932.453951
79.300000 1927.589039 1929.405759 1931.185043 1931.218877 1933.120204 1934.852680
79.400000 1930.072938 1931.674254 1933.323318 1933.390786 1935.203306 1936.864129
79.500000 1932.054636 1933.532165 1935.307775 1935.343256 1937.164082 1938.956803
79.600000 1933.808488 1935.372133 1937.237601 1937.257652 1939.148357 1940.894657
79.700000 1935.488013 1937.367296 1939.380634 1939.359273 1941.365276 1943.311522
79.800000 1937.359556 1939.697258 1941.721458 1941.642100 1943.608055 1945.357039
79.890000 1939.983178 1942.143824 1944.095296 1944.128535 1946.106641 1948.134217
80.000000 1943.106955 1944.989579 1946.937423 1946.987276 1948.952028 1951.377471
80.100000 1945.592441 1947.262276 1949.231932 1949.363240 1951.387560 1954.084909
80.200000 1947.758599 1949.573092 1951.483443 1951.700045 1953.925004 1957.082524
80.270000 1949.210138 1951.167137 1953.164954 1953.400931 1955.796101 1958.784597
80.400000 1951.884641 1954.092990 1956.545564 1956.874081 1959.742434 1963.556841
80.500000 1953.743077 1956.115141 1958.857647 1959.178943 1962.283785 1966.280365
80.600000 1955.951983 1958.336117 1961.437539 1961.704604 1965.265879 1968.563417
80.700000 1958.285240 1960.888910 1964.108122 1964.289817 1967.901072 1970.657669
80.800000 1960.503481 1963.422048 1966.740259 1966.746095 1970.083175 1972.455876
80.933333 1963.701133 1966.904606 1969.940289 1969.738288 1972.476983 1974.384811
81.066667 1967.493490 1970.091823 1972.712619 1972.450010 1974.635831 1976.422311
81.200000 1970.830299 1973.234997 1975.075254 1974.900398 1976.588467 1978.021915
81.300000 1973.211842 1975.138585 1976.547254 1976.525028 1977.897963 1979.180396
81.390000 1974.910530 1976.534712 1977.746665 1977.791361 1979.115048 1980.375442
81.500000 1976.852758 1977.968744 1979.070051 1979.112826 1980.285646 1981.463663
81.600000 1978.090063 1979.085205 1980.198818 1980.247378 1981.394066 1982.632471
81.700000 1979.115881 1980.116661 1981.220367 1981.257408 1982.402270 1983.627818
81.780000 1979.893969 1980.924427 1982.023079 1982.043304 1983.162919 1984.415943
81.900000 1981.148828 1982.045114 1983.130330 1983.193539 1984.337897 1985.473916
82.000000 1981.977388 1983.036787 1984.176324 1984.224952 1985.375963 1986.792098
82.100000 1983.067251 1984.109570 1985.265250 1985.348284 1986.624534 1988.004331
82.180000 1983.810723 1984.924336 1986.239372 1986.286438 1987.643503 1988.991564
82.300000 1985.025946 1986.250974 1987.692958 1987.706761 1989.105783 1990.538901
82.400000 1986.243301 1987.439162 1988.958830 1988.932825 1990.442427 1991.701675
82.500000 1987.149243 1988.543058 1990.106171 1990.094611 1991.651214 1992.895308
82.600000 1988.237678 1989.575121 1991.212152 1991.145071 1992.680684 1993.922012
82.700000 1989.309115 1990.736485 1992.308530 1992.257863 1993.827154 1995.095370
82.800000 1990.403951 1991.776169 1993.383663 1993.387210 1994.925915 1996.429708
82.900000 1991.663009 1993.142716 1994.561221 1994.641269 1996.131883 1997.883269
83.000000 1992.944819 1994.634212 1996.122538 1996.120777 1997.642799 1999.353071
83.100000 1994.642792 1995.960229 1997.510453 1997.593704 1999.227191 2000.975649
83.200000 1995.897654 1997.250943 1998.957073 1998.973510 2000.748439 2002.339251
83.300000 1997.002865 1998.484640 2000.281639 2000.224015 2001.967215 2003.432790
83.400000 1998.122873 1999.684580 2001.407921 2001.360948 2003.063487 2004.266522
83.500000 1999.451919 2000.868335 2002.514388 2002.481453 2004.079082 2005.198807
83.575000 2000.288758 2001.907979 2003.393068 2003.346107 2004.837749 2005.866441
83.650000 2001.238700 2002.757757 2004.240011 2004.173860 2005.549400 2006.525072
83.725000 2002.079520 2003.577731 2005.018107 2004.949418 2006.311626 2007.273596
83.800000 2002.955417 2004.405846 2005.733042 2005.661040 2006.984130 2007.957616
83.900000 2004.086330 2005.320364 2006.600737 2006.569851 2007.786883 2008.816991
84.010000 2005.172611 2006.263150 2007.562383 2007.515722 2008.692496 2009.831401
84.100000 2006.088228 2007.125677 2008.285086 2008.302871 2009.485278 2010.714369
84.200000 2007.001634 2007.950663 2009.115672 2009.152842 2010.252516 2011.608527
84.290000 2007.687687 2008.762814 2009.897734 2009.946408 2011.109476 2012.536598
