depth(m) lower_95(kyr) lower_68(kyr) median(kyr) mean(kyr) upper_68(kyr) upper_95(kyr)
55.380000 1483.908779 1492.301525 1498.962812 1497.868360 1503.003742 1506.633717
55.490000 1497.570323 1503.240053 1506.972612 1506.509732 1509.958567 1512.448580
55.590000 1507.920976 1511.256847 1513.791483 1513.625224 1516.010941 1518.147453
55.680000 1513.822157 1516.175862 1518.121956 1518.173650 1520.243713 1522.354534
55.780000 1517.975327 1520.024824 1522.070141 1522.056611 1524.090933 1526.016630
55.880000 1521.256599 1523.522188 1525.772373 1525.688060 1527.829580 1529.932440
55.975000 1524.121973 1526.484834 1528.722334 1528.687087 1530.925981 1532.972962
56.070000 1527.504818 1529.544681 1531.561052 1531.553071 1533.590350 1535.644082
56.170000 1530.614365 1532.536991 1534.424971 1534.460403 1536.363815 1538.213930
56.270000 1533.301867 1535.141355 1537.116753 1537.097142 1539.007310 1540.731330
56.360000 1535.717439 1537.665571 1539.780657 1539.810245 1541.790757 1543.775600
56.470000 1538.983351 1541.758915 1544.243131 1544.388078 1547.049630 1550.463994
56.590000 1541.943846 1544.736117 1547.309241 1547.704188 1550.978235 1554.698308
56.710000 1544.082439 1547.173539 1550.249173 1550.613911 1554.503311 1557.660893
56.840000 1546.877292 1550.068622 1553.669496 1553.846122 1557.976905 1561.179353
56.980000 1550.092889 1553.445216 1558.046402 1557.835104 1561.843348 1564.840850
57.120000 1554.164903 1557.929206 1563.041919 1562.297103 1566.078869 1568.285549
57.240000 1557.942606 1563.395130 1566.886218 1566.294185 1569.083444 1570.758370
57.360000 1565.326875 1568.319680 1570.180233 1570.084692 1572.148448 1573.669936
57.430000 1568.864997 1570.592404 1572.249994 1572.244231 1573.956945 1575.510083
57.480000 1570.334487 1572.064403 1573.728369 1573.660664 1575.239927 1576.685619
57.580000 1572.836235 1574.547303 1576.153549 1576.112968 1577.623872 1579.177362
57.650000 1574.829278 1576.389004 1578.019858 1577.930058 1579.362636 1580.913444
57.680000 1575.619204 1577.371808 1578.857065 1578.850634 1580.361635 1581.879837
57.760000 1578.198310 1579.833000 1581.340232 1581.338353 1582.878688 1584.412727
57.780000 1578.902283 1580.419005 1581.907408 1581.926502 1583.460223 1585.094177
57.920000 1581.994938 1583.463704 1585.104910 1585.223675 1587.045587 1589.057715
57.970000 1583.005763 1584.640220 1586.425690 1586.569876 1588.509457 1590.695995
57.990000 1583.634519 1585.274801 1587.019982 1587.189153 1589.195419 1591.249557
58.080000 1586.009930 1587.704118 1589.761176 1589.940236 1592.169417 1594.548935
58.180000 1588.911762 1591.039195 1593.309483 1593.546153 1595.980762 1600.705700
58.210000 1589.912214 1592.247369 1594.481579 1594.919997 1597.503228 1602.779561
58.250000 1591.584149 1594.158642 1596.609002 1597.307931 1600.775809 1605.699705
58.280000 1593.313445 1595.721535 1598.778918 1599.475088 1604.101726 1607.312436
58.310000 1594.689838 1597.723359 1602.257399 1602.085183 1606.297717 1608.640630
58.360000 1597.069963 1602.930053 1606.412186 1605.853585 1608.925539 1610.820951
58.380000 1598.595103 1604.733927 1607.652196 1607.128790 1609.776604 1611.689649
58.430000 1603.514445 1607.513995 1609.764116 1609.526321 1611.743828 1613.744838
58.480000 1607.248546 1609.624712 1611.436461 1611.450919 1613.292862 1615.587660
58.530000 1609.366300 1611.215835 1612.906350 1613.095900 1615.002338 1617.670927
58.560000 1610.386299 1612.079598 1613.791130 1614.075066 1616.093146 1619.217156
58.590000 1611.432240 1613.049256 1614.714645 1615.072531 1617.182081 1620.495712
58.680000 1613.589096 1615.403665 1617.675951 1618.280365 1621.204666 1626.916021
58.780000 1615.942673 1618.263477 1621.661146 1622.495018 1626.919997 1632.172413
58.880000 1618.624336 1622.246531 1627.207692 1627.349174 1632.442055 1636.371684
58.970000 1622.205920 1627.018333 1632.171953 1631.739769 1636.415898 1638.989705
59.070000 1627.227383 1632.469354 1636.569085 1636.012642 1639.385910 1641.845919
59.140000 1631.470322 1635.864380 1639.039710 1638.649804 1641.307209 1643.619134
59.200000 1634.588575 1638.006956 1640.744183 1640.508396 1642.910808 1644.927863
59.240000 1636.527564 1639.509142 1641.961911 1641.760913 1643.952162 1645.932067
59.290000 1638.695777 1641.241955 1643.248084 1643.165361 1645.207337 1646.994559
59.350000 1640.630469 1642.758641 1644.698531 1644.624880 1646.543268 1648.489294
59.410000 1642.009971 1644.038154 1645.936028 1645.907110 1647.810267 1649.614138
59.530000 1644.521317 1646.494190 1648.260800 1648.373010 1650.366819 1652.235260
59.615000 1646.186811 1648.017460 1649.913785 1650.018464 1652.183020 1653.925394
59.700000 1647.767998 1649.512630 1651.557608 1651.564784 1653.617538 1655.375598
59.840000 1649.994800 1651.753073 1653.717047 1653.717012 1655.702015 1657.227351
59.980000 1652.198134 1653.747930 1655.932177 1655.821940 1657.702675 1659.138004
60.083333 1653.675404 1655.364527 1657.589097 1657.396057 1659.186914 1660.554610
60.186667 1655.486313 1657.302985 1659.235342 1659.075263 1660.711500 1662.121567
60.290000 1657.732043 1659.246255 1660.940598 1660.839678 1662.366227 1663.671084
60.370000 1659.324067 1660.946191 1662.491415 1662.414909 1663.826125 1665.165953
60.410000 1660.449669 1661.890480 1663.354406 1663.305228 1664.623997 1665.986741
60.440000 1661.322063 1662.756705 1664.105387 1664.081537 1665.374981 1666.787869
60.460000 1661.867345 1663.313360 1664.716957 1664.664218 1665.945030 1667.446200
60.490000 1662.803367 1664.375212 1665.754235 1665.704015 1667.046024 1668.724871
60.520000 1663.816747 1665.366275 1666.859619 1666.874439 1668.332289 1670.304907
60.570000 1665.487790 1667.370485 1669.050462 1669.244858 1671.341863 1673.361547
60.660000 1668.280426 1670.113301 1672.604675 1672.732381 1675.389819 1678.173844
60.750000 1671.125302 1673.094793 1675.662367 1675.862788 1678.708498 1681.398388
60.862500 1674.033370 1676.319045 1679.144498 1679.172513 1682.098222 1684.242904
60.975000 1676.833520 1679.379074 1682.437748 1682.313087 1685.206582 1687.331389
61.087500 1680.057845 1682.624856 1685.552313 1685.432344 1688.305804 1690.347884
61.200000 1683.390208 1686.275917 1689.115983 1688.929888 1691.607959 1693.633340
61.280000 1686.355940 1689.840913 1692.418357 1692.184293 1694.587926 1696.259930
61.310000 1688.899808 1691.497524 1693.952721 1693.713053 1695.728442 1697.534145
61.330000 1690.012624 1692.779451 1695.044423 1694.828974 1696.804181 1698.442872
61.360000 1691.878061 1694.506135 1696.604338 1696.464910 1698.461039 1700.233804
61.380000 1692.985337 1695.761069 1697.623675 1697.588682 1699.516674 1701.341728
61.430000 1696.109033 1698.270491 1700.010044 1700.036673 1701.932418 1703.748132
61.470000 1698.018060 1699.861800 1701.677490 1701.700944 1703.539795 1705.257734
61.540000 1699.976913 1702.289053 1704.047957 1704.070171 1706.000693 1707.626910
61.670000 1703.556516 1705.678880 1707.370340 1707.548300 1709.553292 1711.858159
61.795000 1706.696382 1708.700134 1710.808545 1711.005967 1713.493331 1716.291360
61.920000 1709.778892 1711.766430 1714.254757 1714.496993 1717.399271 1720.143095
62.005000 1711.631560 1713.824171 1716.423599 1716.739468 1719.832721 1723.057997
62.090000 1713.757764 1715.890391 1718.735336 1719.000714 1722.206737 1725.756844
62.160000 1715.964714 1717.978911 1720.749569 1721.044985 1724.073113 1728.118761
62.220000 1717.476250 1720.018292 1722.753662 1723.027730 1726.211430 1730.003910
62.260000 1718.673077 1721.485447 1724.294582 1724.517452 1727.514471 1731.432093
62.320000 1720.477888 1723.597483 1726.570857 1726.748940 1729.977394 1733.470025
62.400000 1722.857106 1726.182331 1729.680263 1729.669270 1733.051082 1736.740967
62.480000 1725.533224 1728.952869 1732.505252 1732.485389 1735.945244 1739.415840
62.590000 1728.577482 1732.440208 1736.229566 1736.103349 1739.802099 1743.174291
62.700000 1731.766005 1735.746984 1739.649326 1739.563133 1743.211856 1746.503324
62.830000 1736.703950 1740.057824 1743.872837 1743.636761 1746.944671 1750.094870
62.910000 1739.679255 1743.071979 1746.543409 1746.326784 1749.487491 1752.238275
62.950000 1741.016245 1744.585838 1748.038970 1747.768991 1750.839496 1753.244256
63.030000 1744.186290 1747.512218 1750.605350 1750.453846 1753.266116 1755.479490
63.080000 1746.097641 1749.301855 1752.231034 1752.127716 1754.843916 1757.438229
63.140000 1748.172918 1751.182214 1754.095986 1753.970945 1756.574894 1759.341929
63.220000 1750.711084 1753.536266 1756.388611 1756.273319 1758.847938 1761.591665
63.320000 1753.541733 1756.058565 1759.017658 1758.933162 1761.569607 1764.852323
63.440000 1756.664178 1758.972503 1761.741981 1761.815755 1764.620072 1767.372362
63.580000 1759.709553 1762.016613 1764.749581 1764.843881 1767.921579 1770.282477
63.700000 1762.188875 1764.741601 1767.390845 1767.490631 1770.386244 1772.872883
63.820000 1764.689653 1767.523526 1770.249960 1770.270377 1773.162379 1775.494344
63.960000 1768.149790 1771.049090 1773.896174 1774.029111 1776.913188 1780.421729
64.080000 1772.340258 1775.673978 1779.023665 1779.052607 1782.386955 1785.919325
64.190000 1780.476487 1783.186090 1785.733506 1785.591813 1787.956384 1790.022681
64.280000 1785.644652 1787.905574 1789.662605 1789.495098 1791.117979 1792.241420
64.350000 1790.296196 1791.213502 1792.089559 1792.078850 1792.923600 1793.764953
64.420000 1791.458934 1792.383418 1793.287061 1793.254955 1794.095468 1795.143546
64.540000 1792.782130 1793.727327 1794.633200 1794.690955 1795.690026 1796.779842
64.650000 1793.943275 1794.840644 1795.807323 1795.868249 1796.917013 1798.204780
64.760000 1794.973871 1795.948445 1796.934465 1797.024191 1798.163122 1799.531007
64.860000 1796.039923 1797.020053 1798.081047 1798.197976 1799.403104 1801.040078
64.960000 1797.115237 1798.120759 1799.246369 1799.427871 1800.727454 1802.640644
65.080000 1798.610087 1799.663805 1801.003163 1801.151052 1802.669777 1804.606531
65.160000 1799.725203 1800.919000 1802.496093 1802.624569 1804.322348 1806.253941
65.250000 1801.080707 1802.475932 1804.196512 1804.294479 1805.982709 1808.456686
65.350000 1802.347223 1803.909893 1805.882432 1805.944873 1807.873865 1810.266570
65.440000 1803.486260 1805.142672 1807.234056 1807.285855 1809.345266 1811.549196
65.540000 1804.853865 1806.675029 1808.647334 1808.777339 1810.945258 1813.264818
65.650000 1806.276487 1808.318545 1810.383164 1810.485961 1812.748723 1814.968496
65.750000 1807.777027 1809.810149 1812.015887 1812.121335 1814.584428 1816.733274
65.855000 1809.255650 1811.469110 1813.728999 1813.797644 1816.290424 1818.405202
65.960000 1811.071351 1813.159065 1815.698256 1815.605296 1817.947951 1820.165289
66.060000 1812.564381 1814.833118 1817.536804 1817.371172 1819.681638 1822.042318
66.160000 1814.866862 1816.802645 1819.333028 1819.188001 1821.418255 1823.675574
66.250000 1816.298352 1818.464162 1821.047807 1820.852784 1823.109758 1825.279066
66.350000 1817.817229 1820.309107 1822.686403 1822.626887 1824.934200 1826.750191
66.450000 1819.738321 1822.129525 1824.522641 1824.425162 1826.673143 1828.572615
66.560000 1821.759801 1824.168791 1826.388641 1826.299222 1828.417066 1830.438653
66.650000 1823.256743 1825.776438 1827.761115 1827.742086 1829.754595 1831.981478
66.740000 1824.859439 1827.236338 1829.237472 1829.159075 1831.141645 1833.315178
66.850000 1826.811911 1828.817542 1830.916078 1830.887070 1833.051739 1834.807466
66.940000 1828.081217 1830.265309 1832.367451 1832.393986 1834.651580 1836.641992
67.030000 1829.686028 1831.766156 1833.937779 1834.036681 1836.363072 1838.616862
67.140000 1831.885677 1833.940873 1836.334520 1836.325158 1838.756089 1840.763920
67.240000 1834.332556 1836.702063 1839.221405 1838.941717 1841.023399 1842.686847
67.340000 1837.863415 1840.291264 1841.912527 1841.760601 1843.340877 1844.403868
67.410000 1841.925492 1842.789818 1843.724827 1843.722260 1844.683893 1845.602952
67.520000 1843.654296 1844.616448 1845.797247 1845.845589 1847.086556 1848.564076
67.560000 1844.341371 1845.245260 1846.493337 1846.534798 1847.785254 1849.148360
67.645000 1845.505755 1846.446010 1847.678552 1847.731924 1849.019387 1850.341872
67.730000 1846.435765 1847.482041 1848.834897 1848.836818 1850.136793 1851.472203
67.850000 1847.784685 1848.882641 1850.148713 1850.152984 1851.453473 1852.543920
67.950000 1848.891622 1849.935082 1851.165524 1851.166261 1852.381363 1853.507465
68.050000 1849.781674 1850.899023 1852.136789 1852.151189 1853.348113 1854.569461
68.150000 1850.786677 1851.867311 1853.116948 1853.089593 1854.248569 1855.491298
68.250000 1851.713608 1852.816378 1853.969610 1853.999112 1855.162347 1856.472547
68.350000 1852.694966 1853.710800 1854.868781 1854.900782 1856.087495 1857.445212
68.450000 1853.553578 1854.541391 1855.713594 1855.789405 1857.081119 1858.360943
68.550000 1854.364045 1855.351403 1856.619251 1856.687049 1858.030918 1859.507739
68.650000 1855.214106 1856.327800 1857.635088 1857.725134 1859.229377 1860.805787
68.750000 1856.032345 1857.223700 1858.754032 1858.888547 1860.591878 1862.254502
68.850000 1856.934874 1858.344747 1860.047583 1860.212053 1862.125862 1864.181362
68.950000 1858.054637 1859.807092 1861.737228 1861.902108 1864.212551 1866.039627
69.050000 1859.742926 1861.701845 1863.993079 1863.932421 1866.273225 1868.005478
69.150000 1861.703941 1863.783434 1866.112370 1865.981913 1868.105597 1869.741027
69.250000 1863.450116 1865.758184 1867.932448 1867.799788 1869.759200 1871.233799
69.350000 1865.593742 1867.759492 1869.702456 1869.497623 1871.209658 1872.437259
69.450000 1867.554350 1869.629542 1871.184700 1871.041868 1872.533076 1873.569381
69.550000 1869.648140 1871.095597 1872.470893 1872.395290 1873.659772 1874.539155
69.650000 1871.555705 1872.706391 1873.723149 1873.696800 1874.736126 1875.519011
69.750000 1873.218352 1874.094833 1874.979155 1874.979772 1875.845552 1876.744045
69.850000 1874.356883 1875.284298 1876.284535 1876.368065 1877.424943 1878.817975
69.950000 1875.459571 1876.450059 1877.697233 1877.855790 1879.268431 1881.198706
70.050000 1876.644086 1877.778061 1879.209914 1879.417448 1881.273451 1883.065938
70.150000 1877.930544 1879.057195 1880.828407 1881.030428 1883.032583 1885.023130
70.250000 1879.301071 1880.631221 1882.605781 1882.773719 1884.796426 1887.252641
70.350000 1880.947345 1882.584609 1884.635665 1884.793171 1887.083490 1889.334877
70.450000 1882.714521 1884.816967 1887.012280 1887.014874 1889.238216 1891.893598
70.550000 1884.657181 1886.869686 1889.007698 1889.078934 1891.249787 1893.698654
70.650000 1886.511375 1888.765696 1890.865977 1890.886308 1893.069184 1895.318663
70.750000 1888.448501 1890.343114 1892.477165 1892.528961 1894.835281 1897.022683
70.850000 1889.956320 1891.835491 1894.071285 1894.071952 1896.409145 1898.597018
70.950000 1891.593992 1893.191511 1895.518707 1895.611863 1898.025007 1899.952357
71.050000 1893.070394 1894.778798 1897.212363 1897.213760 1899.629431 1901.579235
71.150000 1894.397435 1896.373283 1899.008481 1898.931107 1901.367807 1903.777800
71.250000 1896.164111 1898.123837 1900.992380 1900.878373 1903.533223 1905.802129
71.350000 1897.723184 1900.204247 1903.477402 1903.287416 1906.204926 1908.605049
71.450000 1899.768387 1903.061896 1906.570926 1906.228698 1909.242401 1911.398866
71.550000 1904.845571 1907.824530 1910.588645 1910.333442 1912.755283 1914.236881
71.650000 1910.133613 1912.370253 1914.024320 1913.891022 1915.464980 1916.559349
71.750000 1915.056399 1915.955635 1916.802749 1916.785680 1917.578055 1918.432952
71.850000 1916.864114 1917.798216 1918.654899 1918.727278 1919.697250 1920.863782
71.950000 1918.373931 1919.282933 1920.233117 1920.347654 1921.456709 1922.860139
72.050000 1919.725538 1920.625888 1921.816335 1921.969157 1923.329106 1924.962343
72.140000 1920.783193 1921.765435 1923.069520 1923.209826 1924.767435 1926.359181
72.250000 1922.210359 1923.170522 1924.640293 1924.742138 1926.360146 1928.116582
72.350000 1923.474263 1924.787708 1926.314636 1926.335219 1927.866030 1929.421589
72.450000 1924.956268 1926.389351 1927.933801 1927.933200 1929.497365 1930.983942
72.550000 1926.490822 1927.971447 1929.432391 1929.440776 1930.884809 1932.244695
72.650000 1928.028447 1929.491296 1930.909032 1930.909134 1932.347170 1933.885493
72.750000 1929.509297 1930.798042 1932.195320 1932.194362 1933.575542 1935.192119
72.850000 1930.519247 1931.871275 1933.357640 1933.336696 1934.742246 1936.271099
72.950000 1931.551180 1932.930937 1934.400915 1934.416089 1935.835176 1937.453324
73.050000 1932.735112 1934.007040 1935.480414 1935.524980 1937.015689 1938.595161
73.150000 1933.943668 1935.044022 1936.556493 1936.671378 1938.245271 1939.931677
73.250000 1935.068612 1936.222984 1937.867239 1937.935788 1939.722464 1941.398008
73.350000 1936.060179 1937.487737 1939.409887 1939.488761 1941.505457 1943.473955
73.450000 1937.415378 1939.265216 1941.759193 1941.845642 1944.308375 1946.852623
73.550000 1941.162445 1943.867814 1946.872474 1946.864656 1949.719677 1952.598006
73.650000 1944.678012 1948.097799 1951.159287 1950.927747 1953.605841 1956.519460
73.750000 1948.282383 1951.746070 1954.506863 1954.419120 1957.280334 1960.342701
73.850000 1951.663457 1954.436553 1957.093106 1957.208095 1960.159081 1962.971490
73.950000 1954.407287 1956.862574 1959.500832 1959.605444 1962.564595 1965.286747
74.050000 1956.534821 1959.046881 1961.865286 1961.894519 1964.854534 1967.492206
74.150000 1958.828977 1961.411517 1964.121180 1964.147396 1967.105198 1969.219153
74.250000 1960.890468 1963.546427 1966.468940 1966.339751 1969.129714 1970.964008
74.350000 1963.307420 1966.015302 1968.806031 1968.578559 1970.982169 1972.660161
74.450000 1965.463279 1968.662521 1971.174082 1970.852903 1972.974585 1974.559922
74.550000 1968.822240 1971.330978 1973.468811 1973.259478 1975.138468 1976.792237
74.650000 1971.605427 1973.819368 1975.666013 1975.593550 1977.310189 1979.031175
74.750000 1974.402527 1976.160200 1977.777560 1977.837420 1979.505883 1981.181102
74.850000 1976.324442 1977.801827 1979.408516 1979.494172 1981.223443 1983.003457
74.950000 1977.531392 1979.233502 1980.798969 1980.879446 1982.611886 1984.421153
75.050000 1979.217188 1980.620130 1982.215930 1982.264697 1983.902810 1985.804326
75.150000 1980.579473 1982.041555 1983.647930 1983.637364 1985.298731 1986.915497
75.250000 1981.752274 1983.436826 1985.016314 1985.037966 1986.757856 1988.372281
75.350000 1983.079546 1984.651376 1986.257207 1986.287549 1988.093791 1989.706664
75.450000 1984.245650 1985.781350 1987.393047 1987.453194 1989.188991 1990.643895
75.550000 1985.331313 1986.900492 1988.581391 1988.577587 1990.362409 1991.890206
75.650000 1986.393196 1988.051622 1989.818843 1989.793143 1991.576853 1993.175554
75.750000 1987.470295 1989.212708 1991.055969 1991.067313 1993.028966 1994.792313
75.850000 1988.630175 1990.546651 1992.427338 1992.527076 1994.596049 1996.976911
75.950000 1989.882756 1991.958482 1994.161557 1994.401035 1996.684638 1999.866798
76.050000 1991.720872 1993.990629 1996.734606 1997.234051 2000.682337 2005.371254
76.150000 1994.580767 1997.517319 2001.764639 2001.742068 2005.676964 2009.310335
76.220000 1997.835062 2001.313327 2005.333877 2005.161619 2008.900870 2012.158040
76.270000 2000.436212 2004.220482 2007.541650 2007.503129 2010.982858 2013.853259
76.330000 2003.446706 2007.077915 2010.202907 2010.109313 2013.326294 2015.774526
76.390000 2006.399540 2010.018850 2012.930296 2012.745247 2015.595788 2017.519701
76.440000 2009.574102 2012.280147 2015.121109 2014.918895 2017.551443 2019.495484
76.470000 2010.849511 2013.597778 2016.304693 2016.065440 2018.581787 2020.409897
76.540000 2013.339304 2015.969412 2018.261917 2018.104174 2020.314695 2021.870366
76.630000 2016.629162 2018.640916 2020.443403 2020.381320 2022.228814 2023.800607
76.760000 2019.704217 2021.401920 2022.999351 2023.006813 2024.604482 2025.982661
76.850000 2021.468746 2023.042392 2024.606630 2024.569296 2026.125043 2027.599965
76.950000 2023.109802 2024.563028 2026.158326 2026.106637 2027.633212 2028.760725
