depth(m) lower_95(kyr) lower_68(kyr) median(kyr) mean(kyr) upper_68(kyr) upper_95(kyr)
41.950000 1484.461044 1491.047104 1495.676938 1494.977094 1498.815363 1501.337274
42.050000 1489.501205 1494.910252 1498.761837 1498.265095 1501.678211 1504.058125
42.150000 1494.034092 1498.769588 1501.931217 1501.682612 1504.768884 1507.172691
42.250000 1500.429345 1503.304893 1506.039743 1505.989739 1508.810473 1511.183804
42.320000 1505.020889 1507.391060 1510.095453 1509.910263 1512.261574 1514.590354
42.380000 1509.127432 1511.742829 1513.886538 1513.831667 1515.993446 1518.311663
42.440000 1512.514192 1514.642105 1516.562066 1516.661630 1518.752782 1521.002011
42.510000 1515.527073 1517.261354 1519.302628 1519.386927 1521.548520 1523.876205
42.610000 1518.800207 1520.596707 1522.628146 1522.798146 1525.077883 1527.279644
42.710000 1521.957854 1523.896727 1526.026036 1526.041560 1528.204267 1530.357397
42.850000 1526.830597 1528.701146 1530.564896 1530.631202 1532.609892 1534.639048
42.925000 1529.353538 1531.031759 1533.117056 1533.149779 1535.245261 1537.224781
43.000000 1531.726542 1533.596365 1535.620680 1535.506825 1537.413343 1538.927746
43.130000 1535.230792 1537.161329 1539.112853 1539.001595 1540.775397 1541.959821
43.140000 1535.547911 1537.458216 1539.379344 1539.291009 1541.067309 1542.231934
43.240000 1538.341782 1540.314198 1541.948111 1541.909403 1543.485200 1545.222176
43.320000 1541.825200 1543.137563 1544.616633 1544.739650 1546.286877 1548.484120
43.390000 1544.185874 1545.619261 1547.317533 1547.517214 1549.179423 1552.694106
43.460000 1547.093864 1548.973387 1550.801056 1551.231059 1553.811392 1556.924677
43.520000 1549.326453 1551.440779 1553.763886 1554.168240 1557.287681 1559.751938
43.605000 1552.336540 1555.154110 1557.923797 1557.795211 1560.549017 1562.227975
43.690000 1555.747392 1558.805170 1561.386083 1561.081151 1563.347260 1564.918819
43.820000 1560.393543 1563.195391 1565.169866 1565.043708 1566.980225 1568.507038
43.895000 1563.030494 1565.817877 1567.757601 1567.861037 1569.891523 1572.700831
43.970000 1566.579345 1568.551782 1570.489107 1570.734180 1572.818246 1576.784017
44.100000 1570.841078 1572.845039 1575.561621 1575.748887 1578.618031 1582.046313
44.200000 1574.460850 1576.929585 1579.694353 1579.847534 1582.636053 1586.511373
44.280000 1578.137015 1580.981723 1583.571872 1583.797490 1586.763790 1590.185748
44.350000 1582.480361 1584.953237 1587.527484 1587.727500 1590.801773 1593.444778
44.430000 1585.688028 1588.535840 1591.450443 1591.380757 1594.264372 1596.348040
44.520000 1589.545650 1592.234903 1595.052695 1594.805678 1597.131278 1598.963952
44.620000 1592.810142 1595.867524 1598.229689 1597.934214 1599.992618 1601.398575
44.730000 1596.934292 1598.907854 1600.669146 1600.611828 1602.329858 1603.670082
44.830000 1599.341467 1601.066306 1602.715042 1602.670854 1604.237494 1605.772883
44.940000 1601.609025 1603.352455 1604.964134 1605.043427 1606.700347 1608.687494
45.060000 1604.570589 1606.403165 1608.185814 1608.548684 1610.396934 1615.937731
45.190000 1607.776618 1609.817061 1612.551264 1613.333322 1617.414247 1621.933958
45.265000 1609.705367 1611.926260 1615.252559 1616.142260 1621.141483 1624.845853
45.340000 1612.111510 1614.525523 1618.385558 1619.137305 1624.545273 1628.080258
45.455000 1615.350739 1618.801150 1623.712366 1623.723750 1628.581778 1632.073892
45.570000 1619.278123 1623.061949 1628.862733 1628.257457 1632.794492 1635.830842
45.650000 1622.041494 1626.178241 1632.044992 1631.376743 1635.810876 1638.447538
45.740000 1625.470752 1630.772733 1635.676613 1635.169633 1639.127385 1641.962939
45.830000 1629.152072 1635.755949 1639.655929 1639.296025 1643.028029 1645.988361
45.920000 1635.878045 1640.353271 1643.897389 1643.557461 1646.822346 1649.528135
46.040000 1642.735462 1645.746032 1648.663837 1648.538497 1651.433829 1653.819641
46.150000 1647.168165 1649.720039 1652.274320 1652.300897 1654.969127 1657.294421
46.260000 1650.581330 1653.195905 1655.878066 1655.876513 1658.627647 1660.932607
46.350000 1653.366804 1656.114575 1659.075973 1658.872477 1661.653967 1663.445230
46.430000 1656.274680 1658.911360 1661.832907 1661.594949 1664.182321 1665.970976
46.500000 1659.254202 1661.825637 1664.462930 1664.265262 1666.630368 1668.625020
46.570000 1662.604343 1665.110885 1667.408935 1667.381043 1669.608461 1671.894091
46.640000 1666.533580 1668.736340 1670.858737 1670.938640 1673.130678 1675.590908
46.730000 1670.588919 1672.687276 1674.915301 1675.059766 1677.485785 1680.617219
46.850000 1674.617842 1676.429968 1679.021834 1679.097360 1681.888080 1684.375189
46.925000 1676.901919 1678.841550 1681.447719 1681.592539 1684.400241 1687.027824
47.000000 1678.980531 1681.192514 1683.837644 1683.937943 1686.664865 1689.307889
47.140000 1683.010466 1685.458468 1688.120028 1688.082130 1690.643758 1692.872109
47.250000 1686.462911 1688.923245 1691.412290 1691.399548 1694.021294 1696.319173
47.330000 1688.755881 1691.638158 1694.175198 1694.014357 1696.453920 1698.613005
47.380000 1690.710968 1693.733592 1696.153639 1695.988830 1698.302296 1700.542348
47.430000 1693.314769 1696.122477 1698.517887 1698.408291 1700.682125 1702.457324
47.510000 1697.658097 1699.988879 1701.921707 1701.870464 1703.882324 1705.642767
47.600000 1701.429840 1703.912625 1705.769268 1705.741437 1707.656209 1709.514404
47.620000 1702.647451 1705.058945 1707.044442 1706.966287 1708.862693 1710.867423
47.690000 1707.173186 1708.994141 1711.212948 1711.182889 1713.194191 1715.511927
47.700000 1707.818522 1709.688972 1711.828481 1711.872432 1713.910176 1716.232424
47.760000 1711.467575 1713.466727 1715.649363 1715.709984 1717.936597 1720.687123
47.830000 1714.520119 1716.653219 1719.272707 1719.376701 1721.764417 1725.731136
47.920000 1717.828248 1720.454817 1723.363294 1723.572644 1726.746581 1730.736765
48.030000 1722.190878 1724.415247 1727.488228 1727.839226 1731.323108 1735.828850
48.170000 1726.945329 1729.524080 1732.488081 1733.175039 1737.288663 1742.165673
48.290000 1731.134385 1733.939221 1737.388565 1738.018702 1742.148007 1748.505510
48.390000 1734.712444 1737.733977 1741.667106 1742.432110 1747.560513 1753.227475
48.470000 1737.687651 1741.262275 1746.086443 1746.366809 1751.744515 1756.063812
48.540000 1740.345917 1744.970742 1749.921620 1749.996532 1754.927744 1758.876522
48.630000 1745.366427 1750.527460 1754.727897 1754.512272 1758.820367 1762.196963
48.710000 1750.178157 1754.496763 1758.370791 1758.167948 1761.931164 1765.216948
48.803000 1754.686616 1758.501438 1761.886458 1761.746391 1765.197374 1768.196677
48.820000 1755.651274 1759.219454 1762.578860 1762.487325 1766.022487 1768.924593
48.920000 1759.286127 1762.831883 1766.126075 1766.043095 1769.321575 1771.896724
49.020000 1762.890832 1766.416159 1769.546917 1769.354480 1772.374638 1774.806962
49.120000 1766.634136 1769.833336 1772.660901 1772.468798 1775.159557 1777.554051
49.210000 1770.022343 1772.877131 1775.590306 1775.515480 1778.225870 1780.210062
49.300000 1773.547427 1776.515589 1779.264568 1778.986774 1781.511815 1783.219459
49.410000 1777.362003 1780.147780 1782.470750 1782.336183 1784.631724 1786.233042
49.520000 1780.201852 1782.973439 1785.155657 1784.960994 1786.955299 1788.590003
49.630000 1783.456791 1785.709744 1787.901286 1787.614566 1789.430230 1790.844033
49.725000 1786.347792 1788.655473 1790.345462 1790.171185 1791.775464 1792.742413
49.820000 1791.190025 1792.143236 1793.104675 1793.087456 1794.042813 1794.852083
49.910000 1793.426199 1794.596756 1796.040716 1796.509412 1798.116553 1803.092788
50.000000 1795.976716 1797.483750 1799.640439 1800.220835 1803.005261 1807.851915
50.100000 1799.503251 1801.468720 1804.415027 1804.968572 1808.493585 1813.429555
50.200000 1802.449781 1804.985645 1808.632211 1809.121778 1813.249367 1818.283600
50.310000 1806.039114 1808.952005 1813.009397 1813.458586 1818.192407 1823.119547
50.410000 1809.058241 1812.338254 1817.061398 1817.426827 1822.715845 1826.839266
50.510000 1812.577338 1816.343293 1821.643939 1821.569853 1826.630939 1830.030291
50.600000 1816.094831 1820.084941 1825.735690 1825.229919 1829.825364 1833.123596
50.700000 1820.896696 1824.789360 1829.640642 1829.120060 1833.018207 1835.833427
50.810000 1825.554322 1829.850397 1833.544061 1833.104387 1836.308993 1838.617893
50.910000 1830.600308 1833.996631 1836.957297 1836.591128 1839.159840 1840.777247
51.020000 1835.692665 1838.100770 1840.134962 1839.908891 1841.669214 1842.800213
51.070000 1838.185175 1840.030567 1841.411010 1841.281124 1842.619610 1843.670681
51.200000 1842.073157 1842.865589 1843.771056 1843.746348 1844.589337 1845.485158
51.330000 1843.607739 1844.583031 1845.693083 1845.789242 1846.836372 1848.860247
51.460000 1845.238297 1846.266550 1847.614433 1847.884953 1849.469344 1851.883430
51.590000 1846.684069 1848.201376 1850.026627 1850.443964 1852.749190 1855.937695
51.695000 1848.656661 1850.424723 1852.797504 1853.184161 1856.151274 1859.034787
51.800000 1850.805356 1853.391083 1856.270774 1856.489088 1859.794195 1862.327615
51.880000 1852.918202 1855.968350 1859.411036 1859.508268 1863.095489 1866.118131
51.970000 1856.192706 1859.510311 1864.067977 1863.641623 1867.431769 1870.151569
52.100000 1864.460584 1868.775052 1871.278047 1870.854561 1873.014705 1874.417946
52.170000 1872.990276 1873.969910 1874.871014 1874.878052 1875.788006 1876.680324
52.250000 1875.517287 1876.721840 1878.125268 1878.385566 1879.992203 1882.977285
52.340000 1878.016900 1879.141299 1881.054566 1881.410840 1883.747969 1886.991454
52.440000 1880.388251 1881.778751 1883.756223 1884.129236 1886.683120 1889.643431
52.560000 1882.904121 1884.574195 1886.895392 1887.141633 1889.967240 1892.240680
52.640000 1884.599188 1886.531652 1888.778902 1889.024884 1891.713569 1893.989513
52.720000 1886.416802 1888.281451 1890.669968 1890.823439 1893.460203 1895.753677
52.800000 1888.186263 1889.894675 1892.526784 1892.532717 1895.059298 1897.428417
52.880000 1889.802465 1891.646390 1894.109731 1894.182841 1896.680094 1898.852547
52.955000 1891.361003 1893.186259 1895.618302 1895.686351 1898.131437 1900.148449
53.030000 1892.766162 1894.795001 1897.200015 1897.229857 1899.676897 1901.483878
53.150000 1895.278840 1897.306668 1899.799518 1899.830236 1902.404778 1904.669255
53.260000 1897.592305 1900.138372 1903.004097 1903.080801 1906.118042 1908.694964
53.350000 1900.419779 1904.088625 1907.238132 1906.940237 1909.748930 1911.981388
53.430000 1906.804768 1909.344505 1911.341156 1911.195518 1913.105559 1914.479762
53.500000 1910.583629 1912.472175 1913.956495 1913.741829 1914.962787 1915.784396
53.580000 1914.249181 1914.979990 1915.689225 1915.665559 1916.345683 1917.019380
53.650000 1915.259734 1915.945618 1916.573299 1916.591655 1917.245853 1917.873774
53.720000 1916.155894 1916.814042 1917.433992 1917.452822 1918.093076 1918.788266
53.730000 1916.309535 1916.946922 1917.587945 1917.605302 1918.251729 1918.949860
53.800000 1917.179463 1917.917425 1918.583795 1918.637422 1919.376153 1920.385947
53.890000 1918.266665 1919.033565 1919.822164 1919.899399 1920.727521 1922.048213
53.970000 1919.475097 1920.233893 1921.323878 1921.483702 1922.647439 1924.783242
54.060000 1920.657375 1921.652200 1923.026021 1923.231015 1924.854153 1926.766974
54.150000 1921.988450 1923.207434 1924.886059 1925.068339 1926.944880 1929.221400
54.240000 1923.113915 1924.779836 1926.830990 1927.066188 1929.220164 1932.156130
54.343333 1924.869019 1926.995472 1929.535165 1929.790618 1932.770228 1935.788212
54.446667 1927.279065 1929.574244 1932.539392 1932.753344 1936.055020 1939.301565
54.550000 1929.979480 1932.667629 1935.792276 1935.841472 1938.843113 1941.982067
54.656667 1933.286415 1935.953900 1939.189216 1939.152414 1942.304648 1945.322795
54.763333 1936.351870 1939.378738 1942.487386 1942.313302 1945.171821 1948.414534
54.870000 1940.447636 1942.809939 1945.293967 1945.301257 1947.638189 1950.918235
54.980000 1943.415184 1945.548422 1947.848342 1947.934209 1950.255350 1953.030695
55.080000 1945.799328 1947.933737 1950.066569 1950.136936 1952.374143 1955.044998
55.180000 1947.673435 1949.912539 1952.081727 1952.218191 1954.624094 1957.371598
55.290000 1949.510927 1951.980966 1954.442536 1954.554419 1957.209856 1960.392690
55.400000 1951.713747 1954.088573 1956.802585 1957.018697 1960.050600 1963.385115
55.510000 1953.656158 1956.430583 1959.563813 1959.843335 1963.354500 1967.364548
55.630000 1956.555971 1959.812649 1963.493871 1963.676457 1967.824811 1970.670719
55.735000 1959.662213 1963.526572 1967.595081 1967.259055 1970.974951 1973.064364
55.840000 1963.308439 1967.317184 1971.100945 1970.557406 1973.556843 1975.108846
55.950000 1967.785177 1971.314740 1973.932653 1973.542207 1975.699381 1977.260155
56.050000 1971.117352 1974.263744 1975.937083 1975.835708 1977.574991 1979.300375
56.150000 1973.968559 1976.099427 1977.672421 1977.643263 1979.335982 1981.182811
56.260000 1975.897599 1977.738107 1979.277235 1979.354482 1981.124439 1982.724610
56.370000 1977.714003 1979.324609 1980.941527 1981.037560 1982.913140 1984.599288
56.490000 1979.259086 1980.963595 1982.700488 1982.795005 1984.737561 1986.519614
56.620000 1980.876349 1982.773187 1984.833330 1984.887587 1987.017351 1988.852048
56.730000 1982.753925 1984.665279 1987.219310 1987.069746 1989.351667 1990.875014
56.840000 1985.402489 1987.735353 1990.307956 1990.114878 1992.366126 1994.533391
56.940000 1988.159193 1990.763029 1993.040161 1992.859521 1994.795120 1996.632994
57.030000 1992.574952 1994.451989 1996.122686 1996.241734 1997.961673 2000.732142
57.120000 1996.237982 1997.650813 1999.263384 1999.554733 2001.418069 2004.740318
57.200000 1998.291090 1999.981305 2001.873163 2002.240956 2004.617026 2007.751752
57.290000 2000.444817 2002.493605 2004.843433 2005.200059 2008.214422 2010.823004
57.390000 2003.516811 2005.515901 2008.207642 2008.459496 2011.511756 2013.713740
57.490000 2006.538229 2008.511740 2011.553248 2011.441369 2014.295223 2016.475595
57.590000 2009.136480 2011.395530 2014.151169 2014.038771 2016.559811 2018.433731
57.700000 2012.316034 2014.457288 2016.890128 2016.717490 2018.828655 2020.518081
57.820000 2015.651375 2017.867057 2019.919507 2019.742028 2021.527245 2023.034496
57.920000 2018.180533 2020.171092 2021.963977 2021.831424 2023.403584 2024.984986
58.030000 2020.717437 2022.269350 2023.873692 2023.845355 2025.335524 2026.899939
58.125000 2022.397118 2023.853042 2025.425039 2025.389395 2026.852079 2028.524957
58.220000 2024.067686 2025.426977 2026.916468 2026.922587 2028.344999 2030.034736
58.300000 2025.595717 2027.023016 2028.311935 2028.396198 2029.795717 2031.565082
58.310000 2025.751876 2027.223210 2028.541001 2028.615885 2029.996358 2031.823798
58.390000 2027.547246 2028.980916 2030.519130 2030.792395 2032.588261 2035.513517
58.480000 2029.786060 2031.552464 2033.658486 2034.111245 2036.859806 2039.794208
58.570000 2032.567315 2034.512578 2037.426907 2037.616270 2040.776672 2043.707491
58.670000 2035.261199 2037.677984 2040.897142 2040.841001 2043.795076 2046.965624
58.770000 2037.927861 2040.446005 2043.547991 2043.421630 2046.331505 2049.056849
58.880000 2040.289899 2042.972874 2045.907281 2045.867179 2048.717246 2051.276359
59.000000 2042.890798 2045.478160 2048.286075 2048.266399 2051.104188 2053.646952
59.120000 2045.191125 2047.802438 2050.586758 2050.575775 2053.389040 2055.534489
59.230000 2047.419511 2049.931423 2052.816691 2052.689969 2055.431985 2057.571880
59.340000 2049.607198 2052.120951 2054.922954 2054.789603 2057.291887 2059.366996
59.440000 2051.453495 2054.293418 2056.987677 2056.782056 2059.202954 2061.061906
59.530000 2053.443249 2056.288283 2058.964400 2058.614408 2060.880730 2062.515601
59.620000 2055.793940 2058.332834 2060.856138 2060.540554 2062.569373 2063.848296
59.710000 2058.285906 2060.666903 2062.750748 2062.489489 2064.243491 2065.406679
59.810000 2061.210153 2063.324322 2064.806098 2064.688084 2066.094586 2067.433818
59.840000 2062.271216 2064.193487 2065.547539 2065.497570 2066.830014 2068.253669
59.910000 2064.485090 2065.931973 2067.108729 2067.184785 2068.534785 2070.057077
59.950000 2065.461369 2066.743857 2067.966904 2068.113878 2069.607203 2071.172422
60.020000 2066.865565 2068.037474 2069.445876 2069.599371 2071.191357 2072.922025
60.060000 2067.591857 2068.779576 2070.240360 2070.427492 2072.057253 2073.939301
60.170000 2069.335440 2070.623696 2072.317796 2072.506869 2074.397387 2076.900985
60.300000 2071.365280 2072.860323 2074.973233 2075.215201 2077.661646 2080.022132
60.420000 2073.499184 2075.340874 2078.199098 2078.267216 2081.113764 2083.372942
60.520000 2075.281351 2078.165556 2081.440139 2081.364786 2084.504696 2087.841235
60.610000 2078.301472 2081.449277 2085.006126 2085.171195 2088.794681 2092.933108
60.700000 2083.760482 2087.176636 2090.684413 2091.009186 2094.949195 2099.740091
60.790000 2089.629024 2093.752066 2097.988723 2098.377124 2103.280189 2108.864460
60.900000 2098.380403 2103.199066 2108.222925 2108.501236 2114.345019 2119.134638
