depth(m) lower_95(kyr) lower_68(kyr) median(kyr) mean(kyr) upper_68(kyr) upper_95(kyr)
97.330000 1492.913850 1496.960574 1500.673731 1500.373956 1503.901273 1505.957073
97.470000 1494.931022 1498.887237 1502.457147 1502.159958 1505.384537 1507.425708
97.610000 1496.945450 1501.083552 1504.231707 1503.990772 1506.978224 1509.149847
97.750000 1498.639652 1502.906144 1506.043542 1505.789942 1508.625735 1510.868601
97.890000 1501.418653 1505.014347 1507.883497 1507.743282 1510.306746 1512.802456
98.030000 1504.154800 1507.229686 1509.937437 1509.840811 1512.303983 1514.689660
98.130000 1506.018136 1508.886875 1511.470808 1511.522360 1514.106299 1516.569769
98.266000 1508.289223 1511.668400 1514.569656 1514.592057 1517.616169 1520.866144
98.402000 1511.179690 1514.490140 1517.764512 1517.685539 1520.951346 1523.903550
98.538000 1514.179544 1517.885555 1520.871437 1520.806870 1523.708769 1526.483366
98.674000 1518.040495 1521.185671 1523.788309 1523.727684 1526.338717 1528.616396
98.810000 1521.466070 1524.067274 1526.492075 1526.369534 1528.740095 1530.937308
98.930000 1523.608218 1525.854293 1528.356016 1528.241483 1530.475998 1532.810043
99.070000 1525.647000 1527.804618 1530.586146 1530.458941 1532.892680 1535.252589
99.210000 1527.570082 1529.950141 1532.774833 1532.674893 1535.179981 1537.857844
99.350000 1529.675332 1532.105805 1535.076934 1534.946779 1537.689580 1540.083334
99.490000 1531.942480 1534.483144 1537.334450 1537.277878 1539.928289 1542.574110
99.630000 1534.131417 1536.982673 1539.819761 1539.778101 1542.305241 1545.341448
99.763333 1536.633085 1539.341983 1542.196135 1542.300033 1545.271265 1548.237498
99.896667 1539.150909 1541.778170 1544.768224 1544.866543 1547.899937 1551.759464
100.030000 1541.441340 1544.141914 1547.180900 1547.457706 1550.663278 1554.955501
100.163333 1543.875033 1546.548238 1549.643133 1549.980334 1553.549539 1557.602375
100.296667 1546.258209 1548.988116 1552.105649 1552.412243 1556.074604 1559.814310
100.430000 1548.923968 1551.202612 1554.636983 1554.838764 1558.623901 1562.276999
100.570000 1550.917084 1553.418590 1557.234568 1557.272470 1561.363896 1564.497249
100.710000 1552.847503 1555.484027 1559.612349 1559.553197 1563.487750 1566.254002
100.850000 1554.792114 1557.772802 1562.117025 1561.822196 1565.467976 1568.110631
100.990000 1556.716858 1559.999863 1564.587975 1564.067883 1567.632479 1569.755763
101.130000 1558.645345 1562.268467 1566.809818 1566.134172 1569.495097 1571.463572
101.263333 1560.508950 1564.426324 1568.452224 1567.913478 1571.069106 1573.115031
101.396667 1562.580244 1566.451208 1570.007167 1569.606756 1572.576632 1574.699017
101.530000 1564.519984 1568.348193 1571.566534 1571.248042 1573.972000 1576.017900
101.663333 1566.578575 1570.393172 1573.076632 1572.912202 1575.418605 1577.572348
101.796667 1569.101868 1572.311143 1574.667487 1574.631969 1577.095267 1579.601478
101.930000 1571.688190 1574.033005 1576.332531 1576.377569 1578.674461 1581.393731
102.050000 1573.252321 1575.699033 1578.178382 1578.217492 1580.672943 1583.418802
102.170000 1575.245634 1577.420445 1579.965215 1580.116021 1582.845280 1585.940125
102.290000 1576.561553 1579.136679 1581.873619 1582.006543 1584.972398 1588.185567
102.410000 1578.619145 1580.921744 1583.832001 1583.985417 1587.007004 1590.648623
102.530000 1580.470758 1582.928698 1585.848867 1586.044096 1589.208539 1592.894523
102.663333 1582.373846 1585.250215 1588.568377 1588.667583 1591.808192 1595.569083
102.796667 1584.491787 1587.772718 1591.336797 1591.246009 1594.450356 1598.071580
102.930000 1587.466814 1590.570027 1594.079309 1593.949298 1597.127404 1600.290187
103.063333 1590.427294 1593.512998 1596.845644 1596.633951 1599.593287 1602.406695
103.196667 1593.776535 1596.768352 1599.255619 1599.293076 1601.996291 1604.368431
103.330000 1597.844216 1599.670938 1601.836620 1601.965933 1604.210346 1606.974284
103.400000 1599.328079 1601.143947 1603.315315 1603.434366 1605.723966 1608.337181
103.526000 1601.349474 1603.609724 1606.194351 1606.394165 1609.259364 1612.416922
103.652000 1603.422137 1606.089225 1609.243142 1609.453047 1612.834939 1616.450263
103.778000 1605.724678 1608.794586 1612.254248 1612.545358 1616.380514 1620.175979
103.904000 1608.263219 1611.718522 1615.463785 1615.590834 1619.375878 1623.029346
104.030000 1610.613503 1614.653176 1618.643741 1618.585254 1622.410454 1625.956147
104.115000 1612.515785 1616.871816 1620.662000 1620.612814 1624.335772 1627.990938
104.200000 1615.225212 1619.072466 1622.674668 1622.725868 1626.529910 1630.334087
104.326000 1618.087536 1621.775152 1625.442662 1625.536701 1629.455591 1633.161211
104.452000 1620.656132 1624.604361 1628.221451 1628.339835 1632.165695 1636.441900
104.578000 1623.369047 1627.044988 1631.031436 1631.151782 1635.258617 1639.538706
104.704000 1625.947550 1629.682200 1633.862182 1633.989611 1638.363827 1642.409259
104.830000 1628.564831 1632.510642 1636.606298 1636.764389 1641.315699 1645.500242
104.970000 1631.940142 1635.814026 1640.360304 1640.313641 1644.753580 1649.422995
105.110000 1635.074985 1639.305667 1643.863146 1643.817575 1648.207241 1652.574275
105.250000 1638.103132 1642.876812 1647.294594 1647.254945 1651.724026 1655.454936
105.390000 1641.886797 1646.592582 1650.704032 1650.673945 1654.906462 1658.939559
105.530000 1645.992177 1650.228980 1653.963063 1653.939910 1657.915152 1661.525036
105.663333 1649.358438 1653.287958 1657.181829 1656.996856 1660.657114 1664.090463
105.796667 1652.411867 1656.313414 1660.107848 1659.947730 1663.618208 1666.924810
105.930000 1655.411886 1659.347675 1662.748856 1662.785482 1666.389377 1669.883332
106.063333 1658.416127 1662.128435 1665.535925 1665.503122 1668.838334 1672.500748
106.196667 1662.196555 1665.120768 1668.134755 1668.283270 1671.410631 1675.215579
106.330000 1665.157306 1667.967099 1670.920348 1671.027125 1673.935325 1678.054639
106.466364 1668.054551 1670.717177 1673.781550 1673.926901 1677.267815 1681.119647
106.602727 1670.362228 1673.018853 1676.446695 1676.764264 1680.512559 1684.782903
106.739091 1672.715559 1675.728268 1679.473013 1679.796393 1683.988740 1687.998250
106.875455 1675.207556 1678.409735 1682.879004 1682.892454 1687.236322 1691.141045
107.011818 1677.826523 1681.304693 1685.937988 1685.839615 1690.237778 1694.230469
107.148182 1680.888574 1684.264691 1688.935857 1688.761569 1693.104648 1696.816131
107.284545 1683.795970 1687.670676 1692.017200 1691.826814 1695.961527 1699.348164
107.420909 1686.594914 1690.842665 1694.814999 1694.676823 1698.611118 1701.728481
107.557273 1689.758694 1694.030820 1697.541907 1697.442585 1701.167586 1704.080196
107.693636 1693.426389 1697.250610 1700.344630 1700.399548 1703.821971 1706.889722
107.830000 1696.845298 1700.355408 1703.247525 1703.290569 1706.413208 1709.353199
107.970000 1699.668312 1703.211687 1706.351205 1706.284851 1709.411180 1712.595346
108.110000 1702.579443 1706.113500 1709.501601 1709.295639 1712.436743 1715.232869
108.250000 1705.591240 1709.063110 1712.195722 1712.126661 1715.319559 1717.861107
108.390000 1709.474249 1712.220239 1714.925331 1714.930453 1717.661231 1720.130315
108.530000 1713.205876 1715.482775 1717.754435 1717.844188 1720.213500 1722.986017
108.580000 1714.300055 1716.563607 1718.934225 1718.953369 1721.317617 1724.030909
108.705000 1716.445127 1718.762860 1721.471321 1721.475441 1724.204487 1727.127642
108.830000 1718.422286 1721.096062 1723.927139 1723.993513 1726.921965 1730.240100
108.955000 1720.244523 1723.370950 1726.455315 1726.496866 1729.655251 1732.595304
109.080000 1722.390641 1725.819716 1728.999322 1728.993447 1732.335311 1735.147298
109.205000 1725.567983 1728.334074 1731.407873 1731.521275 1734.726299 1737.506975
109.330000 1728.086808 1730.822379 1733.868703 1734.036009 1737.169339 1740.368345
109.380000 1729.137221 1731.827822 1734.908397 1735.074007 1738.193917 1741.641548
109.520000 1731.838235 1734.803333 1737.840634 1738.000197 1741.277388 1744.926673
109.660000 1734.066317 1737.525547 1740.784915 1740.821678 1744.106307 1748.093016
109.800000 1736.559327 1740.058222 1743.502162 1743.547290 1747.172156 1750.647658
109.940000 1739.156344 1742.639355 1746.191371 1746.202699 1749.836586 1753.145123
110.080000 1742.028426 1745.376627 1748.780256 1748.924406 1752.702917 1755.917958
110.213333 1744.634530 1747.726036 1751.350009 1751.627650 1755.535130 1759.515010
110.346667 1746.839490 1750.421699 1754.232895 1754.449333 1758.558722 1762.252182
110.480000 1748.905368 1753.125164 1757.191690 1757.287090 1761.463099 1765.156550
110.613333 1752.135367 1755.888915 1760.119906 1760.087098 1764.239345 1767.919532
110.746667 1754.680626 1758.646520 1762.980562 1762.901175 1767.175628 1770.637773
110.880000 1757.287697 1761.319115 1765.641097 1765.575474 1769.855946 1773.349589
111.022000 1759.817302 1764.091157 1768.470019 1768.254872 1772.424683 1775.662668
111.164000 1762.727331 1766.886272 1771.135430 1770.926640 1774.991244 1778.080294
111.306000 1765.461445 1769.732224 1773.704508 1773.641573 1777.602355 1780.675460
111.448000 1768.160897 1772.724335 1776.453171 1776.313535 1780.189644 1783.387939
111.590000 1771.158981 1775.290899 1779.066979 1778.928282 1782.548965 1785.611796
111.723333 1773.771718 1777.844573 1781.552424 1781.373700 1784.966428 1788.186824
111.856667 1776.728903 1780.383241 1784.121445 1783.999266 1787.509424 1790.547627
111.990000 1779.079562 1782.988817 1786.796177 1786.557799 1790.031359 1793.117217
112.123333 1781.590432 1785.609625 1789.241141 1789.138802 1792.572699 1795.726212
112.256667 1784.988674 1788.565637 1791.843512 1791.867021 1795.069196 1798.425204
112.390000 1788.873714 1791.601481 1794.546009 1794.694164 1797.866897 1801.417210
112.523333 1791.647887 1794.557510 1797.570201 1797.942732 1801.296182 1806.052934
112.656667 1794.254826 1797.569977 1800.930789 1801.349358 1805.131050 1810.732430
112.790000 1797.826132 1800.700780 1804.535580 1804.919813 1809.130644 1814.465258
112.896667 1800.226220 1803.354737 1807.537827 1807.846099 1812.403982 1817.849467
113.003333 1802.743002 1806.270906 1810.809752 1811.059286 1815.824045 1821.251802
113.110000 1805.780618 1809.322569 1814.091827 1814.315550 1819.396385 1824.596011
113.230000 1808.778279 1812.790342 1817.739852 1817.763607 1822.660808 1827.429830
113.350000 1812.005832 1816.062406 1821.175173 1821.204546 1826.180417 1830.393987
113.470000 1814.912898 1819.799622 1824.868294 1824.707084 1829.458940 1834.181819
113.590000 1818.056585 1823.623202 1828.389002 1828.138003 1832.966197 1836.644064
113.696667 1820.922874 1826.935173 1831.470458 1831.211471 1835.761665 1839.498735
113.803333 1823.924845 1829.895681 1834.411160 1834.144057 1838.537137 1842.013993
113.910000 1827.023240 1832.911205 1837.113470 1836.877837 1841.182590 1844.328799
114.041111 1830.656128 1835.795535 1839.837103 1839.744627 1844.099091 1847.388430
114.172222 1833.849665 1838.291671 1842.307307 1842.456838 1846.817471 1850.398580
114.303333 1836.497422 1841.019908 1844.928997 1845.176365 1849.670423 1853.667765
114.434444 1839.371656 1843.424745 1847.580622 1847.902792 1852.410610 1856.908036
114.565556 1841.808302 1846.004889 1850.586154 1850.579282 1855.365264 1859.815428
114.696667 1844.744862 1848.843623 1853.389986 1853.331841 1857.983798 1862.214893
114.827778 1847.006037 1851.524645 1856.256701 1856.184497 1860.700002 1865.232598
114.958889 1849.999693 1854.360571 1859.120568 1859.104212 1863.880232 1867.981080
115.090000 1852.449999 1857.429752 1862.193198 1862.111461 1866.860990 1871.187380
115.230000 1855.568004 1860.756295 1865.796290 1865.726462 1870.529611 1875.080454
115.370000 1859.267741 1864.245438 1869.569179 1869.395193 1874.251266 1878.560843
115.510000 1862.575465 1868.114710 1873.242589 1872.958112 1877.853741 1881.835539
115.650000 1865.919396 1871.760345 1876.851328 1876.525952 1881.235840 1884.807481
115.790000 1869.719711 1875.441992 1880.306168 1879.995924 1884.455411 1887.723820
115.923333 1873.314642 1878.961993 1883.310160 1882.984225 1887.228614 1890.884053
116.056667 1876.487581 1881.610243 1886.107997 1885.831242 1890.178360 1893.770611
116.190000 1879.381338 1884.520105 1888.804111 1888.676281 1893.001416 1896.285539
116.323333 1882.914943 1887.481352 1891.551657 1891.565048 1895.787886 1899.201929
116.456667 1886.360720 1890.573433 1894.429061 1894.472658 1898.511880 1901.629020
116.590000 1890.333813 1893.698695 1897.457913 1897.375729 1901.044327 1904.187365
116.730000 1893.029773 1896.926333 1900.725729 1900.489064 1904.069862 1907.338818
116.870000 1896.214310 1899.884218 1903.671335 1903.525554 1907.065136 1909.961746
117.010000 1899.359328 1902.819330 1906.634185 1906.443311 1909.924891 1912.700127
117.150000 1902.919499 1906.211135 1909.520036 1909.364422 1912.554188 1915.110495
117.290000 1905.934133 1909.162019 1912.298153 1912.126316 1915.097644 1917.356793
117.423333 1908.190878 1911.612860 1914.606673 1914.466206 1917.368164 1920.041210
117.556667 1910.381967 1913.810356 1916.725750 1916.691302 1919.608242 1922.362166
117.690000 1912.660466 1916.059604 1918.909650 1918.866901 1921.636134 1924.729818
117.823333 1915.554798 1918.268435 1920.997410 1921.038363 1923.798688 1926.772230
117.956667 1917.760148 1920.406797 1923.049455 1923.152431 1925.891611 1928.864769
118.090000 1920.550262 1922.643130 1925.218009 1925.398731 1928.059247 1931.299799
118.230000 1922.486456 1924.893114 1927.605596 1927.757559 1930.474689 1933.818308
118.370000 1924.585422 1927.163615 1930.208102 1930.248294 1933.339431 1936.348669
118.510000 1926.658611 1929.442955 1932.763932 1932.753078 1936.013369 1938.923394
118.650000 1929.141350 1932.113640 1935.304251 1935.364691 1938.678218 1941.570412
118.790000 1932.322714 1935.031907 1938.256473 1938.276542 1941.496736 1944.689971
118.934000 1934.692989 1938.040664 1941.894550 1942.152632 1946.160515 1951.049534
119.078000 1937.546327 1941.166565 1946.081831 1946.293117 1951.017936 1956.261546
119.222000 1941.051992 1945.230026 1950.634069 1950.583124 1955.591996 1961.084509
119.366000 1944.937967 1949.638134 1954.980158 1955.018370 1960.236361 1965.372058
119.510000 1949.170947 1954.342400 1959.298296 1959.417319 1964.755661 1969.714799
119.650000 1953.575440 1958.531036 1963.817105 1963.873285 1969.106189 1973.983430
119.790000 1958.251048 1963.309935 1968.308740 1968.294393 1973.440626 1977.828212
119.930000 1962.575523 1968.232564 1972.851763 1972.766477 1977.543404 1981.308242
120.070000 1967.948791 1973.140647 1977.031430 1977.034668 1981.040503 1984.870327
120.210000 1973.911808 1977.756577 1981.009636 1981.185107 1984.928242 1989.003142
120.343333 1977.332395 1980.917590 1984.459978 1984.662884 1988.677599 1992.287496
120.476667 1980.571946 1983.893159 1987.760912 1987.963884 1992.031082 1995.736533
120.610000 1983.641107 1987.125934 1991.105791 1991.315110 1995.424324 1999.460091
120.743333 1987.133162 1990.608133 1994.530517 1994.657012 1998.520568 2003.579830
120.876667 1990.261896 1993.982849 1997.668473 1997.922074 2001.646309 2006.904526
121.010000 1993.378884 1997.491347 2000.808880 2001.118569 2005.033140 2009.727197
121.148889 1996.521319 2000.309368 2003.899205 2004.230450 2008.518556 2013.440673
121.287778 1999.334491 2002.940150 2007.040442 2007.351079 2012.058137 2016.767017
121.426667 2002.200702 2005.926124 2010.126422 2010.562993 2015.449861 2020.379276
121.565556 2004.780844 2008.833991 2013.298965 2013.696281 2018.845423 2023.452437
121.704444 2007.866565 2011.935619 2016.716843 2016.827181 2021.930415 2026.238396
121.843333 2010.599727 2015.066512 2019.961587 2019.936850 2024.794085 2028.931996
121.982222 2013.676535 2018.463365 2023.257186 2023.210045 2027.920302 2032.279977
122.121111 2016.972813 2021.322969 2026.562234 2026.310218 2030.945224 2035.396814
122.260000 2020.538809 2024.652124 2029.793655 2029.611301 2034.251365 2038.706939
122.393333 2023.256929 2027.823709 2033.166890 2033.006715 2037.769388 2042.480129
122.526667 2026.450673 2031.528830 2036.605713 2036.469395 2041.308946 2045.885597
122.660000 2030.562943 2034.714852 2039.884514 2039.870738 2044.963687 2049.756814
122.793333 2034.065498 2038.207905 2043.328308 2043.325075 2048.364924 2053.090087
122.926667 2036.976395 2041.780089 2046.592255 2046.679870 2051.501758 2055.955420
123.060000 2040.220788 2045.262015 2049.791105 2049.875558 2054.618445 2058.980940
123.200000 2043.627406 2048.568077 2053.218087 2053.131292 2057.670116 2061.811055
123.340000 2047.151470 2051.914801 2056.563205 2056.375908 2060.750788 2064.789777
123.480000 2051.158601 2055.279561 2060.009705 2059.605656 2063.578324 2067.461590
123.620000 2054.928401 2058.772864 2063.154800 2062.881236 2066.734271 2070.669401
123.760000 2058.074079 2062.602724 2066.082909 2066.057099 2069.645685 2073.753886
123.890000 2061.390301 2065.266587 2068.665211 2068.708385 2072.256865 2076.207085
124.020000 2064.424637 2067.939804 2071.247140 2071.370820 2074.993989 2078.426326
124.150000 2067.075220 2070.442465 2073.991303 2073.998121 2077.519678 2081.225350
124.280000 2069.698873 2072.936813 2076.633692 2076.574643 2080.267169 2083.870787
124.410000 2072.325438 2075.641944 2079.418737 2079.414163 2083.190597 2086.600272
124.485000 2074.038994 2077.358830 2081.270144 2081.348952 2085.216940 2089.041143
124.560000 2075.570861 2079.113929 2083.366267 2083.408435 2087.546392 2091.615101
