depth(m) lower_95(kyr) lower_68(kyr) median(kyr) mean(kyr) upper_68(kyr) upper_95(kyr)
166.190000 1494.544006 1497.878534 1500.453069 1500.136306 1502.395664 1504.067242
166.290000 1496.306103 1499.577317 1501.723376 1501.500498 1503.647552 1505.378251
166.390000 1498.477082 1500.971280 1503.069901 1502.944003 1504.939336 1506.763183
166.490000 1499.739344 1502.281454 1504.330137 1504.257946 1506.323980 1507.995290
166.620000 1501.743083 1504.069269 1506.264914 1506.195675 1508.363935 1510.118475
166.690000 1503.074852 1505.251185 1507.608290 1507.529541 1509.671273 1511.341811
166.785000 1505.099865 1507.621567 1509.997735 1509.770936 1511.817324 1513.374883
166.885000 1508.727372 1511.074359 1513.011459 1512.903065 1514.764363 1516.655922
166.985000 1511.750603 1514.007101 1515.705424 1515.769658 1517.615033 1519.369795
167.085000 1514.579574 1516.386242 1518.137124 1518.123788 1519.807122 1521.754250
167.185000 1516.747572 1518.438945 1520.219152 1520.211518 1521.971832 1523.908956
167.285000 1519.020864 1520.675953 1522.313117 1522.335804 1524.045892 1525.802132
167.385000 1521.262792 1522.944186 1524.639973 1524.634529 1526.309161 1528.022008
167.485000 1523.496990 1524.949952 1526.616814 1526.574408 1528.210277 1529.752619
167.585000 1525.146293 1526.685703 1528.333637 1528.285357 1529.775226 1531.263763
167.685000 1526.758543 1528.252863 1529.758428 1529.672495 1531.077677 1532.241529
167.785000 1528.118376 1529.574534 1530.944005 1530.831244 1532.112301 1533.255702
167.885000 1529.502345 1530.669477 1531.910276 1531.839231 1532.945412 1533.981668
167.985000 1530.467051 1531.705789 1532.755963 1532.699429 1533.772054 1534.626825
168.085000 1531.501468 1532.505262 1533.487206 1533.468710 1534.475525 1535.272022
168.185000 1532.381898 1533.272642 1534.183132 1534.181043 1535.113247 1535.905474
168.285000 1533.048514 1533.935876 1534.844094 1534.832751 1535.741012 1536.555665
168.385000 1533.740306 1534.555124 1535.485592 1535.454348 1536.325895 1537.184329
168.485000 1534.276441 1535.148564 1536.047169 1536.055510 1536.944278 1537.815729
168.585000 1534.912217 1535.756660 1536.676455 1536.678130 1537.602605 1538.481476
168.685000 1535.521136 1536.351756 1537.300566 1537.294224 1538.223193 1539.100764
168.785000 1536.136202 1537.024520 1537.943508 1537.938350 1538.883838 1539.854890
168.885000 1536.815069 1537.726031 1538.688289 1538.670020 1539.623113 1540.491771
168.985000 1537.465044 1538.443023 1539.447981 1539.450696 1540.443098 1541.303028
169.085000 1538.333545 1539.295942 1540.328544 1540.313390 1541.307703 1542.196971
169.185000 1539.160321 1540.197392 1541.396149 1541.302862 1542.302818 1543.246435
169.285000 1540.073263 1541.223628 1542.356398 1542.355829 1543.449001 1544.737703
169.385000 1541.073955 1542.245215 1543.366701 1543.448466 1544.677516 1546.173795
169.485000 1542.119644 1543.288606 1544.458921 1544.574949 1545.865581 1547.379245
169.585000 1543.355906 1544.603045 1545.851171 1545.915759 1547.254744 1548.762804
169.685000 1544.794203 1546.018427 1547.355116 1547.406343 1548.830840 1550.233262
169.785000 1546.201756 1547.459715 1548.837565 1548.932641 1550.446983 1551.920963
169.885000 1547.646540 1548.786153 1550.306358 1550.376693 1551.925177 1553.568427
169.985000 1548.870041 1550.021945 1551.696989 1551.751713 1553.413159 1555.262729
170.085000 1550.074213 1551.374692 1552.968563 1553.084401 1554.768086 1556.678924
170.185000 1551.229168 1552.679814 1554.397263 1554.426573 1556.193403 1557.853699
170.285000 1552.468870 1554.026037 1555.750544 1555.776190 1557.600074 1559.077505
170.385000 1553.744614 1555.322611 1557.246743 1557.159992 1558.970345 1560.502177
170.485000 1555.194435 1556.781981 1558.587633 1558.577907 1560.373431 1561.758963
170.585000 1556.379484 1558.289488 1560.129917 1560.070457 1561.773295 1563.307600
170.685000 1557.752479 1559.792854 1561.638039 1561.519066 1563.207599 1564.658913
170.785000 1559.414093 1561.253093 1563.060847 1562.959987 1564.668450 1566.052488
170.885000 1561.048315 1562.729982 1564.579180 1564.487166 1566.124479 1567.710972
170.985000 1562.538690 1564.375869 1566.144107 1566.112016 1567.784005 1569.504949
171.085000 1564.286213 1566.158904 1567.852354 1567.872971 1569.617886 1571.338419
171.185000 1566.794835 1568.553028 1570.173737 1570.250210 1571.981147 1574.024749
171.285000 1568.990150 1570.709071 1572.563460 1572.598240 1574.492784 1576.290239
171.385000 1571.065710 1572.777140 1574.777674 1574.724577 1576.572246 1578.387769
171.485000 1572.828753 1574.841590 1576.845602 1576.779249 1578.663050 1580.547642
171.585000 1575.043404 1577.107685 1579.032816 1579.012799 1580.828991 1582.942095
171.685000 1577.754484 1579.831874 1581.489482 1581.603995 1583.477585 1586.210400
171.785000 1580.467322 1582.318066 1584.313789 1584.486961 1586.702102 1589.630564
171.885000 1583.122121 1585.215789 1587.479712 1587.614271 1590.005404 1592.495112
171.985000 1585.879930 1588.002136 1590.580716 1590.512391 1592.927774 1595.186530
172.085000 1588.422874 1590.591238 1593.357604 1593.127427 1595.484224 1597.152780
172.185000 1591.041939 1593.304158 1595.787392 1595.575309 1597.753455 1599.295659
172.285000 1593.665580 1596.097554 1598.133519 1598.013148 1599.867094 1601.516816
172.385000 1596.162664 1598.323096 1600.145178 1600.104697 1601.780253 1603.725231
172.485000 1598.500860 1600.269811 1601.985432 1602.047162 1603.862896 1605.649076
172.585000 1600.540762 1602.156678 1603.889997 1603.954688 1605.683109 1607.699137
172.685000 1602.505185 1604.192664 1605.948188 1606.000592 1607.857580 1609.720920
172.785000 1604.625971 1606.414303 1608.228320 1608.271641 1610.061665 1612.137846
172.885000 1606.648718 1608.398545 1610.247204 1610.331294 1612.275988 1614.239739
172.985000 1608.578469 1610.411748 1612.247419 1612.286939 1614.336187 1615.867364
173.085000 1610.287917 1612.057411 1614.024788 1614.065543 1616.071055 1617.661829
173.185000 1612.036309 1613.835257 1615.718613 1615.738926 1617.634819 1619.399079
173.285000 1613.764172 1615.475522 1617.356924 1617.368282 1619.235425 1621.375816
173.385000 1615.458511 1617.093899 1618.920135 1618.976876 1620.853039 1623.351945
173.485000 1617.142872 1618.680361 1620.460836 1620.588567 1622.502023 1624.798188
173.585000 1618.583919 1620.291068 1622.089936 1622.190824 1624.141282 1626.425826
173.685000 1619.819220 1621.743398 1623.661677 1623.767077 1625.813329 1628.208684
173.785000 1621.357208 1623.284424 1625.208510 1625.359899 1627.517699 1630.042169
173.885000 1622.904666 1624.946000 1626.844621 1627.012456 1629.117733 1631.542128
173.985000 1624.621718 1626.605030 1628.577980 1628.750949 1630.928858 1633.482831
174.085000 1626.065093 1628.317536 1630.612589 1630.644279 1632.979422 1635.434388
174.185000 1627.960204 1630.174869 1632.453449 1632.506979 1634.837363 1637.068412
174.285000 1629.630108 1631.940022 1634.457721 1634.377153 1636.763591 1639.109813
174.385000 1631.248056 1633.903422 1636.408274 1636.340675 1638.834962 1640.917081
174.485000 1633.405808 1636.199495 1638.529320 1638.571348 1641.063403 1643.289910
174.585000 1635.870638 1638.519580 1640.840747 1640.777617 1643.099394 1645.378462
174.685000 1637.880224 1640.502923 1642.993079 1642.892194 1645.332057 1647.567381
174.785000 1640.226561 1642.579090 1645.049320 1644.967513 1647.239235 1649.368636
174.885000 1642.511268 1644.767824 1647.080662 1647.060523 1649.277313 1651.166651
174.985000 1644.413539 1646.769636 1648.984187 1648.976204 1651.127415 1652.952249
175.085000 1646.393916 1648.641754 1650.701780 1650.661295 1652.684494 1654.281969
175.185000 1648.369404 1650.297255 1652.198162 1652.130855 1654.055679 1655.519789
175.285000 1649.854746 1651.774182 1653.553905 1653.479981 1655.239038 1656.736651
175.385000 1651.536732 1653.076859 1654.726359 1654.752363 1656.478103 1657.939529
175.485000 1652.772828 1654.283409 1655.939121 1655.931415 1657.597626 1658.969290
175.585000 1654.022933 1655.470632 1657.107769 1657.099437 1658.729789 1660.118043
175.685000 1655.038409 1656.600017 1658.269261 1658.226672 1659.813933 1661.342845
175.785000 1656.110083 1657.714676 1659.379345 1659.355164 1660.975041 1662.391026
175.885000 1657.220798 1658.854189 1660.523035 1660.472536 1662.087188 1663.378433
175.985000 1658.456623 1660.012679 1661.652692 1661.591358 1663.187839 1664.565296
176.085000 1659.593717 1661.189358 1662.802944 1662.770689 1664.357582 1665.776832
176.185000 1660.723820 1662.407644 1663.971887 1663.954423 1665.502177 1667.031830
176.285000 1661.965909 1663.558389 1665.178416 1665.184761 1666.906628 1668.135530
176.385000 1663.366883 1665.076115 1666.746814 1666.765951 1668.469170 1669.918930
176.485000 1665.454468 1667.058567 1668.725785 1668.755603 1670.514247 1672.261855
176.585000 1667.874693 1669.394760 1671.022573 1671.069392 1672.724157 1674.258098
176.685000 1669.800842 1671.366676 1673.048977 1673.091242 1674.749532 1676.556558
176.785000 1671.440658 1673.045077 1674.800915 1674.834259 1676.518925 1678.487651
176.885000 1673.202658 1674.727446 1676.415913 1676.475291 1678.224100 1680.323548
176.985000 1674.761576 1676.217025 1677.957406 1678.016842 1679.727061 1682.092604
177.085000 1675.940870 1677.697163 1679.329602 1679.473050 1681.267161 1683.525070
177.185000 1677.234725 1678.977635 1680.705095 1680.897421 1682.971954 1684.940048
177.285000 1678.749024 1680.400367 1682.175878 1682.332687 1684.375392 1686.578916
177.385000 1680.126752 1681.757274 1683.748646 1683.893301 1686.082084 1688.686131
177.485000 1681.836150 1683.422130 1685.569006 1685.801985 1688.135269 1690.651297
177.585000 1683.740848 1685.581074 1687.824850 1688.021257 1690.468596 1692.895820
177.685000 1685.347127 1687.567266 1689.972477 1690.046664 1692.572909 1694.813956
177.785000 1687.004767 1689.503668 1692.281878 1692.147352 1694.700715 1696.569043
177.885000 1689.166262 1691.878818 1694.564121 1694.319159 1696.749379 1698.216006
177.985000 1691.484479 1694.498928 1696.800008 1696.556845 1698.635294 1700.212445
178.085000 1694.787798 1697.344272 1699.097536 1698.991241 1700.746194 1702.162443
178.185000 1697.132402 1699.121853 1700.875934 1700.783842 1702.445423 1703.861818
178.285000 1699.008480 1700.905990 1702.377918 1702.378742 1703.963246 1705.265545
178.385000 1700.856459 1702.322852 1703.965413 1703.887608 1705.347949 1706.704457
178.485000 1702.368972 1703.830542 1705.403798 1705.359814 1706.832978 1708.323908
178.585000 1703.740411 1705.367881 1706.844085 1706.852488 1708.351492 1709.924824
178.685000 1705.289700 1706.813957 1708.363526 1708.410042 1709.983371 1711.558444
178.785000 1707.005549 1708.439113 1709.985184 1710.027276 1711.642640 1713.465113
178.885000 1708.327530 1709.926517 1711.536992 1711.553800 1713.192425 1714.895497
178.985000 1709.926343 1711.495429 1713.127301 1713.156612 1714.862992 1716.344461
179.085000 1711.509390 1713.226579 1714.843137 1714.824299 1716.433048 1718.101332
179.185000 1713.166663 1714.783423 1716.310584 1716.344562 1717.921076 1719.531090
179.285000 1714.693035 1716.175878 1717.641382 1717.682872 1719.187864 1720.571726
179.385000 1716.027868 1717.471206 1718.998474 1719.015304 1720.498245 1721.874181
179.485000 1717.036833 1718.728850 1720.375125 1720.334940 1721.963502 1723.604205
179.585000 1718.476380 1719.981963 1721.714219 1721.735773 1723.353413 1725.472807
179.685000 1719.855971 1721.456695 1723.233805 1723.237828 1724.939079 1726.879020
179.785000 1721.227697 1722.877509 1724.654020 1724.665340 1726.430645 1728.293973
179.885000 1722.779723 1724.196519 1725.974484 1726.088384 1728.005552 1730.046349
179.985000 1724.066135 1725.669059 1727.440358 1727.508964 1729.417793 1731.292751
180.085000 1725.358534 1726.981886 1728.841808 1728.916647 1730.912345 1732.775682
180.185000 1726.723705 1728.377731 1730.345774 1730.424363 1732.497682 1734.611774
180.285000 1728.155062 1729.829364 1731.847399 1731.960568 1734.166299 1736.286265
180.385000 1729.548931 1731.460430 1733.447590 1733.487167 1735.663080 1737.598716
180.485000 1731.257190 1733.064015 1735.129535 1735.146628 1737.327815 1739.237006
180.585000 1732.852455 1734.662878 1736.854001 1736.850515 1739.048731 1740.897493
180.685000 1734.521296 1736.440762 1738.520610 1738.586590 1740.853369 1743.084784
180.785000 1736.205816 1738.176244 1740.347410 1740.414267 1742.631754 1745.028360
180.885000 1737.677075 1740.065852 1742.372631 1742.341975 1744.522165 1747.114369
180.985000 1739.512675 1741.816952 1744.311907 1744.219648 1746.445269 1748.816592
181.085000 1741.196988 1743.587777 1746.041141 1745.998390 1748.353866 1750.422720
181.185000 1743.113393 1745.499704 1747.821793 1747.810002 1750.136701 1752.122091
181.285000 1745.015382 1747.331911 1749.582827 1749.644698 1752.043874 1754.139122
181.385000 1746.738317 1749.343390 1751.568244 1751.597366 1754.005860 1756.472200
181.485000 1748.658775 1751.114042 1753.501365 1753.523551 1755.947797 1758.358818
181.585000 1750.351534 1752.727823 1755.338744 1755.334621 1757.839920 1760.591120
181.685000 1752.117000 1754.644462 1756.985526 1757.064637 1759.623852 1762.328492
181.785000 1754.127544 1756.551976 1758.737784 1758.837695 1761.405505 1763.795669
181.885000 1756.160961 1758.365175 1760.650196 1760.738737 1763.120869 1765.403381
181.985000 1758.190112 1760.293864 1762.592035 1762.641122 1765.046827 1767.169509
182.085000 1759.945757 1761.946661 1764.422119 1764.385641 1766.679452 1768.532080
182.185000 1761.489131 1763.786360 1766.088997 1766.034586 1768.284448 1770.138732
182.285000 1763.419388 1765.475029 1767.664573 1767.623359 1769.707991 1771.705282
182.385000 1765.010038 1767.137705 1769.336858 1769.246154 1771.257519 1773.137448
182.485000 1766.504555 1768.812924 1770.979870 1770.836851 1772.887591 1774.660189
182.585000 1767.983582 1770.379128 1772.503127 1772.355503 1774.373966 1775.982429
182.685000 1769.387981 1771.975846 1774.015866 1773.882333 1775.851752 1777.350538
182.785000 1771.219832 1773.647839 1775.592910 1775.498023 1777.399391 1778.938013
182.885000 1773.428477 1775.501846 1777.409550 1777.277385 1779.045356 1780.718456
182.985000 1774.914516 1777.290320 1779.128724 1779.026406 1780.741743 1782.430473
183.085000 1777.337177 1779.172376 1780.911516 1780.882706 1782.652130 1784.073061
183.185000 1779.072403 1780.796968 1782.666656 1782.612772 1784.443878 1785.874905
183.285000 1780.762003 1782.651182 1784.405527 1784.374062 1786.128358 1787.611817
183.385000 1782.497601 1784.374805 1786.057122 1786.007735 1787.647071 1789.269326
183.485000 1784.233850 1786.079760 1787.679208 1787.650074 1789.243538 1790.689812
183.585000 1786.148308 1787.846799 1789.298914 1789.310090 1790.927854 1792.266991
183.685000 1787.699679 1789.434336 1790.834159 1790.826485 1792.266877 1793.736230
183.785000 1789.235764 1790.777855 1792.183836 1792.202388 1793.578280 1794.959084
183.885000 1790.619364 1791.990067 1793.487700 1793.491177 1794.923767 1796.390195
183.985000 1792.089103 1793.355562 1794.814487 1794.842498 1796.220337 1797.913108
184.085000 1793.295453 1794.842971 1796.253512 1796.248365 1797.664886 1798.995503
184.185000 1794.847600 1796.431698 1797.759897 1797.750537 1799.144723 1800.381952
184.285000 1796.845915 1798.078333 1799.312541 1799.341870 1800.595567 1801.910654
184.385000 1798.178815 1799.405753 1800.598149 1800.610868 1801.827643 1803.132593
184.485000 1799.308240 1800.610972 1801.734706 1801.770724 1802.966189 1804.262326
184.585000 1800.480851 1801.520928 1802.707923 1802.731406 1803.952096 1805.249734
184.685000 1801.422234 1802.378685 1803.560471 1803.591051 1804.815593 1806.106934
184.785000 1802.193925 1803.139602 1804.333026 1804.393244 1805.621163 1807.127502
184.885000 1802.898657 1803.849794 1805.079819 1805.189721 1806.475215 1808.036410
184.985000 1803.517393 1804.589730 1805.861368 1805.960168 1807.305165 1809.028816
185.126667 1804.477542 1805.579801 1806.946711 1807.038028 1808.442575 1810.166051
185.268333 1805.460263 1806.539729 1808.005860 1808.098943 1809.645227 1811.340347
185.410000 1806.312003 1807.587146 1809.141061 1809.200024 1810.776595 1812.715753
185.551667 1807.176418 1808.533382 1810.254767 1810.300621 1811.929458 1813.708338
185.693333 1807.927331 1809.588405 1811.404292 1811.449867 1813.259032 1815.008851
185.835000 1809.013442 1810.680471 1812.618207 1812.555836 1814.414412 1816.140935
185.976667 1810.054732 1811.713768 1813.695323 1813.659514 1815.516546 1817.117058
186.118333 1811.304488 1812.929153 1814.872008 1814.855024 1816.774061 1818.351787
186.260000 1812.585844 1814.097446 1816.045781 1816.018250 1817.849496 1819.426991
186.401667 1813.707392 1815.342172 1817.233303 1817.170813 1818.983971 1820.461263
186.543333 1814.621002 1816.472013 1818.447989 1818.339083 1820.140430 1821.738895
186.685000 1815.767974 1817.543188 1819.579631 1819.484979 1821.282214 1822.911994
186.826667 1816.901247 1818.802753 1820.651393 1820.671141 1822.483564 1824.136728
186.968333 1818.314393 1820.066983 1821.944839 1821.858160 1823.693500 1825.447428
187.110000 1819.357403 1821.188826 1823.181356 1823.084556 1824.918287 1826.663926
187.251667 1820.608865 1822.406644 1824.342790 1824.333252 1826.188356 1828.063747
187.393333 1821.714305 1823.742686 1825.651325 1825.652146 1827.580988 1829.548175
187.535000 1823.113408 1825.104927 1826.984545 1827.069668 1829.055157 1831.150264
187.635000 1824.335217 1826.339179 1828.082948 1828.200468 1830.228404 1832.362258
187.735000 1825.536098 1827.479878 1829.326946 1829.463848 1831.628729 1833.759444
187.835000 1826.690800 1828.631504 1830.700753 1830.772318 1832.896201 1835.310735
187.935000 1827.919837 1829.825589 1832.010942 1832.148496 1834.456203 1837.132841
188.035000 1829.296261 1831.243574 1833.453905 1833.661850 1836.125609 1839.207790
188.135000 1830.888965 1832.883703 1835.097407 1835.335229 1837.804338 1841.450402
188.235000 1832.130118 1834.291729 1836.807188 1837.070214 1839.731332 1843.387114
188.335000 1833.830096 1836.000972 1838.752666 1839.000145 1841.768183 1845.945880
188.475000 1836.063245 1838.502688 1841.777342 1841.886685 1845.052345 1848.885207
188.615000 1838.463416 1841.414767 1844.949615 1844.907778 1848.153883 1851.562537
188.755000 1841.834141 1844.785327 1848.072528 1847.916868 1850.896861 1853.905480
188.895000 1845.132269 1848.374114 1851.066810 1850.918688 1853.581481 1855.869241
189.035000 1848.678368 1851.420763 1853.886381 1853.808926 1856.183451 1858.279841
189.135000 1851.100639 1853.415421 1855.750598 1855.710458 1857.916075 1860.350166
189.235000 1852.965725 1855.425680 1857.753778 1857.751618 1860.106325 1862.815305
189.335000 1854.828108 1857.320371 1859.829414 1859.850716 1862.381975 1865.139045
189.435000 1857.566781 1859.783499 1862.278710 1862.327346 1864.873254 1867.583242
189.535000 1859.985492 1862.548999 1864.791464 1864.953964 1867.513867 1870.110981
189.635000 1862.797710 1864.938449 1867.389126 1867.467804 1870.056883 1872.412563
189.735000 1865.007973 1867.138463 1869.611925 1869.646611 1872.033532 1874.255000
189.835000 1867.295475 1869.343557 1871.743616 1871.718859 1874.076940 1876.286809
189.935000 1869.095302 1871.171416 1873.534800 1873.605832 1875.988117 1878.549760
190.035000 1870.759048 1872.979760 1875.330580 1875.451571 1877.949833 1880.746438
190.135000 1873.048003 1874.988913 1877.301945 1877.599568 1880.268817 1882.968601
190.235000 1875.057249 1877.149104 1879.859141 1880.112546 1883.101670 1886.448337
190.335000 1876.989104 1879.576392 1882.928164 1883.398989 1886.934101 1892.538049
190.435000 1879.873108 1883.251165 1887.950704 1888.781178 1894.313000 1901.858895
190.535000 1884.299161 1890.389597 1896.433717 1896.373683 1901.934431 1907.799882
190.635000 1889.389871 1899.755972 1904.084200 1903.810712 1908.311129 1914.147379
190.685000 1893.326594 1903.256350 1907.369948 1907.220719 1911.628597 1918.182988
190.785000 1903.752992 1908.555306 1912.688577 1912.737070 1917.519876 1921.377504
190.885000 1911.120412 1915.038435 1918.264696 1917.943640 1920.759520 1923.505210
