depth(m) lower_95(kyr) lower_68(kyr) median(kyr) mean(kyr) upper_68(kyr) upper_95(kyr)
28.550000 691.164178 696.837920 704.091085 702.814882 708.356404 710.358604
28.630000 694.073850 699.048711 706.133943 704.986461 709.988686 711.623217
28.715000 696.667397 702.863613 708.902194 707.749346 711.812954 713.094225
28.800000 700.643239 707.516613 711.866481 710.642176 713.471922 714.419585
28.930000 711.938575 714.135940 715.289442 715.094117 716.141497 716.934177
29.005000 714.018293 715.570733 716.539394 716.464820 717.469745 718.229194
29.080000 715.750614 716.774562 717.641386 717.667288 718.648325 719.541262
29.155000 716.891653 717.837201 718.767778 718.763012 719.707502 720.596700
29.230000 718.041178 718.859969 719.842935 719.842008 720.825526 721.882146
29.305000 718.983669 719.880844 720.918531 720.934229 721.896048 723.027239
29.380000 720.065843 720.940279 722.013297 722.037327 723.016697 724.537935
29.455000 721.024401 722.084188 723.171488 723.219566 724.291822 725.891769
29.530000 722.080120 723.247070 724.352116 724.439687 725.625276 727.290334
29.605000 723.265360 724.481000 725.720687 725.907815 727.250180 729.676200
29.680000 724.904504 725.940217 727.140149 727.419938 728.974757 731.617495
29.755000 726.072821 727.327299 728.623404 728.929266 730.643276 733.100214
29.830000 727.399699 728.608961 730.214111 730.447774 732.239892 734.492565
29.940000 729.189131 730.489107 732.502513 732.615255 734.784561 736.784322
30.050000 731.040308 732.446733 734.717358 734.799020 737.199721 738.754457
30.130000 732.377299 734.137746 736.344895 736.456573 738.805357 740.247635
30.215000 733.849567 735.877866 738.493806 738.238016 740.414448 741.783779
30.300000 735.392963 737.850024 740.342170 739.962280 741.862638 742.975186
30.430000 738.381689 741.025514 742.986139 742.643846 744.159374 745.215409
30.505000 740.388078 742.706503 744.251314 744.040365 745.349198 746.572930
30.580000 742.286081 744.146889 745.457130 745.326183 746.528245 747.875595
30.655000 743.558982 745.252332 746.570935 746.501959 747.721854 749.121699
30.730000 744.871431 746.408856 747.654018 747.668984 748.931573 750.294330
30.805000 745.987902 747.524922 748.883902 748.854399 750.207991 751.509435
30.880000 747.321341 748.679614 750.062111 750.064168 751.418137 752.968363
30.955000 748.457706 749.906355 751.216644 751.290266 752.729541 754.437606
31.030000 749.804199 751.183041 752.490084 752.586138 753.969163 755.879332
31.105000 751.101886 752.436207 753.821865 753.962679 755.407260 757.716605
31.180000 752.624607 753.846913 755.193892 755.439819 757.002213 759.547493
31.260000 754.217191 755.557810 757.019844 757.392207 759.357651 761.895545
31.360000 756.124750 757.646371 760.093898 760.426274 762.977818 767.310110
31.460000 758.098907 760.242505 763.575328 763.720477 766.873334 771.239529
31.560000 760.840051 763.827923 767.379920 767.364120 770.789474 774.533307
31.640000 763.215593 767.387502 771.150228 771.071119 774.864191 779.005895
31.720000 766.488749 771.461702 774.910238 774.909406 778.572184 782.170155
31.820000 770.214963 775.036269 779.375050 779.059567 783.185215 786.182362
31.920000 773.506604 779.488513 783.905903 783.166064 786.971885 788.823559
32.020000 776.543834 784.510536 788.263405 787.151047 789.530467 790.846548
32.160000 789.814295 791.161047 792.224339 792.193517 793.170310 794.300524
32.240000 791.589707 792.959487 794.033653 794.097544 795.272262 796.744478
32.320000 793.526175 794.533726 795.641085 795.771596 796.975228 798.815085
32.420000 795.021589 796.144557 797.491244 797.582871 798.940122 800.792786
32.520000 796.586850 797.760197 799.309431 799.348289 800.860778 802.603325
32.620000 798.265714 799.519569 801.065295 801.128945 802.752564 804.287722
32.680000 799.281009 800.635678 802.120569 802.254812 803.900965 805.603871
32.770000 800.800017 802.212843 803.811827 803.902424 805.527413 807.436255
32.880000 802.754276 804.327833 806.042466 806.253767 808.036296 810.743771
32.990000 805.192993 806.756686 808.625408 808.874279 810.680818 813.853605
33.070000 806.956763 808.978454 810.685798 811.091221 813.159546 816.491350
33.155000 809.514529 811.538447 813.825779 814.363240 816.977077 822.395992
33.240000 812.215337 814.628725 817.121595 817.737830 820.930391 827.238817
33.315000 814.031018 816.751408 819.492463 820.467856 824.576803 831.696715
33.390000 816.187323 818.966906 822.129663 823.155357 828.734854 834.396370
33.520000 819.681597 822.980582 829.090550 828.971225 834.805305 840.027368
33.650000 823.672009 828.652131 834.640550 834.348558 839.710521 845.315433
33.735000 826.576253 832.406204 837.767361 837.711377 842.336704 849.786258
33.820000 829.304789 836.074719 840.803036 840.874242 845.491226 852.677011
33.895000 832.455836 839.357759 843.795055 843.882975 848.438569 854.663589
33.970000 837.069730 842.626465 846.687520 846.962998 851.920203 856.840931
34.045000 840.065732 844.910608 849.701939 849.686132 854.798998 858.360942
34.120000 843.342027 847.040148 853.139305 852.406113 857.338113 859.898099
34.195000 845.373310 849.560942 856.135890 855.100719 859.710415 861.673201
34.270000 847.593921 852.735630 858.723364 857.593880 861.584962 863.172672
34.380000 849.987680 858.097773 862.157672 860.922707 864.028804 865.310393
34.490000 852.389770 862.306742 865.067098 864.019316 866.257560 867.388471
34.570000 855.079812 864.996609 866.805706 866.076841 868.104288 869.436417
34.655000 860.154766 866.310501 868.193529 867.886515 869.863526 872.572175
34.740000 865.439197 867.769588 869.606253 869.726432 871.731144 875.469703
34.870000 869.626105 871.243700 873.182634 873.654056 876.102319 879.512232
34.970000 871.898688 873.456311 876.402451 876.690814 879.898136 883.731084
35.070000 873.858595 876.214077 879.685296 879.792970 883.298134 886.676426
35.170000 876.227654 879.147731 882.690387 882.751098 886.147038 889.504467
35.245000 877.597558 881.226122 884.952847 884.819794 888.380216 891.531284
35.320000 879.704443 883.295192 887.149116 886.781340 890.040045 893.003654
35.395000 881.163142 884.858587 888.866843 888.508879 891.731038 894.896128
35.470000 882.927461 886.630433 890.533824 890.163811 893.477745 896.107877
35.570000 885.049306 888.990738 892.768145 892.356859 895.536564 898.724597
35.670000 886.887750 891.106523 894.853139 894.449818 897.659882 900.384387
35.770000 888.978243 893.127588 896.851150 896.472615 899.527455 902.212691
35.870000 890.583556 894.999947 898.500196 898.204864 901.289404 904.032565
35.970000 892.690649 896.772357 900.138778 899.938708 902.991088 905.583019
36.070000 894.690757 898.719551 901.796394 901.620216 904.488835 907.121211
36.176667 896.430328 900.652340 903.696677 903.465152 906.218781 909.199076
36.283333 898.451174 902.559550 905.540245 905.280540 907.991386 910.492151
36.390000 900.792655 904.486184 907.273849 907.066323 909.636223 912.128806
36.520000 903.003941 906.962770 909.424379 909.259984 911.668380 913.963622
36.595000 904.079631 908.372304 910.903167 910.655327 913.016716 915.097124
36.670000 906.108610 909.979537 912.348720 912.117794 914.308037 916.356300
36.745000 908.469325 911.734544 913.924266 913.695819 915.623994 917.588620
36.820000 911.067383 913.702785 915.596123 915.413384 917.048187 919.404894
36.890000 913.009454 915.471208 917.252532 917.186783 918.744002 921.634404
36.970000 915.503559 918.257082 919.810255 919.918163 921.772447 924.093228
37.045000 916.610660 919.896233 922.279109 922.143854 924.411793 926.410686
37.120000 917.865228 921.626516 924.405398 924.051538 926.365186 928.285013
37.225000 920.190632 923.496884 926.425615 926.060595 928.398802 930.142860
37.330000 922.848278 925.501522 928.257985 927.965853 930.168250 931.985947
37.410000 925.133592 927.540772 929.896247 929.703421 931.752659 933.817854
37.490000 927.019299 929.395652 931.528195 931.457843 933.507060 935.597035
37.565000 928.629689 931.089014 933.106230 933.179146 935.268090 937.609845
37.640000 930.907301 932.851077 934.828423 934.970356 937.288149 939.554913
37.740000 933.028465 935.043298 937.131301 937.239448 939.716582 941.414444
37.880000 935.883965 937.942649 940.650019 940.548701 942.990299 945.130261
38.020000 939.025709 941.587725 943.891440 943.865667 946.211906 948.331106
38.095000 940.599715 942.938542 945.518216 945.396006 947.814848 950.020396
38.170000 942.047937 944.374172 946.962602 946.841640 949.238789 951.270883
38.270000 943.768117 946.232110 948.864846 948.662772 951.023328 952.674915
38.380000 945.827003 948.342214 950.771498 950.569274 952.894952 954.201480
38.490000 948.298288 950.484078 952.665408 952.513362 954.556850 955.813078
38.620000 951.383807 953.164801 955.127971 954.979565 956.652879 957.843481
38.750000 954.725497 956.708739 958.135860 957.980758 959.172773 960.617966
38.830000 959.474102 960.572397 962.014535 962.076793 963.539640 965.048197
38.910000 961.150424 962.691134 964.223491 964.241082 965.721132 967.334411
38.990000 962.804149 964.699946 966.153519 966.129490 967.691495 969.299010
39.070000 964.119836 966.462691 968.154321 968.238402 970.308621 972.044690
39.155000 965.839096 967.839862 969.682268 969.878326 972.144128 974.052687
39.240000 967.828120 969.332580 971.144622 971.440774 973.709815 975.769988
39.370000 969.927287 971.629177 973.721422 973.906062 976.229071 978.610365
39.445000 971.358873 973.087526 975.378395 975.440767 977.845917 980.085571
39.520000 972.938962 974.735309 976.996846 977.063852 979.379542 981.631521
39.650000 975.400148 977.588130 979.961368 979.913610 981.977475 984.624527
39.735000 977.432580 979.722250 981.989779 982.058177 984.350982 987.244126
39.820000 979.678230 982.004231 984.037007 984.270645 986.788144 989.294398
39.895000 981.239557 983.689432 986.030976 986.088971 988.611777 990.528972
39.970000 983.082841 985.553911 988.105478 987.948596 990.275959 992.192466
40.045000 985.043533 987.763839 990.088860 989.882789 991.925652 993.643890
40.120000 986.838131 989.716412 991.756229 991.631131 993.590560 994.975963
40.220000 989.682319 991.898839 993.800076 993.627136 995.382598 996.768660
40.320000 991.876053 993.854738 995.659798 995.486904 997.155865 998.107564
40.405000 993.349634 995.313661 997.071083 996.915954 998.489750 999.581563
40.490000 994.937181 996.846817 998.532131 998.362450 999.755101 1000.842718
40.570000 996.735970 998.499259 999.975878 999.830503 1001.076590 1002.319304
40.655000 998.745171 1000.460464 1001.765195 1001.842201 1003.233585 1005.215457
40.740000 1001.555060 1002.487717 1003.581446 1003.991411 1005.750540 1008.322696
40.840000 1003.380238 1004.356614 1006.001963 1006.365417 1008.407034 1010.982770
40.930000 1005.094960 1006.519799 1008.794590 1008.955625 1011.288822 1014.048529
41.020000 1007.578324 1009.192723 1011.621518 1011.717363 1014.035165 1016.795158
41.095000 1009.471697 1011.313023 1013.718372 1013.786436 1016.205647 1018.460316
41.170000 1011.266006 1013.552974 1015.692382 1015.705352 1017.896071 1019.833023
41.245000 1012.963470 1015.091611 1017.522114 1017.362846 1019.510875 1021.204426
41.320000 1014.430517 1016.800311 1019.130917 1018.898359 1020.900185 1022.395897
41.395000 1016.092691 1018.506962 1020.653581 1020.431664 1022.347054 1023.639002
41.470000 1017.618143 1020.177310 1022.066389 1021.885384 1023.644449 1024.863268
41.545000 1019.198674 1021.619307 1023.416498 1023.215218 1024.820532 1025.983367
41.620000 1020.847507 1023.045391 1024.614487 1024.498413 1026.038778 1027.255686
41.670000 1021.620182 1023.920400 1025.538311 1025.356498 1026.874017 1028.007795
41.750000 1023.038820 1025.252452 1026.772363 1026.642846 1028.026677 1029.298802
41.830000 1024.583493 1026.565254 1028.052344 1027.929014 1029.349374 1030.541672
41.970000 1027.153500 1028.914117 1030.365249 1030.284745 1031.666229 1032.950549
42.070000 1029.026994 1030.798961 1032.234148 1032.290816 1033.785083 1035.847445
42.170000 1031.243178 1032.625789 1034.099426 1034.328026 1036.002773 1039.036413
42.270000 1033.413619 1034.599902 1036.014325 1036.367411 1038.199993 1041.311246
42.330000 1034.476274 1035.609743 1037.248747 1037.543919 1039.511857 1042.329333
42.430000 1036.006449 1037.276628 1039.012063 1039.324558 1041.503540 1044.328733
42.570000 1038.054880 1039.397323 1041.446166 1041.775161 1044.131320 1047.086216
42.670000 1039.536955 1041.041300 1043.292029 1043.681420 1046.454638 1049.680802
42.770000 1041.230325 1042.693020 1045.125413 1045.490552 1048.453271 1051.667747
42.870000 1042.793601 1044.532147 1046.982601 1047.425217 1050.592903 1053.361046
42.970000 1044.479704 1046.481510 1049.427958 1049.619706 1052.869540 1055.355521
43.070000 1046.270988 1048.735461 1051.746502 1051.872476 1055.197949 1057.277898
43.170000 1048.789845 1051.373791 1054.282721 1054.190313 1057.036098 1058.953141
43.245000 1050.360279 1052.962417 1055.903412 1055.700192 1058.285419 1060.131916
43.320000 1052.342607 1054.664594 1057.445068 1057.240856 1059.605109 1061.283146
43.430000 1054.565941 1057.065761 1059.509074 1059.348063 1061.618012 1063.069425
43.540000 1057.471184 1059.529804 1061.563114 1061.527970 1063.578895 1065.148003
43.625000 1059.809927 1061.828366 1063.806359 1063.688613 1065.543017 1066.948756
43.710000 1062.647749 1064.240727 1065.855898 1065.759801 1067.251931 1068.696751
43.790000 1064.119861 1065.787532 1067.274156 1067.216896 1068.617366 1070.227453
43.920000 1066.141109 1067.693667 1069.249796 1069.200292 1070.608968 1072.364762
43.995000 1067.291547 1068.878648 1070.398722 1070.420044 1071.884691 1073.680500
44.070000 1068.441970 1070.049930 1071.624025 1071.610094 1073.125887 1074.996175
44.145000 1069.752507 1071.268303 1072.820474 1072.864706 1074.385992 1076.370062
44.220000 1070.919081 1072.592638 1074.152165 1074.166656 1075.750057 1077.624128
44.295000 1072.136017 1073.865908 1075.561014 1075.622333 1077.371665 1079.566839
44.370000 1073.544666 1075.345977 1076.999559 1077.219568 1079.096090 1081.846413
44.470000 1075.526295 1077.438982 1079.576113 1079.893577 1082.373316 1085.965575
44.570000 1077.959934 1080.012583 1082.547520 1082.823737 1085.746613 1089.043610
44.670000 1080.040361 1082.728400 1085.646583 1085.706023 1088.610530 1091.643405
44.745000 1081.989508 1084.731790 1087.904542 1087.994167 1090.979359 1096.421166
44.820000 1083.872527 1086.812044 1090.060143 1090.205991 1093.086287 1101.650557
44.900000 1085.667239 1088.808189 1092.300386 1092.815200 1096.071857 1104.323819
45.040000 1088.976577 1092.334007 1103.249121 1100.240817 1105.564502 1107.113923
45.120000 1090.917703 1094.606851 1104.962051 1102.557928 1106.931993 1108.704642
45.205000 1094.283234 1100.970524 1106.568906 1105.154280 1108.261358 1110.191892
45.290000 1101.986245 1105.951632 1108.058844 1107.717552 1109.720577 1111.599416
45.400000 1106.782062 1108.321019 1109.985425 1109.924174 1111.573664 1113.782792
45.485000 1108.606112 1110.163838 1111.754903 1111.828393 1113.679500 1116.213678
45.570000 1110.240622 1111.920440 1113.639853 1113.808655 1115.822470 1118.252530
45.670000 1112.186038 1114.069907 1116.261414 1116.474348 1119.019958 1122.510623
45.770000 1114.248677 1116.528646 1118.985826 1119.334534 1122.173680 1126.106891
45.870000 1116.973348 1119.335071 1121.732666 1122.244646 1125.423520 1129.297179
45.945000 1119.416368 1121.644118 1124.229407 1124.543859 1127.553892 1131.233783
46.020000 1122.257096 1124.099381 1126.690059 1126.896097 1129.457660 1132.931390
46.090000 1124.085504 1126.577147 1129.258140 1129.416713 1132.130585 1136.030526
46.165000 1126.636225 1129.136135 1131.897815 1132.151166 1135.122912 1139.164435
46.240000 1129.012446 1131.586058 1134.244307 1134.807952 1138.363648 1142.402680
46.325000 1131.435156 1134.096379 1137.161183 1137.629646 1141.628485 1145.496844
46.410000 1133.761845 1136.442677 1140.120728 1140.386487 1144.544011 1147.797016
46.525000 1136.565488 1139.900358 1144.113616 1143.953238 1147.970842 1150.832502
46.640000 1139.626504 1143.789430 1147.969233 1147.453400 1151.032798 1153.307697
46.715000 1141.415050 1145.933585 1150.043322 1149.481874 1152.794528 1155.150411
46.790000 1143.411133 1148.128842 1151.971010 1151.410586 1154.434202 1156.618259
46.920000 1146.753616 1151.309954 1154.806069 1154.349116 1157.049591 1159.664174
47.046667 1149.576347 1154.137280 1157.121788 1156.716394 1159.279586 1161.888109
47.173333 1152.162404 1156.441936 1159.364865 1158.968907 1161.419495 1163.846135
47.300000 1154.746098 1158.886667 1161.433696 1161.211383 1163.532843 1166.178685
47.410000 1156.797629 1160.702261 1163.259258 1163.073456 1165.433963 1168.696800
47.520000 1158.837720 1162.630985 1165.059157 1164.966403 1167.359152 1170.637078
47.595000 1160.283946 1163.990980 1166.359704 1166.364815 1168.742654 1172.869131
47.670000 1161.708583 1165.377221 1167.685192 1167.808478 1170.246332 1174.722379
47.800000 1164.107798 1167.631238 1170.093389 1170.365960 1173.117770 1178.834603
47.910000 1165.567379 1169.869522 1172.283079 1172.717405 1175.640901 1181.829535
48.040000 1168.069112 1172.376362 1174.992546 1175.464824 1178.663952 1184.257249
48.120000 1170.238359 1174.307685 1177.020975 1177.499770 1180.963346 1185.923076
48.205000 1172.560152 1176.236847 1179.656743 1179.909812 1184.411031 1187.550551
48.290000 1174.706595 1178.449624 1182.507879 1182.524464 1187.127695 1188.923204
48.420000 1179.905166 1183.610312 1187.842034 1187.073089 1190.183508 1191.427080
48.460000 1181.216076 1185.200191 1188.895810 1188.194494 1190.831003 1192.126547
48.570000 1189.937692 1191.113122 1192.037362 1192.062475 1193.093051 1193.994709
48.700000 1192.512381 1193.493704 1194.367415 1194.410856 1195.332792 1196.335942
48.720000 1192.972122 1193.899340 1194.779139 1194.823740 1195.794817 1196.920653
48.795000 1194.326122 1195.222038 1196.172620 1196.270947 1197.315146 1198.662244
48.870000 1195.631081 1196.523069 1197.473861 1197.644728 1198.787226 1200.267775
48.945000 1196.789816 1197.815160 1198.816474 1198.982508 1200.216667 1201.932227
49.020000 1197.963615 1198.998090 1200.114718 1200.277854 1201.626030 1203.344575
49.090000 1199.247007 1200.223031 1201.332961 1201.500813 1202.840339 1204.734762
49.170000 1200.440986 1201.459030 1202.628183 1202.839050 1204.264479 1206.137879
49.245000 1201.596616 1202.675848 1203.959431 1204.147287 1205.656076 1207.606953
49.320000 1202.730129 1203.899622 1205.226500 1205.465987 1207.021284 1209.358131
49.390000 1203.910212 1204.976027 1206.472180 1206.842446 1208.558009 1212.081575
49.465000 1205.326880 1206.414081 1208.361058 1208.936662 1211.642602 1215.155211
49.540000 1206.642462 1207.926688 1210.547693 1211.344270 1215.163206 1218.079134
49.620000 1208.338300 1209.956665 1214.299901 1214.118984 1218.036140 1220.313302
49.705000 1210.271695 1213.014187 1218.077547 1217.463880 1221.128201 1223.056164
49.790000 1212.609318 1217.667946 1221.619135 1220.868673 1223.821366 1225.854191
49.920000 1220.132814 1223.673380 1225.862858 1225.786980 1228.076517 1230.397144
49.995000 1223.164963 1226.087476 1228.082951 1228.212845 1230.583223 1233.293703
50.070000 1226.013538 1228.182136 1230.330621 1230.380923 1232.701385 1235.329729
50.145000 1227.524200 1229.834452 1232.011108 1232.157429 1234.598617 1236.731344
50.220000 1229.400910 1231.388884 1233.869374 1233.840870 1236.372780 1238.122001
50.295000 1230.959627 1233.144257 1235.545092 1235.472203 1237.892275 1239.457828
50.370000 1232.510352 1234.708036 1237.191775 1237.064491 1239.365911 1240.842972
50.445000 1234.080222 1236.428825 1238.722438 1238.608166 1240.767048 1242.042209
50.520000 1235.778097 1238.320109 1240.436834 1240.224550 1242.135557 1243.500622
50.620000 1238.453256 1240.987091 1243.015215 1242.788401 1244.451160 1246.053192
50.720000 1241.317162 1243.886757 1245.395858 1245.286995 1246.792703 1248.295555
50.820000 1245.545584 1246.488018 1247.587910 1247.719952 1249.011841 1250.295423
50.890000 1246.849597 1247.776751 1248.881035 1249.000786 1250.343349 1251.728047
50.965000 1248.031772 1249.004622 1250.115867 1250.245694 1251.568549 1253.167934
