depth(m) lower_95(kyr) lower_68(kyr) median(kyr) mean(kyr) upper_68(kyr) upper_95(kyr)
31.670000 714.147481 714.990537 715.838621 715.825321 716.623683 717.491143
31.770000 715.868670 716.588533 717.340005 717.367402 718.095320 719.131540
31.870000 717.159590 717.946993 718.732771 718.751555 719.552938 720.416066
31.970000 718.491090 719.256574 720.106949 720.132499 720.972750 722.026119
32.070000 719.890305 720.640693 721.491002 721.567966 722.435998 723.741132
32.170000 721.251843 722.097887 723.047521 723.195731 724.238856 726.179491
32.270000 722.770095 723.651675 724.836230 725.210020 726.700266 730.369181
32.370000 724.246394 725.467445 727.074610 727.779040 730.548584 734.155730
32.470000 725.564896 727.209527 730.360995 730.628453 734.246260 736.488241
32.570000 727.257376 729.605250 733.868418 733.377358 736.605357 738.473365
32.670000 729.551775 732.708582 736.436503 735.901446 738.699523 740.254922
32.770000 732.087315 735.461043 738.740458 738.171916 740.450707 741.876977
32.870000 735.426252 738.497804 740.832072 740.395917 742.166608 743.498395
32.970000 738.226806 741.186891 742.876415 742.538225 743.835839 745.034529
33.070000 742.400998 743.894637 744.888401 744.881602 745.939773 747.228267
33.170000 744.465899 745.568728 746.608813 746.667331 747.756229 749.258794
33.270000 745.900444 747.130310 748.257640 748.395943 749.684253 751.485440
33.370000 747.337216 748.716225 749.964237 750.085632 751.530010 753.591696
33.470000 748.939746 750.242769 751.708255 751.810242 753.350960 755.563638
33.603333 751.028826 752.493284 754.137273 754.278254 756.023321 758.601697
33.736667 753.091468 754.686757 756.489697 756.800806 758.846022 762.411356
33.870000 755.415309 757.060469 759.034751 759.391858 761.702410 765.345817
33.970000 757.085912 758.774425 761.294854 761.500684 764.223508 766.950998
34.070000 758.936069 760.630014 763.712846 763.737451 766.703176 769.135663
34.170000 760.994968 763.016465 766.323242 766.315316 769.293860 771.468580
34.270000 763.419154 765.986793 769.239392 769.338979 772.507708 776.277305
34.370000 766.665731 769.283577 772.372483 772.617793 775.793745 780.317948
34.470000 771.183797 773.841085 777.115546 777.210837 780.711902 784.479062
34.560000 774.169711 777.098471 780.755336 780.672128 784.401969 786.940126
34.660000 777.100037 781.122392 785.275563 784.615235 787.796096 789.241072
34.760000 782.076573 786.337755 789.341245 788.705730 790.862818 792.135237
34.860000 789.568666 791.034523 792.241487 792.122345 793.207742 794.207258
34.960000 791.750965 792.791086 793.953478 793.906118 795.020146 795.988335
35.060000 793.501216 794.424118 795.497577 795.520279 796.580929 797.656106
35.160000 795.014956 796.037683 797.066366 797.090357 798.179740 799.403819
35.260000 796.451778 797.573465 798.655372 798.677994 799.811810 801.111137
35.360000 798.021826 799.121203 800.311355 800.351045 801.584946 802.987846
35.460000 799.464821 800.802096 802.128161 802.211926 803.599722 805.357909
35.560000 801.535480 802.876991 804.377413 804.605006 806.320886 809.234109
35.693333 804.105505 805.585779 808.169048 808.945662 812.453162 817.050710
35.826667 806.493178 809.095256 813.431714 813.683573 818.227956 821.814982
35.960000 809.406073 814.483024 818.859782 818.469904 822.655478 825.304658
36.060000 811.137223 818.366085 822.589804 821.839346 825.181957 828.430307
36.160000 812.822863 823.230812 825.818887 825.057308 827.999852 831.935598
36.260000 814.679869 825.909520 828.318919 827.798710 830.787447 835.623298
36.360000 817.239458 828.093816 831.068780 830.660204 834.212044 838.407140
36.460000 820.977995 830.260772 833.912701 833.498876 837.368587 841.202650
36.560000 825.561896 832.916621 836.992287 836.527307 840.340873 843.715687
36.660000 829.744463 836.396735 840.594997 840.318247 844.480667 848.818741
36.760000 833.280248 839.741291 844.285333 843.987447 848.041407 853.161622
36.893333 837.999644 844.049197 848.585780 848.353167 852.724211 857.057370
37.026667 842.635422 848.540524 853.007888 852.746521 857.080783 860.937735
37.160000 849.585247 853.824891 857.419552 857.571890 861.585997 864.454681
37.260000 855.815393 859.067716 862.409927 862.125726 864.869714 867.276913
37.360000 867.254410 869.717654 871.688602 871.582060 873.462366 875.171272
37.460000 870.428867 872.421773 874.305574 874.263998 876.019685 878.032074
37.560000 872.408388 874.373748 876.414445 876.420145 878.395171 880.475413
37.660000 874.070648 876.293784 878.489257 878.515355 880.766752 882.884117
37.760000 875.809067 878.073275 880.332330 880.452844 883.062384 885.206795
37.860000 877.507717 879.675899 882.202141 882.275261 884.960231 887.233996
37.960000 879.401674 881.516930 883.982246 884.100297 886.935054 889.039983
38.060000 880.994242 883.392399 885.939414 886.036534 888.832390 890.960849
38.160000 882.975376 885.454216 888.075321 888.083596 890.815403 893.118323
38.260000 884.864285 887.713095 890.477299 890.310686 892.973191 894.969864
38.360000 887.168469 889.992273 892.808519 892.557343 894.997469 897.154873
38.460000 889.845160 892.542724 895.000255 894.927126 897.128231 899.639852
38.560000 893.201285 895.236830 897.388930 897.579998 899.758178 903.148325
38.660000 895.975778 897.982240 900.157666 900.480228 902.972789 906.886210
38.760000 898.187337 900.400599 902.908262 903.272131 906.203059 910.257099
38.860000 900.261033 902.679144 905.583017 906.043540 909.388367 914.379559
38.993333 903.201410 905.768398 908.861997 909.531635 913.116910 919.464613
39.126667 906.014464 909.000626 912.299569 913.106743 918.707133 923.370575
39.260000 909.475976 912.564569 915.563577 916.670492 923.105221 925.978515
39.360000 912.495137 915.876504 918.348889 919.763376 925.818705 928.360460
39.460000 915.821256 919.454366 922.664916 923.285313 928.096075 930.437462
39.560000 919.314559 923.608051 927.024698 926.908435 930.504863 932.390526
39.660000 925.467725 928.064721 930.815899 930.698701 933.293582 935.127391
39.760000 928.682705 931.408969 933.645971 933.497094 935.622270 937.369532
39.860000 932.010678 934.401483 936.511104 936.327231 938.258584 939.894713
39.960000 934.394778 936.949551 939.126164 938.886709 940.769879 942.407159
40.060000 937.777443 940.298258 942.211771 942.212582 944.052724 946.788256
40.160000 942.280418 944.116896 946.147511 946.400712 948.784606 952.157954
40.260000 945.756613 947.731654 950.414235 950.403878 953.162942 955.151273
40.360000 949.025213 952.017762 954.888899 954.374899 956.409583 957.781889
40.460000 954.618241 957.962012 958.899181 958.768116 959.775218 960.819579
40.560000 960.514421 961.745216 963.181015 963.377238 965.135400 967.223176
40.660000 962.576718 964.657978 967.086044 966.919733 969.022284 971.187141
40.760000 965.374663 967.544703 969.627289 969.834953 972.294844 974.472034
40.860000 969.624208 971.061217 973.337876 973.450233 975.783314 977.709198
40.960000 971.769728 973.668404 976.289785 976.059250 978.225757 979.865097
41.060000 973.789790 976.011083 978.632177 978.393025 980.362804 981.797077
41.160000 976.295368 978.725676 980.781581 980.632707 982.174726 983.788692
41.260000 978.672922 981.287399 982.881603 982.880952 984.212107 985.837030
41.360000 981.317826 983.342865 984.904130 985.015655 986.224118 988.161201
41.460000 983.518710 985.358197 986.838616 987.070000 988.176267 990.351794
41.560000 985.802525 987.401249 988.830633 989.105678 990.227456 992.455991
41.660000 988.199582 989.548326 991.027621 991.345933 992.506910 995.024623
41.760000 990.237484 991.841894 993.379612 993.785199 995.060239 998.729578
41.860000 992.580570 994.118814 995.879443 996.289755 997.868163 1002.052639
41.960000 994.969097 996.561919 998.352236 998.981605 1000.460272 1009.100788
42.060000 997.627743 999.431021 1000.999061 1001.814844 1002.925687 1013.283660
42.160000 1001.621546 1002.913988 1004.407065 1005.489696 1008.258850 1015.618415
42.260000 1004.040961 1005.902198 1008.598172 1009.392327 1013.126928 1019.121259
42.360000 1007.183619 1009.538869 1012.455427 1013.247573 1018.104210 1021.583310
42.460000 1010.550553 1013.822172 1017.006895 1017.615554 1022.173280 1025.057037
42.560000 1013.306357 1017.445405 1021.134107 1021.093957 1025.019873 1027.295370
42.660000 1016.804311 1021.300076 1024.883155 1024.488866 1027.729969 1029.706923
42.760000 1020.680627 1025.251604 1028.433587 1027.886692 1030.517531 1032.461374
42.860000 1025.118381 1029.314098 1031.595354 1031.274991 1033.217335 1035.557892
42.960000 1029.500721 1032.454865 1034.654581 1034.788154 1037.215554 1040.394916
43.060000 1033.856954 1035.436225 1037.831056 1038.153575 1041.134995 1043.708645
43.160000 1035.949638 1038.078444 1041.064639 1041.048354 1044.082694 1046.480866
43.260000 1037.894681 1040.660024 1043.917684 1043.723553 1046.649338 1048.815645
43.360000 1040.046612 1043.282542 1046.480345 1046.205272 1048.986272 1051.155018
43.460000 1042.723156 1045.912810 1048.671477 1048.504063 1051.102523 1052.993041
43.560000 1045.425253 1048.214377 1050.952166 1050.720406 1053.151926 1055.144127
43.660000 1047.464807 1050.491589 1053.014016 1052.895732 1055.329825 1057.123150
43.760000 1049.691711 1052.832848 1055.252501 1055.120729 1057.475628 1059.529580
43.860000 1052.294125 1055.142090 1057.591258 1057.387122 1059.620457 1061.482359
43.960000 1055.220752 1057.800979 1059.924749 1059.808876 1061.802141 1063.675620
44.060000 1059.754511 1061.526377 1063.068973 1063.228512 1064.920581 1067.312966
44.160000 1062.939002 1064.594917 1066.376609 1066.606533 1068.554916 1072.112148
44.170000 1063.370338 1064.868918 1066.758335 1066.970343 1069.056062 1072.657750
44.270000 1066.148575 1068.005442 1070.778016 1070.955304 1073.909145 1076.331490
44.370000 1068.956930 1072.018424 1075.860471 1075.601841 1078.647992 1081.969526
44.470000 1072.460069 1076.434433 1080.264982 1080.028124 1083.621961 1086.255922
44.570000 1077.711843 1081.338191 1084.405300 1084.237002 1087.237930 1089.435339
44.670000 1082.721106 1085.739904 1088.312454 1088.125353 1090.486080 1092.399988
44.770000 1086.221081 1088.904334 1091.179002 1090.918468 1092.870314 1094.372186
44.870000 1089.003127 1091.496457 1093.524937 1093.293360 1095.014633 1096.228201
44.970000 1092.187026 1094.239197 1095.880898 1095.709902 1097.091971 1098.454328
45.070000 1094.966622 1097.010304 1098.448168 1098.313364 1099.608615 1100.846854
45.170000 1097.257431 1099.082545 1100.663458 1100.533749 1101.914175 1103.242193
45.270000 1099.756389 1101.428302 1102.740973 1102.717181 1104.031927 1105.336077
45.370000 1102.615051 1103.673261 1104.972295 1105.112870 1106.478180 1108.581444
45.470000 1105.165708 1106.368405 1107.969569 1108.067314 1109.739204 1111.760407
45.570000 1107.586979 1109.508309 1111.334543 1111.394966 1113.272048 1115.149582
45.670000 1110.950871 1112.943498 1114.769088 1114.859327 1116.824451 1118.811529
45.770000 1114.406957 1116.196477 1118.368605 1118.394856 1120.419492 1122.924245
45.870000 1118.696382 1120.808665 1122.942004 1123.020866 1125.185766 1127.595751
45.970000 1121.468019 1124.054411 1126.555299 1126.619437 1129.155342 1131.875420
46.070000 1123.953635 1127.155830 1130.297341 1130.315101 1133.564614 1136.588767
46.170000 1126.381662 1129.550209 1133.038702 1133.070004 1136.630145 1139.542826
46.270000 1128.992181 1132.000740 1135.499534 1135.613360 1139.199882 1142.357220
46.370000 1131.479396 1134.452160 1138.207435 1138.167166 1141.862775 1144.464795
46.470000 1133.930026 1137.411583 1141.276319 1140.958345 1144.315500 1147.040265
46.570000 1137.196495 1140.782685 1144.398248 1144.177580 1147.490505 1150.322760
46.670000 1140.314495 1145.082668 1148.485266 1148.309314 1151.715607 1155.098166
46.770000 1145.111667 1149.180034 1152.610913 1152.454538 1155.707784 1159.326794
46.870000 1149.829552 1153.091075 1156.317660 1156.289991 1159.632416 1162.969229
46.970000 1152.780078 1155.955290 1159.185078 1159.269001 1162.484714 1165.925197
47.070000 1155.172887 1158.504604 1161.731612 1161.833354 1165.049501 1169.868637
47.170000 1157.342265 1161.097345 1164.227932 1164.396761 1167.500624 1173.326793
47.270000 1159.317999 1163.596280 1166.724877 1166.974847 1170.131172 1176.379443
47.370000 1161.093697 1166.043969 1169.551691 1169.741474 1173.421133 1179.290493
47.470000 1163.973271 1168.690818 1172.427700 1172.642610 1176.941501 1182.118925
47.570000 1166.806320 1171.317215 1175.403519 1175.532493 1179.915364 1184.371444
47.670000 1170.229056 1174.660247 1178.965222 1178.927278 1183.517133 1186.414986
47.770000 1173.662460 1178.807561 1183.213460 1182.643344 1186.692894 1188.474840
47.870000 1178.999900 1183.673813 1187.704469 1186.782925 1189.474924 1190.480544
47.970000 1189.044424 1190.789085 1191.755408 1191.689710 1192.731916 1193.957449
48.070000 1191.712715 1192.655244 1193.732390 1193.769456 1194.857457 1196.230258
48.170000 1193.566793 1194.532935 1195.663376 1195.817049 1197.018364 1199.337584
48.270000 1195.410896 1196.594969 1197.847760 1198.028218 1199.570554 1201.389681
48.370000 1197.160020 1198.505620 1200.062328 1200.165593 1201.908878 1203.671772
48.470000 1199.073602 1200.549503 1202.194913 1202.291836 1204.143731 1205.941569
48.570000 1200.786888 1202.601122 1204.438270 1204.461713 1206.192272 1208.254639
48.670000 1202.885154 1204.676382 1206.443210 1206.542942 1208.136710 1211.226598
48.770000 1205.293601 1206.890822 1208.415219 1208.750002 1210.361871 1214.948104
48.870000 1208.105384 1209.579863 1211.018098 1211.501938 1213.658671 1217.199587
48.970000 1209.794619 1211.766474 1213.644669 1214.032112 1216.501569 1219.473520
49.070000 1211.901465 1214.015323 1216.424670 1216.620160 1219.347991 1221.696307
49.170000 1214.431358 1216.708169 1219.502756 1219.314617 1221.632936 1223.808400
49.270000 1217.397414 1220.191152 1222.431111 1222.281773 1224.182966 1226.571084
49.370000 1220.536566 1223.123748 1224.921994 1225.132724 1227.085869 1231.202292
49.470000 1224.365964 1226.073856 1228.444137 1228.867681 1231.824517 1235.989188
49.570000 1227.995208 1230.453988 1233.474664 1233.579584 1236.880283 1239.629453
49.670000 1232.030255 1235.134777 1238.205313 1237.975464 1240.837799 1242.260236
49.710000 1233.608211 1236.753815 1239.891251 1239.527382 1242.119674 1243.305522
49.770000 1237.191984 1240.048296 1242.265904 1241.939234 1243.753932 1244.844135
49.810000 1239.066005 1243.027101 1244.571826 1244.203805 1245.566397 1246.525815
49.910000 1245.163973 1246.115067 1247.183386 1247.288007 1248.474428 1249.979265
50.010000 1247.050129 1248.039153 1249.390943 1249.491479 1250.950984 1252.588846
50.110000 1248.594139 1249.738000 1251.300800 1251.369530 1253.051549 1254.829871
50.210000 1250.117350 1251.343235 1253.072371 1253.196016 1254.973046 1257.063994
50.310000 1251.691992 1253.046364 1254.925398 1255.009577 1257.047684 1259.253786
50.410000 1253.434088 1254.946402 1256.842451 1256.988905 1259.034134 1261.356065
50.510000 1255.472753 1257.008396 1259.046254 1259.202903 1261.406641 1263.604460
50.610000 1257.639834 1259.229896 1261.386819 1261.564439 1263.990831 1266.210112
50.710000 1259.550547 1261.430263 1263.715480 1263.735000 1266.013781 1268.446870
50.810000 1261.302171 1263.816685 1266.075774 1266.102679 1268.412131 1270.760397
50.910000 1263.679925 1266.091338 1268.389954 1268.373040 1270.703568 1272.923241
51.010000 1266.183322 1268.530998 1270.982543 1270.938545 1273.247517 1275.972952
51.110000 1268.268107 1270.669367 1273.100916 1273.060110 1275.341556 1277.966980
51.210000 1270.013605 1272.479443 1275.138331 1274.979584 1277.353579 1279.665198
51.310000 1272.270517 1274.656965 1276.924353 1276.933008 1279.214797 1281.305769
51.410000 1274.298937 1276.799709 1279.057106 1279.011716 1281.249854 1283.277336
51.510000 1276.672564 1279.396120 1281.416221 1281.396227 1283.542623 1285.495698
51.610000 1280.136473 1282.629680 1284.801615 1284.708485 1286.806595 1288.873355
51.710000 1284.558582 1286.418130 1288.058181 1288.029166 1289.590190 1291.417895
51.810000 1287.202583 1288.594002 1289.994456 1290.107274 1291.735880 1293.448216
51.910000 1289.077964 1290.371757 1291.788897 1291.921004 1293.564651 1295.317682
52.010000 1290.825805 1292.250695 1293.798569 1293.921390 1295.728758 1297.390560
52.110000 1292.717361 1294.319466 1296.080376 1296.118737 1297.849628 1299.811144
52.210000 1294.476298 1296.260728 1298.351987 1298.219892 1299.989042 1302.046891
52.310000 1296.417583 1298.766731 1300.702798 1300.585742 1302.237013 1304.283536
52.410000 1298.794426 1301.127404 1302.922743 1302.866228 1304.613784 1306.517284
52.510000 1301.133180 1302.984291 1304.738691 1304.761932 1306.526310 1308.157585
52.610000 1302.692278 1304.589350 1306.516845 1306.436108 1308.259684 1310.111316
52.710000 1303.904758 1306.152894 1308.094126 1307.981625 1309.748400 1311.497892
52.810000 1305.267213 1307.612071 1309.632251 1309.454200 1311.254825 1312.852917
52.910000 1306.807116 1309.216847 1311.086110 1310.956251 1312.694516 1314.496213
53.010000 1308.041900 1310.727665 1312.632562 1312.471500 1314.196629 1315.660532
53.110000 1309.799131 1312.315204 1314.095492 1314.005740 1315.690857 1317.138301
53.210000 1311.484026 1313.984079 1315.603160 1315.534108 1317.146945 1318.540892
53.310000 1312.974151 1315.593893 1317.198221 1317.078746 1318.607445 1320.067502
53.410000 1314.898823 1317.056257 1318.570423 1318.533115 1320.067586 1321.360255
53.510000 1316.533173 1318.557062 1319.963397 1319.921562 1321.412537 1322.700524
53.610000 1317.962209 1319.919328 1321.398860 1321.296493 1322.785777 1324.049532
53.710000 1319.430058 1321.255381 1322.775674 1322.694991 1324.152265 1325.433633
53.810000 1321.225329 1322.711660 1324.261467 1324.171134 1325.525194 1326.932152
53.910000 1322.761631 1324.350099 1325.781598 1325.729485 1327.126735 1328.333140
54.010000 1324.633653 1326.033586 1327.475668 1327.455574 1328.798286 1330.261333
54.110000 1326.348194 1327.607037 1329.218303 1329.167568 1330.626726 1332.199649
54.210000 1328.025198 1329.337525 1330.927167 1330.887007 1332.350498 1333.885642
54.310000 1329.614165 1331.051383 1332.621636 1332.576337 1334.091199 1335.622732
54.410000 1331.123112 1332.591103 1334.264278 1334.220388 1335.753079 1337.179113
54.510000 1332.687255 1334.371255 1335.962981 1335.890158 1337.379898 1338.745621
54.610000 1334.252300 1336.058439 1337.615729 1337.517082 1338.981993 1340.282022
54.710000 1335.987019 1337.648132 1339.278744 1339.134909 1340.630423 1341.740103
54.810000 1337.454464 1339.261805 1340.741574 1340.699502 1342.134477 1343.397831
54.910000 1339.191785 1340.890746 1342.211531 1342.224529 1343.566906 1345.020001
55.010000 1341.387649 1342.647578 1343.926720 1343.995191 1345.322389 1347.037510
55.110000 1343.386133 1344.639708 1346.052757 1346.212776 1347.692725 1350.717795
55.210000 1346.221644 1347.858307 1349.771111 1350.219338 1352.921377 1355.920346
55.310000 1348.592327 1350.477324 1353.454207 1353.606202 1356.877877 1359.004902
55.410000 1350.456733 1352.971487 1356.965401 1356.941363 1360.738866 1362.864777
55.510000 1352.598424 1356.076161 1359.598261 1359.399772 1362.816221 1365.060231
55.610000 1355.367212 1358.989221 1361.829068 1361.716236 1364.567415 1367.389611
55.710000 1358.919759 1361.462774 1363.981121 1364.021953 1366.395301 1369.545211
55.810000 1361.524068 1363.713236 1366.211360 1366.325985 1368.807293 1371.762160
55.910000 1364.283644 1366.300843 1368.423205 1368.764622 1371.554812 1374.357558
56.010000 1367.627706 1369.798763 1372.737236 1372.757681 1375.669106 1377.771304
56.110000 1370.243942 1372.657322 1376.375021 1375.800901 1378.618793 1380.154977
56.210000 1372.344068 1375.940411 1379.383107 1378.863026 1381.329252 1383.277934
56.310000 1375.370484 1379.853567 1382.269858 1381.975388 1384.144076 1385.835303
56.410000 1380.900901 1383.335232 1385.648422 1385.496846 1387.502605 1390.026917
56.510000 1384.070672 1386.438827 1388.749089 1388.863350 1391.287415 1394.618934
56.610000 1387.827831 1389.629051 1392.088698 1392.289876 1395.114226 1397.606122
56.710000 1390.216783 1392.645944 1395.293381 1395.294184 1398.059278 1400.011862
