depth(m) lower_95(kyr) lower_68(kyr) median(kyr) mean(kyr) upper_68(kyr) upper_95(kyr)
18.230000 696.241743 699.099920 701.403381 701.933829 703.723083 721.029347
18.280000 698.343823 700.930808 702.855757 703.564599 705.192039 723.000822
18.330000 700.383642 702.517403 704.298455 705.127604 706.621128 724.860500
18.380000 702.081098 703.827857 705.713902 706.617061 707.868849 726.265272
18.430000 703.578409 705.379315 707.105625 708.047588 708.974256 727.524896
18.480000 705.043468 706.888446 708.495045 709.438101 710.242334 728.767489
18.530000 706.444670 708.330587 709.773431 710.794359 711.399776 730.139746
18.580000 708.130997 709.786085 711.106915 712.114566 712.455234 731.212173
18.630000 710.146748 711.451427 712.663793 713.706672 713.980515 732.290402
18.680000 712.041382 713.368257 714.487572 715.821909 716.079041 733.584135
18.730000 713.726970 715.129974 716.947116 718.883561 722.508527 734.707719
18.780000 715.226840 716.805696 722.098216 722.097264 725.761771 735.887729
18.880000 721.030355 723.575334 726.511631 727.275675 730.816444 737.966049
18.930000 724.558072 726.544247 728.981517 729.847707 733.556876 739.084260
18.980000 726.920910 729.059512 731.648365 732.304852 735.947711 740.141701
19.030000 729.241100 731.656635 734.503026 734.873103 738.308165 741.484184
19.080000 731.444696 734.682295 737.923047 737.692177 740.612518 742.692663
19.130000 734.281849 738.126125 741.156271 740.668168 742.909639 744.387090
19.180000 741.702009 744.045157 745.438562 745.474110 747.095574 748.930115
19.230000 744.998845 746.484506 748.301094 748.467116 750.449830 752.908759
19.280000 747.577843 749.623795 752.106950 752.239286 754.506495 758.174041
19.330000 752.031355 755.719458 758.082497 758.331952 761.540221 763.779049
19.380000 755.813827 758.313585 761.109878 761.327640 764.662549 766.940896
19.430000 758.534910 760.492818 764.331830 763.899690 767.095229 768.598188
19.480000 761.103890 763.283966 767.175544 766.589136 769.245665 770.877659
19.530000 763.149070 766.211198 769.286471 768.758215 770.932075 772.381880
19.580000 765.867712 768.865534 770.940818 770.653087 772.455903 773.833076
19.630000 769.323453 771.010466 772.558904 772.553989 774.147285 775.530777
19.660000 770.630706 772.181204 773.549756 773.558650 774.972253 776.284545
19.680000 771.316592 772.834386 774.169302 774.191746 775.515800 776.860819
19.730000 772.746807 774.239967 775.498100 775.523109 776.847860 778.198885
19.780000 774.133101 775.458293 776.723821 776.767037 778.061457 779.409528
19.830000 775.224277 776.654519 777.924949 777.975757 779.274412 780.671833
19.880000 776.462506 777.878971 779.123190 779.153894 780.422819 781.664123
19.930000 777.684615 779.047648 780.351493 780.320558 781.599925 782.888474
19.980000 778.645426 780.131861 781.516896 781.470455 782.746912 783.961077
20.030000 780.088393 781.384379 782.668932 782.604713 783.791868 784.974329
20.080000 781.309655 782.534058 783.778897 783.722846 784.881138 786.011123
20.130000 782.276149 783.700281 784.908656 784.858232 785.962805 787.082811
20.180000 783.608125 784.948548 786.048285 786.032288 787.125385 788.153969
20.230000 784.962682 786.306872 787.394703 787.338134 788.403706 789.367970
20.330000 788.757257 789.709943 790.755975 790.708913 791.685033 792.543572
20.430000 792.652581 793.681058 794.800438 794.936884 796.236550 797.950558
20.530000 795.375170 796.930872 798.624937 798.767098 800.722148 802.648454
20.580000 797.741932 799.487728 801.707120 801.689673 803.807128 805.770618
20.630000 800.372170 802.897868 805.215842 805.213228 807.512633 810.059166
20.680000 803.602660 806.052810 808.490288 808.574432 811.178060 813.972847
20.730000 809.718092 812.194691 814.726260 814.434012 816.661798 818.292049
20.780000 813.474990 815.233720 817.270686 817.153214 819.004604 820.380263
20.830000 815.710002 817.199189 818.913297 818.864001 820.457012 821.758980
20.930000 818.663900 820.072473 821.701581 821.570296 822.956560 824.365472
20.980000 820.022447 821.581812 823.188195 823.095047 824.581157 826.123230
21.030000 821.168690 823.204492 825.252447 825.094154 826.858382 828.520838
21.080000 822.381153 824.557683 827.006586 826.869132 829.044099 830.741503
21.130000 823.807442 826.049875 828.596138 828.479586 830.729962 832.539432
21.180000 825.076958 827.854265 830.020387 829.966003 832.191422 833.948651
21.230000 826.457905 829.444392 831.760423 831.507483 833.587165 835.230381
21.280000 827.945506 830.857383 833.203038 832.921328 834.954910 836.506988
21.330000 829.452203 832.131106 834.577518 834.259847 836.275694 837.771857
21.380000 831.124671 833.515596 835.818092 835.567567 837.495161 839.123422
21.480000 833.675100 836.301512 838.153834 837.963182 839.604291 841.053234
21.530000 835.136249 837.702305 839.403672 839.234514 840.790251 842.221326
21.580000 836.640248 839.029973 840.620755 840.491546 842.050712 843.441400
21.630000 837.996537 840.355523 841.916716 841.803015 843.281646 844.682966
21.680000 840.035799 841.843110 843.234537 843.199096 844.538939 846.008146
21.730000 842.051991 843.464437 844.732699 844.745214 845.980582 847.277894
21.780000 843.622660 844.947505 846.163111 846.163405 847.456296 848.880709
21.830000 845.190219 846.195313 847.409915 847.454176 848.693540 850.066583
21.880000 846.367607 847.407325 848.524295 848.669385 849.948834 851.478394
21.930000 847.592633 848.554857 849.663827 849.902866 851.380439 853.113506
21.980000 848.664584 849.732162 851.025952 851.258351 852.965428 854.731388
22.030000 849.849749 850.997553 852.542513 852.684833 854.493921 856.037267
22.080000 851.047347 852.409578 854.090957 854.093107 855.839128 857.247689
22.130000 852.400590 853.914223 855.549595 855.549918 857.202596 858.562894
22.180000 853.574756 855.285092 856.963074 856.891107 858.436536 859.633317
22.230000 855.018186 856.520060 858.208712 858.118688 859.600526 860.873309
22.280000 856.079525 857.735261 859.403241 859.330690 860.780801 862.089725
22.330000 857.276773 858.935180 860.676191 860.527235 861.966510 863.270464
22.380000 858.593207 860.222358 861.895798 861.727955 863.160648 864.294253
22.430000 859.931343 861.689714 863.160754 863.040583 864.342645 865.393851
22.480000 861.658347 863.351224 864.733023 864.648051 865.908390 867.123437
22.580000 866.837293 868.424363 872.186854 872.207660 875.595152 878.759731
22.630000 868.349726 870.233783 874.829394 874.745713 878.978255 882.029260
22.680000 870.872594 873.960897 877.531551 877.444425 881.050779 883.728633
22.730000 873.724013 877.347415 880.518864 880.394196 883.473690 885.866823
22.780000 877.329107 880.575369 883.370974 883.236062 885.907203 888.088879
22.830000 880.033610 883.149688 885.508709 885.447666 887.909052 890.177569
22.880000 882.385925 884.865643 887.241420 887.258156 889.530668 892.100758
22.930000 884.017983 886.477153 888.805080 888.856241 891.117645 893.804798
22.980000 885.666833 887.986823 890.346733 890.388761 892.642762 895.544632
23.030000 887.135619 889.494422 891.919108 891.928365 894.150513 897.166118
23.080000 888.780867 891.076477 893.557076 893.678256 896.014722 900.444821
23.180000 891.833058 894.124615 896.333840 896.699679 898.927636 904.772466
23.230000 894.040811 896.040649 898.152956 898.708038 901.168989 906.739696
23.280000 896.224475 898.229965 900.489288 901.062644 903.977745 908.828756
23.330000 898.545929 900.393396 902.959665 903.522340 906.802825 910.647896
23.380000 900.579227 902.908257 905.758170 906.067085 909.393684 912.611316
23.430000 902.739648 905.298898 908.576632 908.589951 911.917755 914.226656
23.480000 905.076706 908.046046 911.502886 911.246345 914.221956 916.210442
23.530000 908.385992 911.634854 914.598554 914.449102 917.089348 919.630683
23.580000 913.025007 918.427334 920.203003 920.017019 922.042328 924.198276
23.680000 921.046463 925.021113 927.058410 927.007164 929.473437 932.374162
23.730000 924.422380 927.368800 929.450462 929.305799 931.594325 933.915648
23.780000 927.636420 929.537360 931.423250 931.467352 933.513267 935.435334
23.830000 930.035935 931.962795 933.763216 933.802644 935.648082 937.563841
23.880000 933.140677 934.613050 936.601536 936.605118 938.486602 940.361588
23.930000 935.333823 937.033086 939.080721 938.964090 940.810284 942.414321
23.980000 937.578307 939.524823 941.255643 941.219067 943.005003 944.454903
24.030000 940.111924 942.018558 943.645096 943.622607 945.288832 946.847355
24.080000 942.626294 944.218519 945.704448 945.682257 947.204664 948.807822
24.130000 944.832530 946.105172 947.658541 947.645627 949.126380 950.395249
24.180000 946.512857 947.876935 949.333521 949.318498 950.802499 952.012612
24.230000 948.046529 949.421492 950.864783 950.820380 952.238810 953.379621
24.280000 949.447742 950.932699 952.265816 952.243768 953.520777 954.441198
24.330000 951.114109 952.384843 953.694251 953.596905 954.836245 955.752037
24.380000 952.550595 953.722008 954.961547 954.879673 956.054825 956.785976
24.430000 953.961741 955.157407 956.256361 956.177735 957.162938 957.938606
24.480000 955.740898 956.735619 957.771352 957.702297 958.605920 959.544772
24.530000 959.024843 959.701596 960.508724 960.579369 961.462311 962.465043
24.580000 960.759612 961.616518 962.574269 962.622397 963.666728 964.730713
24.630000 962.263742 963.146611 964.239969 964.247471 965.349321 966.369758
24.680000 963.664564 964.726986 965.827607 965.852586 966.997065 968.146025
24.730000 965.473921 966.638291 967.696602 967.822741 969.056840 970.511054
24.780000 967.536377 968.748579 970.048751 970.297340 971.974813 974.175602
24.830000 969.838889 971.317148 972.969560 973.194147 975.303239 976.867369
24.880000 971.557006 973.649131 975.604221 975.440133 977.188706 978.695065
24.930000 973.436017 975.904500 977.729237 977.522660 979.002510 980.426958
24.980000 975.417315 977.823812 979.597877 979.525234 980.967200 983.918799
25.030000 977.280808 979.684920 981.252464 982.017614 984.428151 990.504461
25.080000 979.311901 981.106151 982.630606 984.339135 989.547769 995.449048
25.130000 981.002599 982.533257 984.082368 986.522246 992.773977 999.059905
25.180000 982.180524 983.736425 985.409706 989.166997 998.726692 1001.637510
25.230000 983.466564 984.987190 986.747709 991.756689 1002.980685 1004.497898
25.280000 985.010144 986.356205 988.183633 993.467255 1004.935591 1006.645513
25.330000 986.425847 987.805276 989.885554 995.205092 1006.392541 1008.339583
25.380000 987.790651 989.151639 992.202993 997.210271 1007.946152 1010.064812
25.430000 989.081279 990.734187 999.010831 999.891174 1009.343519 1011.807441
25.480000 990.319930 992.360812 1005.007687 1003.107009 1010.805255 1013.579623
25.530000 991.642073 994.631161 1009.099496 1006.178399 1012.435544 1016.129837
25.580000 992.904514 999.606038 1011.543635 1009.007411 1014.746254 1018.498557
25.630000 994.179494 1006.875057 1013.518595 1011.804820 1017.832045 1021.042977
25.680000 995.628425 1011.935895 1015.453619 1014.608842 1021.507737 1024.455692
25.730000 997.115666 1014.194678 1017.306848 1017.058823 1024.539438 1027.100293
25.780000 999.035740 1015.823588 1019.133469 1019.183325 1026.913808 1029.335642
25.830000 1002.496292 1017.851559 1021.460557 1021.514338 1028.885668 1031.180219
25.930000 1019.853614 1026.072489 1029.837272 1028.624687 1031.658208 1033.201721
25.980000 1024.760955 1031.274462 1032.578886 1031.887424 1033.732336 1035.338081
26.030000 1031.051349 1033.079743 1034.133704 1033.630266 1035.279950 1037.575492
26.080000 1032.836217 1034.414904 1035.461262 1035.025666 1036.733804 1039.510512
26.130000 1034.198927 1035.581169 1036.673209 1036.292046 1038.128607 1041.114315
26.180000 1035.012497 1036.708974 1037.865068 1037.498597 1039.412198 1042.792041
26.230000 1036.213926 1037.757853 1038.977048 1038.718194 1040.716333 1044.448158
26.280000 1037.259897 1038.849676 1040.145756 1039.954133 1042.067942 1046.223599
26.330000 1037.982921 1039.937433 1041.300693 1041.191644 1043.423705 1047.817846
26.380000 1039.140311 1041.060064 1042.533983 1042.502423 1044.776392 1049.734320
26.430000 1040.252920 1042.232773 1043.645324 1043.893247 1046.172131 1051.808113
26.480000 1041.439788 1043.367217 1044.813138 1045.202128 1047.418078 1053.489608
26.530000 1042.382221 1044.460866 1045.977715 1046.533885 1048.630731 1055.220228
26.580000 1043.468521 1045.601363 1047.071735 1047.775770 1049.856508 1057.187168
26.630000 1044.575103 1046.765090 1048.304051 1049.153578 1051.020102 1060.243451
26.730000 1047.009611 1049.156745 1050.480395 1053.738047 1053.368511 1087.024695
26.780000 1048.281383 1050.323639 1051.749564 1055.444048 1054.599932 1093.283887
26.830000 1049.758928 1051.560568 1053.061700 1056.866305 1055.948716 1095.157943
26.880000 1050.955174 1052.833688 1054.404130 1058.246044 1057.349867 1096.868869
26.930000 1052.260502 1054.200009 1055.799429 1059.658426 1058.824460 1098.075946
26.980000 1053.774571 1055.661190 1057.454677 1061.366330 1060.987908 1099.377873
27.030000 1055.669525 1057.697678 1060.961085 1064.815955 1067.403795 1100.420495
27.130000 1061.195101 1084.645007 1089.154278 1089.053510 1095.591173 1102.308689
27.180000 1066.076982 1091.056621 1095.531939 1094.126432 1098.068221 1103.759462
27.280000 1093.887839 1097.538566 1099.054607 1099.418888 1100.961873 1109.872067
27.330000 1097.717731 1099.388394 1100.820239 1101.492141 1102.935596 1112.493666
27.380000 1099.749173 1101.162804 1103.100518 1104.212384 1108.200868 1114.262098
27.430000 1101.082484 1102.711345 1105.709141 1107.339073 1113.195693 1115.959501
27.480000 1102.801578 1104.418546 1111.962595 1110.545542 1115.263413 1117.477401
27.530000 1104.904909 1109.644652 1114.502837 1113.609618 1117.125901 1119.305759
27.580000 1111.358758 1114.624443 1117.052742 1116.796471 1118.953248 1121.332221
27.630000 1115.410563 1117.762154 1119.716934 1119.689708 1121.510703 1124.388139
27.680000 1118.635119 1120.752485 1122.725855 1122.802763 1124.959382 1127.454581
27.730000 1121.179018 1123.131603 1125.440460 1125.441621 1127.904115 1129.828647
27.780000 1123.150855 1125.503502 1128.131299 1127.928169 1130.230168 1131.912013
27.830000 1125.485676 1128.294702 1130.561294 1130.298186 1132.425977 1133.859577
27.880000 1127.625082 1130.401163 1132.537196 1132.355446 1134.322865 1135.882631
27.930000 1129.721661 1132.277698 1134.212596 1134.058939 1135.987894 1137.422212
27.980000 1131.145014 1133.885438 1135.892158 1135.707509 1137.547437 1139.004539
28.030000 1132.827707 1135.427368 1137.390148 1137.249912 1139.090889 1140.675807
28.080000 1134.262049 1136.947602 1138.964743 1138.799703 1140.627813 1142.274221
28.150000 1136.312315 1139.156439 1140.942412 1140.825165 1142.689078 1144.176958
28.200000 1137.884741 1140.511179 1142.422315 1142.289336 1144.171872 1145.706376
28.250000 1139.269325 1142.065674 1143.855623 1143.774651 1145.662321 1147.239436
28.300000 1141.204770 1143.527569 1145.281236 1145.244790 1147.081955 1148.768455
28.350000 1142.555646 1144.994994 1146.759406 1146.731044 1148.576519 1150.262567
28.400000 1144.078224 1146.612583 1148.287240 1148.302824 1150.108676 1151.991077
28.450000 1145.765726 1148.162790 1149.900411 1149.958853 1151.756759 1153.932153
28.500000 1147.814597 1149.758417 1151.559918 1151.777686 1153.661921 1156.932595
28.550000 1149.337814 1151.522006 1153.522119 1154.131102 1156.524309 1163.645862
28.600000 1151.506940 1153.752547 1156.329849 1157.369455 1161.109449 1169.324058
28.650000 1153.999051 1156.415407 1160.586870 1161.535828 1167.144519 1172.877231
28.700000 1156.247567 1159.382807 1165.049264 1165.545408 1171.964728 1176.431558
28.750000 1158.741136 1163.480294 1168.723870 1169.268311 1175.603092 1179.174094
28.800000 1163.231627 1168.113760 1173.052465 1173.172799 1178.580363 1181.463130
28.850000 1167.587699 1171.882842 1177.012102 1176.479529 1181.121741 1183.476968
28.900000 1171.024718 1175.295693 1179.979573 1179.349163 1183.119064 1185.294237
28.950000 1174.129848 1178.662635 1182.272118 1181.868053 1185.178456 1187.131748
29.000000 1177.823157 1181.595535 1184.389906 1184.181705 1187.028755 1188.995946
29.050000 1181.288798 1184.039688 1186.540101 1186.489275 1189.163750 1191.099307
29.100000 1184.731272 1187.009411 1188.897836 1189.155815 1191.043515 1195.607488
29.150000 1191.855118 1193.964698 1198.463841 1198.511054 1203.258715 1205.636832
29.200000 1195.598103 1202.390326 1206.623117 1205.797332 1208.753035 1211.799268
29.250000 1205.893484 1209.167162 1211.086924 1211.134185 1213.363078 1216.765069
29.300000 1209.388883 1212.274888 1214.749378 1214.785519 1217.410746 1220.341011
29.400000 1215.791195 1218.758556 1221.126695 1221.044706 1223.219650 1225.623245
29.450000 1220.607589 1222.901028 1225.106488 1225.152402 1227.505050 1230.029521
29.500000 1223.709699 1225.313850 1227.401776 1227.613009 1230.115699 1232.267325
29.550000 1225.746705 1227.512127 1229.906584 1229.968062 1232.495597 1234.376938
29.600000 1227.801498 1229.778731 1232.302066 1232.224880 1234.644239 1236.309545
29.650000 1230.037535 1232.007578 1234.729247 1234.475183 1236.725627 1238.104203
29.700000 1231.822567 1234.517309 1237.150790 1236.659604 1238.691468 1239.872558
29.750000 1234.338583 1236.942313 1239.316399 1238.841603 1240.519259 1241.519383
29.800000 1236.970333 1239.502912 1241.280164 1240.938422 1242.363701 1243.187298
29.850000 1239.176950 1241.849701 1243.084723 1242.832456 1243.979773 1244.787382
29.900000 1241.653177 1243.657422 1244.723523 1244.597334 1245.628364 1246.640146
29.950000 1243.545099 1245.248097 1246.406869 1246.378762 1247.455730 1248.716129
30.000000 1246.556389 1247.536737 1248.583848 1248.701382 1249.803807 1251.575318
30.050000 1248.309918 1249.495291 1250.656985 1250.841298 1252.255993 1254.424108
30.100000 1250.109785 1251.503385 1252.987883 1253.157532 1254.950233 1256.971207
30.150000 1252.106889 1253.690259 1255.510158 1255.767785 1258.083089 1260.224253
30.200000 1254.430235 1256.387620 1258.769510 1258.958688 1261.642572 1264.714954
30.250000 1257.726335 1260.066010 1263.263244 1263.701654 1266.941122 1273.510422
30.300000 1261.334869 1265.272635 1269.762658 1271.342440 1279.279617 1283.188342
30.350000 1265.655970 1269.781965 1281.677665 1278.724453 1284.621855 1286.124277
30.400000 1269.627575 1283.340229 1285.701019 1284.590684 1287.156294 1288.244176
30.450000 1282.760162 1286.371868 1287.675174 1287.371615 1288.823407 1289.843762
30.500000 1286.755342 1288.195680 1289.288687 1289.224845 1290.341822 1291.376938
30.550000 1288.413034 1289.648180 1290.756712 1290.781651 1291.961900 1293.170992
30.600000 1289.990678 1291.122437 1292.348835 1292.352153 1293.558065 1295.035827
30.650000 1291.465025 1292.704736 1293.956667 1294.021972 1295.340520 1296.778185
30.700000 1293.198682 1294.350338 1295.758787 1295.850726 1297.274061 1298.817030
30.750000 1294.999647 1296.309763 1297.828886 1297.982536 1299.557717 1301.709288
30.800000 1297.031217 1298.578253 1300.337537 1300.682992 1302.510697 1306.631905
30.850000 1299.687403 1301.630327 1304.111215 1305.336945 1309.202618 1316.556761
30.900000 1302.290902 1304.405684 1308.789234 1309.894133 1316.468954 1320.802031
30.950000 1304.584906 1307.691845 1315.384064 1314.767840 1320.883149 1323.845833
31.000000 1307.389149 1314.702018 1320.668617 1319.525063 1324.057034 1326.701038
31.050000 1313.283965 1321.228696 1324.263087 1323.928164 1327.109168 1330.251141
31.100000 1321.981638 1325.101534 1327.762701 1327.766908 1330.578724 1333.515455
31.150000 1324.836081 1327.430099 1330.289517 1330.378685 1333.484444 1335.659605
31.200000 1327.335865 1329.475838 1332.569098 1332.655791 1335.975858 1337.899450
31.250000 1329.356070 1331.405861 1334.868711 1334.710926 1337.887895 1339.786557
31.300000 1330.896675 1333.277541 1336.887088 1336.632991 1339.858014 1341.891057
31.350000 1332.874367 1335.262038 1338.948294 1338.578955 1341.665110 1343.326658
31.400000 1335.119339 1337.559851 1340.906399 1340.607728 1343.330021 1345.307925
31.450000 1337.721086 1340.596327 1343.130243 1343.142854 1345.637672 1348.399565
