depth(m) lower_95(kyr) lower_68(kyr) median(kyr) mean(kyr) upper_68(kyr) upper_95(kyr)
84.980000 715.765590 716.575650 717.357186 717.338935 718.072929 718.761440
85.100000 716.778713 717.455527 718.158113 718.132891 718.781859 719.501521
85.180000 717.281148 718.031625 718.671721 718.662726 719.279613 719.964569
85.260000 717.757660 718.572873 719.186398 719.179281 719.784421 720.404667
85.340000 718.403862 719.093641 719.710681 719.708365 720.301957 720.976795
85.380000 718.735947 719.375941 719.989069 720.000930 720.590140 721.324823
85.480000 719.480114 720.077177 720.705925 720.748489 721.432872 722.338929
85.580000 720.183330 720.787845 721.489758 721.576165 722.399465 723.430566
85.620000 720.445008 721.138447 721.926957 721.977472 722.871590 723.799642
85.660000 720.832614 721.529522 722.390973 722.420635 723.309956 724.185815
85.740000 721.854977 722.612784 723.553652 723.558803 724.475035 725.331973
85.820000 722.836119 723.769514 724.697045 724.654387 725.475113 726.185832
85.860000 723.324735 724.283884 725.186447 725.130716 725.885774 726.709107
85.900000 723.817585 724.736046 725.627869 725.561980 726.341931 727.075361
86.020000 725.199603 725.975161 726.730803 726.705761 727.326624 728.241669
86.060000 725.649540 726.417866 727.109795 727.101861 727.709986 728.655489
86.100000 726.125839 726.870815 727.487658 727.486599 728.068307 728.977793
86.140000 726.620779 727.242198 727.846735 727.865694 728.388288 729.320893
86.180000 727.119782 727.638232 728.204178 728.237809 728.759894 729.759857
86.220000 727.481489 727.986672 728.520527 728.572388 729.130033 730.120037
86.260000 727.836989 728.308219 728.835906 728.905132 729.485242 730.395308
86.300000 728.211311 728.658766 729.149552 729.225413 729.838225 730.758982
86.360000 728.661770 729.105224 729.580405 729.677236 730.262445 731.230591
86.400000 728.969772 729.402132 729.889655 729.983125 730.590374 731.517564
86.440000 729.268528 729.714283 730.195067 730.294694 730.884982 731.819829
86.480000 729.583727 729.995590 730.544054 730.612760 731.196790 732.157144
86.520000 729.795240 730.285585 730.917403 730.943173 731.591181 732.406245
86.560000 730.074977 730.585624 731.240740 731.284813 731.969591 732.753178
86.600000 730.363889 730.910891 731.572264 731.644821 732.376810 733.321727
86.640000 730.700088 731.278205 731.968098 732.010365 732.750816 733.632802
86.680000 731.005168 731.650157 732.392031 732.436039 733.209721 734.116000
86.720000 731.442725 732.066730 732.865652 732.879913 733.679165 734.487688
86.760000 731.871659 732.486747 733.361619 733.364297 734.205386 735.060043
86.800000 732.319190 733.013150 733.909996 733.901870 734.756451 735.501546
86.840000 732.778404 733.557642 734.471608 734.440537 735.312865 735.987466
86.880000 733.268603 734.116177 735.018742 734.970475 735.813324 736.598681
86.920000 733.698643 734.643048 735.518803 735.477366 736.315504 737.050468
86.960000 734.194156 735.129659 736.038996 735.976828 736.784639 737.512216
87.000000 734.779089 735.678092 736.488021 736.471048 737.250729 738.008085
87.040000 735.336139 736.176786 736.982814 736.952716 737.752657 738.581593
87.080000 735.830176 736.650465 737.415353 737.430389 738.230690 739.166546
87.120000 736.291865 737.081305 737.875540 737.906382 738.690999 739.784500
87.160000 736.700017 737.548730 738.378949 738.391769 739.221260 740.216370
87.200000 737.019643 738.005118 738.839120 738.865555 739.757738 740.736286
87.240000 737.537032 738.471818 739.315786 739.354974 740.327958 741.229257
87.280000 737.962513 738.922938 739.836078 739.865524 740.877298 741.716230
87.320000 738.385645 739.501785 740.379169 740.387195 741.377366 742.159463
87.360000 738.908914 739.980449 740.963336 740.924216 741.879537 742.646960
87.440000 740.628891 741.617467 742.522904 742.442042 743.243859 743.928177
87.480000 741.534358 742.424388 743.263761 743.194374 743.933735 744.597425
87.520000 742.142079 743.275364 744.033062 743.927803 744.633210 745.146491
87.560000 742.601592 743.817781 744.476973 744.404841 745.060319 745.652258
87.640000 743.655847 744.491573 745.097073 745.071197 745.686736 746.266491
87.720000 744.332035 745.005146 745.591925 745.606179 746.221861 746.934728
87.860000 745.263618 745.842092 746.440083 746.466233 747.072151 747.792220
87.940000 745.769492 746.369588 746.943807 746.985673 747.584300 748.384387
87.980000 746.065679 746.625566 747.225387 747.268832 747.904134 748.655308
88.060000 746.598993 747.158464 747.751079 747.816405 748.488286 749.438533
88.180000 747.359789 747.906514 748.558625 748.632799 749.427561 750.278694
88.220000 747.668586 748.212203 748.854346 748.940074 749.753291 750.561740
88.260000 747.942802 748.506353 749.153893 749.255232 750.103466 750.810630
88.340000 748.549504 749.090298 749.870781 749.913369 750.796139 751.318350
88.380000 748.811290 749.414230 750.194895 750.246226 751.123216 751.651479
88.460000 749.390679 750.074912 750.921204 750.907207 751.716263 752.327923
88.500000 749.700649 750.378018 751.302535 751.258145 752.029445 752.731279
88.540000 750.072368 750.767901 751.656597 751.598141 752.340600 753.060746
88.580000 750.439503 751.129064 752.032616 751.948759 752.626823 753.575445
88.620000 750.754802 751.499241 752.394358 752.312392 752.982608 753.992212
88.660000 751.100051 751.881537 752.745652 752.691488 753.372136 754.582320
88.700000 751.513729 752.283588 753.078527 753.062639 753.747061 754.948438
88.740000 751.771954 752.627013 753.389135 753.412460 754.147826 755.312015
88.780000 752.170707 752.981835 753.718175 753.731374 754.466944 755.648290
88.860000 752.790940 753.605584 754.265407 754.330670 755.051300 756.180208
88.900000 753.066416 753.905141 754.568308 754.633364 755.400334 756.457034
88.940000 753.420789 754.218118 754.883185 754.960548 755.737261 756.741910
89.020000 754.218146 754.830787 755.577678 755.609026 756.425753 757.183724
89.060000 754.593354 755.169904 755.962467 755.986307 756.837270 757.520981
89.100000 754.905402 755.547416 756.399047 756.386881 757.237088 757.924695
89.220000 755.792813 756.521347 757.460770 757.407736 758.245479 758.896787
89.300000 756.554064 757.379757 758.243347 758.169122 758.916943 759.492077
89.380000 757.190734 758.139802 758.901262 758.839281 759.488542 760.019441
89.420000 757.502574 758.530560 759.249946 759.167889 759.778787 760.365065
89.460000 757.891947 758.882953 759.553496 759.472480 760.069092 760.596012
89.500000 758.243972 759.219015 759.846950 759.775122 760.320687 760.848780
89.540000 758.608103 759.540241 760.130866 760.068390 760.601161 761.085089
89.580000 758.864131 759.864514 760.435210 760.368484 760.906214 761.403247
89.620000 759.253155 760.154043 760.742355 760.680168 761.209126 761.778975
89.660000 759.583913 760.457232 761.040682 761.005168 761.591747 762.155712
89.700000 759.848148 760.737095 761.366885 761.338589 761.970521 762.527430
89.740000 760.218980 761.068266 761.701042 761.693232 762.354243 762.994850
89.780000 760.560936 761.413030 762.043123 762.060747 762.741484 763.465245
89.820000 760.879737 761.768547 762.447743 762.446961 763.138625 763.920538
89.860000 761.223693 762.085330 762.850373 762.817759 763.495530 764.363817
89.900000 761.548149 762.390259 763.203005 763.179706 763.879146 764.911333
89.940000 761.962705 762.817174 763.554207 763.560502 764.234527 765.476593
89.980000 762.343195 763.202233 763.924015 763.944435 764.623270 766.062602
90.020000 762.716007 763.573508 764.260308 764.328917 765.023938 766.567587
90.060000 763.193786 763.965676 764.615342 764.717375 765.453778 766.930868
90.100000 763.562965 764.323138 765.024676 765.130351 765.846938 767.306191
90.140000 763.938380 764.842908 765.466531 765.545909 766.247911 767.691661
90.180000 764.533725 765.264167 765.882657 765.953175 766.602712 767.956842
90.260000 765.628061 766.125787 766.689920 766.803016 767.518500 768.717915
90.280000 765.835082 766.347976 766.875688 767.007964 767.720534 768.889941
90.300000 766.076837 766.569348 767.070602 767.223392 767.962218 769.110409
90.330000 766.432674 766.914303 767.422924 767.569480 768.291331 769.485231
90.340000 766.567077 767.030007 767.527317 767.678886 768.409361 769.601009
90.380000 767.034903 767.480389 768.018580 768.193856 768.934571 770.279117
90.420000 767.496139 767.925898 768.582337 768.706950 769.414184 771.103886
90.430000 767.614173 768.017542 768.674870 768.817898 769.541537 771.282811
90.460000 767.919986 768.338193 769.120564 769.180153 769.864629 771.704505
90.480000 768.119067 768.579465 769.340762 769.400970 770.106688 771.861954
90.500000 768.313780 768.819588 769.583087 769.637320 770.290335 772.027033
90.580000 769.482736 770.088197 770.684397 770.947685 772.205459 772.849201
90.620000 770.069026 770.574971 771.081912 771.439017 772.758657 773.231110
90.630000 770.220275 770.673319 771.167640 771.537603 772.861050 773.344138
90.680000 770.677600 771.100481 771.581543 771.988026 773.269860 773.676495
90.700000 770.878746 771.271738 771.784481 772.168045 773.423122 773.821044
90.730000 771.144509 771.503446 772.059123 772.427199 773.640208 774.008132
90.740000 771.216016 771.583221 772.168345 772.512594 773.713159 774.093780
90.780000 771.478485 771.880984 772.547621 772.826516 773.966113 774.388726
90.905000 772.149163 772.691087 773.679880 773.700518 774.702823 775.174205
91.030000 772.893458 773.559545 774.689719 774.583970 775.428772 776.176341
91.080000 773.233021 773.920313 775.132367 774.980975 775.808267 776.602907
91.130000 773.588653 774.356910 775.510654 775.376947 776.174194 777.065931
91.180000 774.012159 774.816141 775.872682 775.791077 776.581643 777.498264
91.230000 774.403310 775.315472 776.268459 776.214993 777.035062 777.890622
91.280000 774.771440 775.773977 776.655935 776.629179 777.469883 778.290718
91.330000 775.108405 776.169633 777.042397 777.027097 777.891072 778.743201
91.380000 775.483408 776.554370 777.469976 777.434933 778.350220 779.114860
91.455000 775.982554 777.192070 778.030892 778.036030 778.896004 779.817123
91.530000 776.652633 777.795949 778.668968 778.647389 779.508263 780.470490
91.580000 777.031220 778.228457 779.092170 779.052035 779.885867 780.802592
91.630000 777.313344 778.626481 779.511064 779.450923 780.265188 781.209959
91.670000 777.578299 778.937443 779.811092 779.754772 780.588586 781.551089
91.775000 778.551565 779.634469 780.521707 780.477736 781.283977 782.385141
91.880000 779.335015 780.279790 781.194157 781.174387 782.000633 783.164052
91.980000 780.007149 780.940818 781.854605 781.844504 782.693283 783.837630
92.080000 780.680126 781.610765 782.530460 782.535762 783.504588 784.494062
92.180000 781.377573 782.279459 783.209756 783.220992 784.211906 785.145816
92.280000 782.091529 782.998355 783.888070 783.909809 784.921478 785.785630
92.380000 782.643846 783.681060 784.577183 784.598972 785.591682 786.331878
92.480000 783.472171 784.420593 785.366407 785.335000 786.282875 786.987990
92.580000 784.316157 785.250145 786.140114 786.093054 786.932833 787.626537
92.680000 785.340638 786.094316 786.879930 786.852689 787.616563 788.247374
92.750000 785.874079 786.731642 787.469381 787.410534 788.104496 788.631841
92.800000 786.415007 787.218951 787.923713 787.862491 788.468619 789.065573
92.850000 786.969308 787.655800 788.300819 788.274002 788.867759 789.448705
92.880000 787.235211 787.963532 788.570342 788.540553 789.093041 789.716275
92.900000 787.438075 788.160446 788.768413 788.730755 789.282229 789.901980
92.950000 788.180037 788.766147 789.319110 789.324104 789.880501 790.542749
92.980000 788.553277 789.219652 789.768498 789.769860 790.359032 790.967050
93.000000 788.799780 789.437028 790.003246 790.010970 790.581434 791.158730
93.080000 789.866971 790.484924 791.027401 791.039039 791.624610 792.108176
93.100000 790.050562 790.729322 791.311765 791.300040 791.876133 792.343948
93.150000 791.078633 791.624121 792.145748 792.162430 792.691158 793.355888
93.170000 791.340913 791.928133 792.454099 792.459267 792.998269 793.619057
93.200000 791.802679 792.477405 793.092154 793.090411 793.725941 794.209291
93.250000 792.736417 793.335922 793.973764 793.961201 794.587237 795.258298
93.300000 793.303476 793.892886 794.554644 794.572980 795.201959 795.921151
93.350000 793.728100 794.334717 795.029486 795.065142 795.764274 796.538681
93.425000 794.291121 794.968519 795.703334 795.705965 796.426149 797.249474
93.500000 794.785953 795.522917 796.295033 796.304343 797.082288 797.828786
93.550000 795.193661 795.907490 796.696314 796.700761 797.493315 798.246954
93.650000 795.894816 796.643916 797.429050 797.444050 798.246690 799.060200
93.700000 796.224896 797.060505 797.845499 797.862614 798.643470 799.574255
93.750000 796.629879 797.480427 798.310374 798.334508 799.158000 800.308918
93.800000 797.119032 798.009206 798.803673 798.870835 799.768445 801.027432
93.900000 798.390157 799.176824 800.174923 800.266576 801.439952 802.523917
93.950000 798.870328 799.743479 800.847869 800.923637 802.088285 803.119810
94.000000 799.433312 800.509382 801.650819 801.658634 802.799936 803.822158
94.050000 800.169867 801.204643 802.380856 802.360116 803.511152 804.533723
94.100000 800.762386 801.877823 803.091113 803.036220 804.181487 805.181399
94.150000 801.450057 802.520572 803.723028 803.696713 804.832922 805.897400
94.200000 802.123864 803.279854 804.483280 804.456348 805.609117 806.754336
94.250000 803.014267 804.166349 805.320806 805.321386 806.454523 807.672379
94.300000 804.065454 805.115677 806.277010 806.281335 807.418843 808.527799
94.350000 804.984061 805.941280 807.129230 807.111289 808.234490 809.201187
94.400000 805.797086 806.810289 808.028310 807.979892 809.121497 810.021825
94.450000 806.621587 807.647976 808.821103 808.788584 809.893658 810.795233
94.500000 807.373862 808.589579 809.711805 809.673488 810.714061 811.679622
94.550000 808.317471 809.347872 810.447829 810.400095 811.456744 812.389169
94.600000 809.075273 810.187298 811.189476 811.166761 812.147621 813.077450
94.650000 809.891057 810.816850 811.842660 811.792617 812.776581 813.598589
94.700000 810.450382 811.399088 812.408747 812.339739 813.278444 814.007115
94.750000 810.986773 811.999245 812.977529 812.904408 813.810828 814.440821
94.800000 811.608047 812.649215 813.556159 813.487488 814.291944 814.853795
94.850000 812.194249 813.229237 814.087669 813.982146 814.710007 815.211821
94.900000 812.765065 813.676798 814.456874 814.381163 815.062313 815.562933
95.000000 813.656785 814.438472 815.101835 815.036186 815.609399 816.045375
95.100000 814.365182 815.064665 815.644838 815.596607 816.125297 816.481458
95.200000 815.071475 815.675129 816.199628 816.141768 816.594432 816.993871
95.250000 815.377600 815.984923 816.473258 816.429200 816.854896 817.230508
95.300000 815.716731 816.290236 816.766944 816.721614 817.136076 817.519907
95.350000 816.055404 816.632436 817.058377 817.020846 817.419780 817.785430
95.400000 816.358739 816.921293 817.351127 817.312218 817.696813 818.096888
95.450000 816.672432 817.212318 817.625269 817.598834 817.969151 818.384286
95.550000 817.254863 817.767093 818.150743 818.128182 818.474739 818.888710
95.600000 817.570910 818.037691 818.420990 818.403791 818.754579 819.153719
95.700000 818.117677 818.555609 818.928932 818.917121 819.270129 819.644643
95.750000 818.455360 818.844532 819.200717 819.204903 819.546931 819.939094
95.800000 818.782303 819.144128 819.485126 819.500561 819.842625 820.252459
95.900000 819.324673 819.701099 820.036638 820.064432 820.429076 820.836530
95.950000 819.599592 819.994576 820.343907 820.365109 820.741211 821.156499
96.000000 819.938255 820.306457 820.635038 820.666211 821.056469 821.486860
96.050000 820.196246 820.578096 820.947249 820.967608 821.351796 821.836489
96.100000 820.484837 820.859346 821.257200 821.266773 821.676978 822.203692
96.200000 820.971883 821.362432 821.812397 821.829327 822.270960 822.900856
96.300000 821.485160 821.888285 822.348623 822.373226 822.856928 823.489097
96.400000 821.979969 822.445104 822.927723 822.940343 823.444546 824.051902
96.450000 822.306373 822.781239 823.238437 823.271011 823.758633 824.378524
96.500000 822.651902 823.120245 823.626845 823.653199 824.187021 824.835608
96.600000 823.316099 823.918669 824.494825 824.502050 825.127287 825.647691
96.650000 823.808171 824.413259 825.039437 825.033784 825.641076 826.191864
96.700000 824.239093 824.858636 825.479170 825.467796 826.084048 826.580381
96.750000 824.553863 825.216184 825.878989 825.839257 826.457341 826.922604
96.850000 825.170910 825.809319 826.528557 826.469017 827.095945 827.567492
96.950000 825.819393 826.471517 827.141030 827.080420 827.685142 828.122317
97.050000 826.433739 827.101607 827.739267 827.681776 828.241873 828.676710
97.100000 826.753569 827.474482 828.048486 828.011407 828.548819 828.969608
97.150000 827.184193 827.811184 828.403163 828.354844 828.872505 829.303211
97.200000 827.495587 828.177754 828.727257 828.679129 829.164197 829.628430
97.250000 827.813311 828.502425 829.057538 829.008338 829.479209 829.985058
97.350000 828.580272 829.184179 829.641154 829.636135 830.055847 830.628087
97.400000 828.998608 829.536841 829.983303 829.985886 830.388825 830.949003
97.450000 829.371629 829.863569 830.297983 830.307177 830.712086 831.380518
97.500000 829.712912 830.170523 830.590442 830.616587 831.047613 831.859661
97.600000 830.311627 830.756788 831.147613 831.204024 831.615519 832.529049
97.650000 830.683232 831.045171 831.448599 831.510560 831.926164 832.914004
97.700000 831.001596 831.346373 831.749794 831.815111 832.227023 833.302651
97.750000 831.249015 831.628788 832.048525 832.117323 832.540652 833.636953
97.800000 831.551522 831.930715 832.355403 832.427344 832.868478 833.936721
97.900000 832.076757 832.480640 832.918658 833.011858 833.510228 834.607784
98.000000 832.597612 833.014556 833.489768 833.579451 834.124884 835.287760
98.100000 833.130756 833.543424 834.088208 834.160903 834.772840 835.857881
98.200000 833.672459 834.109801 834.682156 834.768819 835.419056 836.364765
98.250000 833.990133 834.481175 835.055736 835.120124 835.776777 836.613349
98.300000 834.364328 834.866805 835.429170 835.493207 836.140917 836.913716
98.350000 834.753937 835.223854 835.860922 835.881232 836.542076 837.154986
98.400000 835.147177 835.619579 836.225477 836.256039 836.947597 837.424718
98.450000 835.573740 836.053890 836.607060 836.643133 837.291309 837.742569
98.500000 835.971405 836.476242 836.978402 837.029566 837.675536 838.045046
98.510000 836.062654 836.563067 837.051121 837.104375 837.758531 838.118819
98.550000 836.291737 836.853346 837.327013 837.364477 837.972388 838.326517
98.625000 836.731837 837.260753 837.782900 837.792565 838.389952 838.765453
98.700000 837.167065 837.676049 838.209731 838.214475 838.784109 839.157505
98.750000 837.444004 837.951888 838.501494 838.498679 839.068922 839.466871
98.800000 837.727400 838.208524 838.828183 838.784873 839.340634 839.754515
98.875000 838.126931 838.591340 839.225063 839.192173 839.749582 840.157879
98.950000 838.495112 838.981662 839.633781 839.589762 840.153659 840.613059
98.990000 838.713890 839.194027 839.853114 839.809474 840.370939 840.848079
99.050000 839.036445 839.511058 840.159188 840.131159 840.705307 841.186679
99.150000 839.482946 840.039273 840.681706 840.648445 841.231513 841.886611
99.200000 839.752687 840.314568 840.955239 840.935609 841.520311 842.232754
99.250000 840.004778 840.595262 841.256733 841.242658 841.838528 842.533550
99.300000 840.257615 840.915439 841.550251 841.562750 842.193720 842.929825
99.350000 840.516016 841.206718 841.853324 841.881543 842.558552 843.389552
99.463333 841.080396 841.822009 842.486370 842.562802 843.375632 844.250391
99.576667 841.661812 842.446636 843.094891 843.231727 844.186410 844.993588
99.690000 842.211100 843.140309 843.803766 843.963854 845.008751 845.742347
99.700000 842.291109 843.206604 843.881718 844.038082 845.063612 845.849790
99.775000 842.754805 843.685578 844.486446 844.584575 845.575179 846.269386
99.850000 843.298183 844.161587 845.151386 845.128781 846.126068 846.810269
