depth(m) lower_95(kyr) lower_68(kyr) median(kyr) mean(kyr) upper_68(kyr) upper_95(kyr)
20.575000 693.059247 697.989999 704.741439 703.457655 708.066804 709.753359
20.655000 699.324598 704.719836 708.147747 707.522487 710.577353 711.584659
20.695000 702.370056 707.383872 710.257431 709.596581 711.954984 712.802577
20.735000 706.189020 709.695565 711.936453 711.454032 713.164883 713.997004
20.775000 709.958077 712.222715 713.650359 713.346352 714.457417 715.221432
20.815000 712.774851 714.203800 715.049576 714.996558 715.793760 716.766749
20.855000 714.979078 715.825909 716.565680 716.617914 717.380717 718.534465
20.895000 716.250433 717.031729 717.845415 717.936234 718.898347 720.105321
20.935000 717.332225 718.230078 719.100078 719.206549 720.218498 721.735665
20.975000 718.650361 719.437132 720.428185 720.592315 721.733356 723.467505
21.015000 719.865619 720.822011 722.085499 722.326144 723.836420 726.443300
21.055000 721.253336 722.545745 724.755429 725.495237 728.839204 732.844964
21.095000 722.503493 724.016304 727.362607 728.333378 733.523545 736.651555
21.135000 723.640304 725.700779 731.451416 731.097276 736.164728 738.572001
21.175000 725.312682 728.392624 734.545647 733.815678 738.157831 740.614204
21.215000 727.859576 733.223130 736.982850 736.471464 739.912799 742.602275
21.255000 732.232970 736.401653 739.017451 738.904261 741.476851 744.874640
21.295000 735.601614 738.841087 741.220601 741.016819 742.872506 747.536875
21.335000 738.398905 741.539956 743.394014 743.591884 745.363522 750.062605
21.375000 742.650528 744.236532 746.062805 746.517029 749.413752 751.982904
21.415000 744.565861 746.439818 748.971526 749.083418 751.776289 753.702767
21.455000 746.747244 749.338654 752.253452 752.001469 754.445895 756.403350
21.495000 751.326044 754.241277 756.443133 756.464500 758.886398 760.929139
21.535000 756.327395 758.457986 760.995441 760.819555 762.911817 765.270965
21.575000 758.849221 761.466559 763.578140 763.594480 765.726947 768.148346
21.615000 761.141584 764.019092 766.126575 766.040091 768.124589 770.152434
21.655000 763.883448 766.903462 769.048219 768.848113 770.849526 772.643454
21.695000 766.722511 769.583964 771.475893 771.348849 773.210756 774.856148
21.735000 768.990311 771.371866 773.170132 773.068694 774.857122 776.729887
21.775000 771.556150 773.230297 774.804534 774.869181 776.591231 778.521374
21.815000 773.105716 774.856218 776.482814 776.551244 778.360772 780.314295
21.855000 774.694917 776.341951 778.055496 778.108501 779.928667 781.726211
21.895000 776.096555 777.735176 779.555739 779.551341 781.468359 783.047244
21.935000 777.366827 778.952951 780.957757 780.908751 782.891579 784.120048
21.975000 778.705647 780.397529 782.377696 782.237355 784.100437 785.294811
22.015000 779.998595 781.905106 783.775630 783.582599 785.271565 786.140265
22.055000 781.388625 783.515174 785.220960 784.933761 786.334487 787.160191
22.095000 782.837129 785.047561 786.522069 786.259185 787.456507 788.224669
22.135000 784.376638 786.428648 787.619153 787.416887 788.420010 789.072090
22.175000 786.032624 787.667358 788.581209 788.438026 789.314645 789.931360
22.215000 788.057744 788.925741 789.605339 789.570809 790.245825 790.808627
22.255000 789.202195 789.901805 790.522852 790.502642 791.123191 791.598372
22.295000 790.185099 790.832040 791.399596 791.374389 791.936424 792.418234
22.335000 791.277752 791.750802 792.280173 792.260315 792.750335 793.241923
22.375000 792.209089 792.675625 793.161636 793.155118 793.657393 794.115099
22.415000 793.035077 793.534261 794.034247 794.032413 794.549695 795.011942
22.455000 793.776531 794.286917 794.827296 794.824665 795.341777 795.930929
22.495000 794.511619 795.064971 795.575137 795.615583 796.213529 796.813094
22.535000 795.217969 795.766847 796.378686 796.385777 796.993653 797.637178
22.575000 795.946954 796.511324 797.172797 797.172737 797.819013 798.496921
22.615000 796.703189 797.286884 797.958211 797.951713 798.602685 799.224405
22.655000 797.477047 798.041567 798.680069 798.720767 799.407422 800.118384
22.695000 798.294665 798.792211 799.498504 799.508434 800.208011 800.912183
22.735000 799.045257 799.583619 800.295790 800.310249 801.034599 801.770898
22.775000 799.711991 800.388884 801.091675 801.124882 801.865960 802.610966
22.815000 800.576500 801.237536 801.927737 801.959153 802.692231 803.360022
22.855000 801.403353 802.058710 802.733539 802.763068 803.489728 804.246947
22.895000 802.241790 802.887406 803.546572 803.579861 804.266366 805.029833
22.935000 803.109809 803.674296 804.404101 804.423225 805.160604 805.948774
22.975000 803.927499 804.563498 805.288812 805.298229 806.022220 806.800687
23.015000 804.733464 805.437638 806.176125 806.207558 806.963338 807.785046
23.055000 805.729820 806.357580 807.122897 807.156265 807.944962 808.794453
23.095000 806.594730 807.282189 808.091320 808.108332 808.902557 809.699060
23.135000 807.475352 808.231829 809.070532 809.080509 809.905668 810.854445
23.175000 808.440702 809.183751 810.069301 810.089988 810.914179 811.938480
23.215000 809.404651 810.214461 811.060420 811.138940 812.011100 813.263563
23.255000 810.456880 811.218383 812.175591 812.273908 813.200084 814.876873
23.295000 811.431709 812.361830 813.379592 813.554442 814.654535 816.842284
23.335000 812.499855 813.488131 814.665288 814.973559 816.379397 819.249729
23.375000 813.725795 814.720902 816.120551 816.745824 818.905183 822.880891
23.415000 814.842421 816.018173 817.910792 818.632279 821.852298 824.873198
23.455000 815.957365 817.320796 820.160336 820.712178 824.148818 827.308434
23.495000 817.185503 818.956265 822.979893 822.985964 826.558302 830.479083
23.535000 818.580257 821.047440 824.483454 824.932925 829.013989 832.884327
23.575000 820.524284 823.410757 825.897477 826.855878 831.525836 834.951241
23.615000 823.778957 825.391145 827.490838 828.782667 833.910369 836.775244
23.655000 825.625700 826.875321 829.279543 830.716010 835.994060 838.321017
23.695000 827.083874 828.589485 832.663637 833.143991 837.854035 840.500222
23.735000 828.799760 830.959039 836.890840 836.052805 840.236169 842.573921
23.775000 831.158710 834.645161 840.027396 839.283667 842.940228 845.383480
23.815000 833.765641 839.160144 842.749792 842.284040 845.253521 848.407172
23.855000 837.650273 842.128900 844.766698 844.605883 847.191480 851.068442
23.895000 841.026438 844.441823 846.716142 846.837916 849.252350 853.841337
23.935000 843.525418 846.520973 848.615264 848.859452 851.248010 855.615443
23.975000 845.217624 848.371856 850.590822 850.861740 853.765260 856.891563
24.015000 847.118421 850.106429 853.091162 852.979478 855.825063 858.221735
24.055000 849.630843 852.517299 855.267682 855.091419 857.683494 859.590569
24.095000 851.466551 855.142736 857.265040 857.188847 859.465460 861.505751
24.135000 854.770723 857.074300 859.052879 859.035607 861.080259 862.848906
24.175000 856.785462 858.880637 860.846480 860.722094 862.586771 864.017305
24.215000 858.472284 860.504755 862.501641 862.334668 864.161863 865.322549
24.255000 860.573508 862.654042 864.294253 864.099844 865.566300 866.552030
24.295000 864.771602 865.933168 866.970818 866.913853 867.922375 868.801342
24.335000 866.621447 867.452239 868.347468 868.350903 869.253955 870.215594
24.375000 867.872159 868.774476 869.633856 869.708264 870.665208 871.808876
24.415000 869.187765 870.096475 871.147714 871.341207 872.581420 874.664384
24.455000 870.488255 871.429319 872.707575 872.947134 874.424193 876.697208
24.495000 871.730413 872.807231 874.275965 874.487375 876.151513 878.735436
24.535000 872.901095 874.154948 875.934710 876.105036 877.991493 880.814162
24.575000 874.175677 875.711846 877.877087 878.017926 880.381707 882.883539
24.615000 875.781905 877.815024 880.345189 880.514533 883.069871 886.143168
24.655000 878.321736 880.598278 883.770812 883.713367 886.707978 889.413778
24.695000 880.196618 882.862030 886.260973 886.166816 889.410620 891.867684
24.735000 882.563059 885.304228 888.822068 888.706733 892.027394 894.286165
24.775000 885.017686 888.111594 891.804613 891.463896 894.496111 896.744541
24.815000 887.486789 891.087690 894.420035 894.063137 896.728181 899.257201
24.855000 890.090386 893.871397 896.502297 896.571579 899.288481 903.385996
24.895000 893.425912 896.149659 898.661279 899.144466 902.289954 907.129463
24.935000 896.118144 898.356666 901.519506 902.024124 906.083920 910.062422
24.975000 898.573853 901.097499 905.120680 905.166029 908.990423 913.400787
25.015000 901.124733 904.593861 908.436463 908.547262 912.436332 915.377048
25.055000 905.081372 908.639397 912.233210 911.919965 915.102846 916.962069
25.095000 909.034959 912.815223 915.604497 915.080492 917.338321 918.489876
25.135000 914.120702 916.658133 918.248152 918.020015 919.468602 920.692012
25.175000 917.053788 918.313033 919.601993 919.563495 920.803421 921.875657
25.215000 918.670621 919.731753 920.826644 920.834821 921.985085 923.047950
25.255000 919.865678 920.890140 922.006629 922.042006 923.143337 924.419945
25.295000 921.087480 922.164518 923.344328 923.443410 924.694299 926.697836
25.335000 922.506121 923.752747 925.271105 925.474698 927.197573 929.615873
25.375000 924.153884 925.599615 927.744427 927.794816 929.964000 931.823971
25.415000 926.380422 928.793282 931.130160 930.939943 933.053789 934.936356
25.455000 929.644665 932.241154 934.177460 934.119215 936.042958 937.856104
25.495000 932.544504 934.302281 936.139285 936.128610 938.059068 939.541216
25.535000 934.570763 936.280847 938.049657 937.979446 939.803998 940.970151
25.575000 936.167364 937.908654 939.719097 939.553371 941.124407 942.117503
25.615000 937.807608 939.617207 941.122755 940.976138 942.329478 943.241290
25.655000 939.460945 941.069919 942.260516 942.138154 943.287496 944.161996
25.695000 940.883675 942.224734 943.193378 943.152311 944.146587 944.917833
25.735000 942.072185 943.129778 944.098671 944.056403 944.980094 945.792450
25.775000 942.932341 943.988382 944.902913 944.868871 945.747245 946.497696
25.815000 943.690910 944.702875 945.663589 945.615857 946.523858 947.259389
25.855000 944.501620 945.404711 946.395334 946.336593 947.257703 948.053644
25.895000 945.176352 946.106683 947.077208 947.041871 947.939820 948.783834
25.935000 945.899748 946.815619 947.780072 947.753451 948.652981 949.457351
25.975000 946.644913 947.550885 948.477807 948.447567 949.352762 950.160884
26.015000 947.293942 948.185701 949.169156 949.144224 950.029395 950.886895
26.055000 948.001966 948.917450 949.892953 949.842201 950.746846 951.620053
26.095000 948.758223 949.637474 950.633862 950.566411 951.467451 952.313090
26.135000 949.533901 950.342041 951.352624 951.296958 952.205154 952.911298
26.175000 950.160263 951.135107 952.110398 952.032681 952.938957 953.590432
26.215000 950.881847 951.906020 952.834816 952.769604 953.627627 954.365820
26.255000 951.630358 952.610538 953.614122 953.510766 954.352200 954.977068
26.295000 952.424483 953.404569 954.371334 954.260033 955.056768 955.693499
26.335000 953.172386 954.269093 955.120429 955.022409 955.758965 956.330807
26.375000 954.041111 955.042055 955.886535 955.784104 956.460299 957.015428
26.415000 954.949165 955.939521 956.665277 956.580049 957.220067 957.730394
26.455000 956.048674 956.860816 957.516076 957.447116 958.016253 958.544915
26.495000 957.393076 957.883074 958.430632 958.457221 959.002947 959.618432
26.535000 958.166280 958.658220 959.156805 959.185231 959.714540 960.457048
26.575000 958.874419 959.284097 959.790782 959.838784 960.362324 961.213774
26.615000 959.441724 959.918920 960.434243 960.531075 961.151356 962.147219
26.655000 960.098969 960.564676 961.112126 961.274622 961.970702 963.509431
26.695000 960.655544 961.202637 961.923568 962.127995 963.078144 964.729230
26.735000 961.427381 962.032641 962.952657 963.174760 964.402883 965.800762
26.775000 962.231859 963.012293 964.147280 964.286527 965.721661 966.603649
26.815000 963.086006 964.033253 965.365372 965.359554 966.681182 967.535994
26.855000 964.023097 965.151398 966.520543 966.412647 967.608388 968.410343
26.895000 965.107412 966.337820 967.549966 967.463734 968.484016 969.452870
26.935000 966.430386 967.594817 968.629706 968.600165 969.565782 970.700714
26.975000 967.873855 968.821316 969.765375 969.833406 970.819043 972.291396
27.015000 969.020268 969.916456 970.862060 971.040039 972.318959 973.779581
27.055000 969.952874 970.789686 971.896771 972.126086 973.577556 975.134715
27.095000 970.796570 971.648105 972.928611 973.158546 974.743182 976.475466
27.135000 971.515625 972.470455 974.019161 974.137732 975.877204 977.543560
27.175000 972.208657 973.285218 975.043963 975.148773 976.899058 978.846465
27.215000 972.883611 974.083000 976.190487 976.156321 978.127834 979.874673
27.255000 973.548862 974.837540 977.175297 977.113347 979.239287 981.140811
27.295000 974.282579 975.760150 978.230416 978.075240 980.239296 982.340720
27.335000 975.070711 976.734525 979.297487 979.051632 981.026073 983.023642
27.375000 975.946672 977.873319 980.252863 979.994331 981.711662 983.609254
27.415000 977.050001 979.399964 981.107150 980.930683 982.339026 984.288180
27.455000 978.505422 980.489057 981.879555 981.825844 983.090411 984.984883
27.495000 979.833990 981.437058 982.590064 982.627306 983.779490 985.660588
27.535000 981.000313 982.294666 983.357013 983.426041 984.513778 986.455539
27.575000 982.156613 983.133885 984.185826 984.254839 985.317428 987.208137
27.615000 982.986489 983.965528 985.042813 985.115838 986.185213 987.818599
27.655000 983.852908 984.806001 985.903735 985.961256 987.041307 988.533933
27.695000 984.760274 985.747852 986.758535 986.826160 987.891740 989.340141
27.735000 985.640987 986.620521 987.727950 987.764487 988.855792 990.441253
27.775000 986.539909 987.577356 988.631107 988.685084 989.781853 991.312425
27.815000 987.452327 988.409969 989.509473 989.584972 990.724809 992.294395
27.855000 988.377282 989.241593 990.322428 990.404855 991.587752 993.097962
27.895000 989.235348 990.058855 991.127515 991.240086 992.466134 993.842491
27.935000 989.910298 990.904669 991.982266 992.059201 993.229259 994.812056
27.975000 990.621536 991.663697 992.825146 992.916567 994.261338 995.595113
28.015000 991.443025 992.437516 993.690859 993.786258 995.268389 996.460393
28.055000 992.238971 993.197758 994.543230 994.630944 996.112622 997.313367
28.095000 993.116421 994.100056 995.478174 995.542365 997.077814 998.157473
28.135000 993.877459 995.008082 996.429720 996.468587 997.969223 998.812279
28.175000 994.577349 996.040028 997.562427 997.409249 998.759450 999.552450
28.215000 995.450610 996.985674 998.558704 998.307616 999.552266 1000.198776
28.255000 996.476799 998.093031 999.430624 999.207950 1000.263778 1000.855706
28.295000 997.752251 999.187801 1000.290087 1000.108381 1000.944035 1001.508608
28.335000 999.010477 1000.350998 1001.094629 1000.969362 1001.636764 1002.103838
28.375000 1000.457943 1001.312945 1001.875351 1001.823340 1002.362573 1002.825778
28.415000 1001.581218 1002.086988 1002.607278 1002.604015 1003.116279 1003.600784
28.455000 1002.322158 1002.781491 1003.289198 1003.316922 1003.834921 1004.460565
28.495000 1002.970453 1003.438930 1003.965816 1004.008590 1004.534483 1005.365915
28.535000 1003.622462 1004.120378 1004.667582 1004.704038 1005.241615 1006.191648
28.575000 1004.278835 1004.795539 1005.365244 1005.419078 1006.014021 1006.977036
28.615000 1004.912011 1005.442239 1006.119297 1006.160062 1006.781529 1007.895743
28.655000 1005.629676 1006.185360 1006.914826 1006.951643 1007.672158 1008.662275
28.695000 1006.372503 1006.967812 1007.702421 1007.765579 1008.525067 1009.583589
28.735000 1007.016299 1007.707745 1008.491150 1008.547267 1009.378107 1010.467754
28.775000 1007.707186 1008.442403 1009.287334 1009.347345 1010.215670 1011.457931
28.815000 1008.515552 1009.171872 1010.033056 1010.119028 1011.059052 1012.307200
28.855000 1009.254204 1009.948039 1010.793233 1010.916082 1011.888808 1013.201128
28.895000 1010.001029 1010.768508 1011.664698 1011.770019 1012.797055 1014.098465
28.935000 1010.795903 1011.652352 1012.570132 1012.706333 1013.773715 1015.254335
28.975000 1011.613473 1012.463294 1013.510947 1013.648403 1014.959730 1016.312947
29.015000 1012.284052 1013.174723 1014.331979 1014.503449 1016.003744 1017.252587
29.055000 1013.130059 1013.998622 1015.166753 1015.368515 1016.939254 1018.111533
29.095000 1013.907647 1014.867752 1016.156126 1016.255167 1017.777562 1018.800557
29.135000 1014.606578 1015.718564 1017.165447 1017.149016 1018.573154 1019.645590
29.175000 1015.472599 1016.609066 1018.072552 1018.019341 1019.401616 1020.370521
29.215000 1016.449284 1017.580872 1019.054350 1018.943167 1020.195152 1021.247151
29.255000 1017.294769 1018.526601 1019.922678 1019.848549 1021.028187 1022.192270
29.295000 1018.156065 1019.565730 1020.862175 1020.792806 1022.004218 1023.289925
29.335000 1019.186251 1020.608672 1021.825473 1021.798371 1022.954883 1024.429122
29.375000 1020.324528 1021.647850 1022.846392 1022.868729 1024.121824 1025.625160
29.415000 1021.419869 1022.649638 1023.872401 1023.911152 1025.189317 1026.470777
29.455000 1022.388253 1023.651964 1024.901819 1024.889242 1026.170639 1027.318823
29.495000 1023.497795 1024.746076 1025.959527 1025.944215 1027.118485 1028.218221
29.535000 1024.640276 1025.876223 1027.046535 1026.993796 1028.105796 1029.144042
29.575000 1025.636466 1026.845350 1028.007496 1027.924296 1028.979307 1029.896877
29.615000 1026.590949 1027.761774 1028.858726 1028.784172 1029.823438 1030.667884
29.655000 1027.603439 1028.678608 1029.701021 1029.619138 1030.550055 1031.366752
29.695000 1028.560517 1029.525418 1030.448984 1030.412097 1031.286808 1032.121942
29.735000 1029.501922 1030.339005 1031.248165 1031.223832 1032.058481 1032.900891
29.775000 1030.248306 1031.151779 1032.002396 1032.006790 1032.853755 1033.814357
29.815000 1031.280571 1032.143425 1033.000688 1033.064551 1033.953965 1035.276936
29.855000 1032.425248 1033.299935 1034.313927 1034.469522 1035.661585 1037.566082
29.895000 1033.706932 1034.616835 1035.929404 1036.118571 1037.652177 1039.634474
29.935000 1034.562428 1035.818778 1037.499650 1037.637747 1039.454192 1041.822756
29.975000 1035.373929 1037.016953 1038.913910 1039.003748 1041.043372 1043.030643
30.015000 1036.333519 1038.046872 1040.444835 1040.353835 1042.558736 1044.570627
30.055000 1037.373663 1039.308833 1041.739617 1041.722083 1044.022106 1045.737962
30.095000 1038.429794 1040.692118 1043.098623 1043.006616 1045.305296 1047.006243
30.135000 1039.617430 1042.098138 1044.473115 1044.303160 1046.426936 1048.114378
30.175000 1040.693130 1043.291670 1045.756164 1045.537442 1047.631196 1049.263690
30.215000 1042.048913 1044.613420 1046.795801 1046.683800 1048.717581 1050.265517
30.255000 1043.537336 1045.827760 1047.904660 1047.764531 1049.699528 1050.962686
30.295000 1044.893996 1046.817436 1048.930751 1048.777200 1050.575133 1051.878688
30.335000 1045.997688 1047.964441 1049.901030 1049.782480 1051.477850 1052.864541
30.375000 1047.312401 1049.091215 1050.970298 1050.802812 1052.420257 1053.828991
30.415000 1048.097132 1050.074714 1051.941101 1051.753920 1053.356767 1054.641111
30.455000 1049.194501 1051.100245 1052.881345 1052.706690 1054.266994 1055.427164
30.495000 1050.452078 1052.099188 1053.856582 1053.679396 1055.159380 1056.155955
30.535000 1051.590001 1053.195228 1054.861408 1054.720278 1056.120131 1057.064207
30.575000 1052.792981 1054.472701 1055.943522 1055.824478 1057.164307 1058.129964
30.615000 1054.275744 1055.833323 1057.071174 1057.026820 1058.287521 1059.304740
30.655000 1055.973325 1057.127192 1058.332526 1058.290356 1059.375398 1060.379006
30.695000 1057.291912 1058.423448 1059.494697 1059.460295 1060.468669 1061.610804
30.735000 1058.435892 1059.576133 1060.580765 1060.559628 1061.547766 1062.825934
30.775000 1059.625522 1060.592541 1061.542635 1061.544455 1062.495475 1063.775087
30.815000 1060.722869 1061.596064 1062.441646 1062.548627 1063.514629 1064.877585
