depth(m) lower_95(kyr) lower_68(kyr) median(kyr) mean(kyr) upper_68(kyr) upper_95(kyr)
21.300000 696.671522 702.206720 707.034650 706.293759 709.873191 712.981642
21.400000 705.065018 709.466844 712.508458 712.107660 714.214601 715.803357
21.500000 715.435679 716.987078 718.450589 718.743057 720.234411 723.633148
21.600000 719.657987 721.783396 724.467984 725.246931 728.969219 734.145675
21.700000 725.059203 727.367698 731.723375 731.846483 736.487943 739.831853
21.800000 730.652709 735.070240 739.424309 738.877838 742.340171 744.615404
21.900000 739.511475 744.127987 746.534624 746.569855 749.201652 752.756499
22.000000 748.073790 750.885212 753.766107 753.929306 756.530735 762.951012
22.100000 757.826518 761.396051 765.529658 765.708192 770.258634 773.807570
22.200000 765.585535 770.455095 773.526108 773.539692 776.916559 780.268468
22.300000 772.635924 776.386032 779.581212 779.531958 782.837645 785.113831
22.400000 777.610848 781.364020 785.813554 785.246351 788.334226 790.138511
22.533333 784.577828 789.534794 794.864026 796.078726 802.813381 813.815964
22.666667 792.660659 799.366043 806.674990 807.576756 817.108088 823.331586
22.800000 807.691591 811.669777 817.043708 818.639825 826.632406 830.949617
22.900000 814.224856 818.714043 824.922146 825.243218 831.804480 835.695552
23.000000 819.012694 825.483870 831.449034 831.029897 836.516959 839.643592
23.100000 824.977078 831.798703 837.098963 836.408392 840.884240 843.699548
23.200000 833.236567 838.074569 842.112349 841.690328 845.145938 850.179141
23.300000 840.061228 844.375393 847.486148 847.147889 849.927173 854.125460
23.400000 845.410253 848.913955 851.885340 851.868713 855.229965 857.762019
23.500000 849.653943 853.641021 856.609621 856.239516 858.914477 860.693595
23.550000 852.340204 856.241997 859.087634 858.578275 860.942032 862.450154
23.600000 854.509488 858.964639 861.405254 860.927145 862.954979 864.263524
23.650000 857.372512 861.665768 863.625224 863.234298 865.041648 866.046866
23.700000 860.190163 864.073623 865.545322 865.255918 866.683670 867.601355
23.750000 862.969072 866.241359 867.583842 867.316235 868.605138 869.652697
23.800000 865.455349 867.973499 869.452496 869.309297 870.677384 872.038037
23.850000 869.522798 870.910014 872.193328 872.370520 873.766958 876.054561
23.900000 871.737322 873.143237 874.778448 875.111406 877.113004 880.167251
23.950000 873.859031 875.588956 877.842420 878.235203 880.811856 884.651721
24.050000 877.987725 881.275521 885.284200 885.605681 890.000073 895.085598
24.150000 884.685687 889.354181 893.748542 893.757653 897.432060 904.832236
24.200000 888.993532 895.045962 898.981858 899.146319 903.332322 910.058192
24.250000 893.019050 898.137783 902.745084 903.065575 908.232355 913.327660
24.300000 896.103267 900.960099 907.156973 906.963934 913.028345 916.367463
24.350000 899.004596 904.006446 911.937261 911.054102 916.808500 923.607378
24.400000 900.922387 906.661066 917.837456 915.948070 923.691299 926.390712
24.450000 903.457732 909.727859 924.014711 920.008639 927.052053 928.993933
24.500000 907.116872 913.175832 927.112382 923.512027 929.514494 931.174542
24.550000 910.281368 918.556628 929.505167 927.006471 931.629503 933.303075
24.600000 913.958177 927.907813 931.836420 930.378884 933.755330 935.454726
24.650000 925.066581 931.494261 933.940367 933.367612 935.707412 937.541627
24.700000 932.975484 935.043002 936.661317 936.559272 938.187879 939.855127
24.750000 935.786876 937.425345 938.852369 938.842378 940.331869 941.931379
24.800000 937.937498 939.537025 940.883592 940.871969 942.231082 943.688883
24.850000 940.161292 941.533567 942.817828 942.799509 944.072608 945.257980
24.900000 942.350360 943.601309 944.841704 944.796647 946.032151 947.065251
24.950000 944.247535 945.468709 946.633923 946.639853 947.879065 948.869003
25.000000 945.954128 947.119462 948.330745 948.349801 949.597333 950.766654
25.050000 947.567064 948.904163 950.055024 950.069281 951.261856 952.572351
25.100000 949.198119 950.606087 951.859021 951.796232 952.944408 954.122323
25.150000 951.048247 952.360890 953.547173 953.523420 954.656676 955.774809
25.200000 952.799415 954.204201 955.333341 955.313274 956.411355 957.447306
25.250000 955.089348 956.439083 957.457909 957.456157 958.440516 959.950555
25.300000 959.881634 961.612880 963.437167 963.577933 965.635349 967.494878
25.350000 963.825111 966.619729 968.528673 968.508446 970.345173 972.864704
25.400000 967.684351 969.859604 971.984076 972.120123 974.413142 977.081485
25.450000 970.553675 972.761293 975.587598 975.646595 978.616770 980.976425
25.500000 972.602198 975.272980 979.347008 978.972263 982.109339 985.068149
25.550000 974.766320 978.713665 982.808904 982.513355 986.249028 989.093234
25.600000 977.755510 981.701981 985.838216 985.512492 989.308801 991.326121
25.650000 981.580288 984.848842 988.917459 988.353361 991.401837 993.102974
25.700000 985.070322 988.608064 991.388685 991.049167 993.523303 995.082488
25.750000 989.013667 991.957652 994.102238 993.852512 995.823789 997.209777
25.800000 992.121769 994.576109 996.457132 996.221725 997.910934 999.286721
25.850000 994.191373 996.702107 998.673504 998.375587 1000.003835 1001.128572
25.900000 996.734529 999.423204 1000.866681 1000.663816 1001.962783 1003.115220
25.950000 1001.992967 1002.972286 1004.011343 1004.102332 1005.319416 1006.883503
26.000000 1004.047868 1005.444139 1006.846701 1007.086362 1008.849018 1011.038005
26.050000 1006.644880 1007.950651 1009.675755 1009.972670 1012.156411 1014.611182
26.100000 1008.739622 1010.108270 1012.188352 1012.436409 1014.936314 1017.606251
26.130000 1009.838048 1011.447576 1013.627095 1013.876498 1016.572130 1018.924334
26.180000 1012.026198 1013.631435 1016.065509 1016.269459 1019.083902 1021.295951
26.200000 1012.971339 1014.526071 1017.134185 1017.253344 1020.011550 1022.146772
26.250000 1014.936757 1016.871929 1019.578322 1019.608021 1022.388102 1024.419123
26.270000 1015.778999 1017.731021 1020.493312 1020.551972 1023.369060 1025.493069
26.300000 1017.407060 1019.264068 1021.811354 1021.916138 1024.624180 1026.831383
26.350000 1020.075125 1021.857915 1024.316974 1024.257165 1026.553393 1028.411922
26.400000 1022.589330 1024.491385 1026.750720 1026.605369 1028.583594 1030.190909
26.450000 1025.273186 1027.354519 1029.233511 1029.099795 1030.724190 1032.205955
26.500000 1028.578868 1030.535503 1031.837453 1031.831162 1033.105984 1035.026869
26.550000 1032.589299 1033.826650 1035.224199 1035.593766 1037.380591 1040.771520
26.600000 1035.138880 1036.433671 1038.509669 1038.810279 1041.385612 1044.119884
26.650000 1037.379698 1038.939024 1041.725640 1041.922771 1044.859955 1048.377183
26.700000 1039.516251 1041.732268 1045.035449 1045.271803 1048.649174 1052.632410
26.750000 1042.083571 1045.136975 1049.212922 1049.143372 1053.253094 1056.136804
26.850000 1051.492295 1055.253480 1057.962150 1057.643083 1059.891795 1061.685514
26.900000 1055.757694 1058.213474 1060.145242 1060.136330 1062.067574 1063.979396
26.950000 1058.592008 1060.508242 1062.333872 1062.344201 1064.203843 1065.843551
27.000000 1061.431460 1063.047219 1064.836253 1064.824600 1066.622268 1068.340995
27.050000 1063.482079 1065.248126 1067.204657 1067.127296 1069.042578 1070.673321
27.100000 1065.379409 1067.180803 1069.304833 1069.242727 1071.194611 1072.885975
27.150000 1067.177212 1069.216244 1071.419720 1071.320497 1073.301806 1074.902762
27.200000 1069.136605 1071.294919 1073.501832 1073.342865 1075.285807 1077.063694
27.250000 1071.347500 1073.319240 1075.618664 1075.481230 1077.442181 1079.265945
27.300000 1073.293235 1075.569300 1077.736629 1077.598577 1079.553605 1081.386292
27.350000 1075.341676 1077.730325 1079.770382 1079.784450 1081.848939 1084.104896
27.400000 1078.381853 1080.407773 1082.463323 1082.528670 1084.598866 1087.215521
27.450000 1081.399104 1083.430100 1085.581113 1085.669397 1087.862378 1090.367009
27.500000 1084.243957 1086.702987 1089.147666 1089.252146 1091.563543 1094.215239
27.550000 1087.875443 1090.334545 1093.016772 1093.208356 1095.294382 1103.560344
27.600000 1091.917534 1094.253359 1097.272403 1097.754945 1100.599009 1112.091409
27.700000 1096.304352 1097.948088 1113.108103 1109.850841 1120.393276 1126.945724
27.750000 1098.567082 1100.053537 1116.886920 1113.480202 1124.895939 1129.473697
27.800000 1100.507423 1102.527685 1119.089683 1117.083046 1128.531637 1132.785244
27.850000 1103.093390 1112.594156 1121.252885 1121.511056 1131.700571 1135.750316
27.900000 1113.979144 1118.619737 1124.433419 1125.679307 1134.413690 1138.271605
27.950000 1121.570124 1123.830313 1128.876737 1129.858229 1137.060392 1140.852891
28.000000 1125.674503 1129.692722 1133.406689 1134.316448 1140.073743 1143.655785
28.050000 1130.867437 1133.909709 1138.020757 1138.408019 1143.376855 1146.551153
28.100000 1134.770300 1137.758104 1142.223507 1142.173253 1146.478996 1149.536845
28.150000 1138.044117 1141.854359 1145.876849 1145.692629 1149.347289 1152.454247
28.200000 1141.102883 1145.870809 1149.778932 1149.253670 1152.475882 1155.184805
28.250000 1146.461569 1149.476501 1153.048118 1152.918387 1156.036262 1158.940269
28.300000 1149.980162 1152.686324 1156.125894 1156.234434 1159.379652 1163.731860
28.350000 1153.074929 1156.027490 1159.282562 1159.431227 1162.392082 1168.284756
28.400000 1155.837359 1159.240905 1162.327530 1162.625962 1165.638778 1172.501202
28.450000 1158.988763 1162.133852 1165.161869 1165.777728 1169.277890 1176.454556
28.500000 1161.886114 1165.099382 1168.167287 1169.195450 1174.471861 1180.117583
28.550000 1164.534027 1168.251493 1171.929505 1173.246225 1180.380216 1184.771946
28.600000 1166.977680 1170.733529 1175.842315 1176.921809 1184.690252 1187.718384
28.650000 1169.780965 1173.492317 1180.603076 1180.670542 1188.895604 1191.093861
