depth(m) lower_95(kyr) lower_68(kyr) median(kyr) mean(kyr) upper_68(kyr) upper_95(kyr)
26.300000 690.462170 696.353720 704.045465 702.550694 708.223227 710.546031
26.400000 696.438637 703.421597 708.705491 707.606094 711.399656 712.920705
26.500000 706.674371 711.644012 713.761985 713.207291 715.034104 716.053207
26.600000 715.255489 716.505280 717.523995 717.572425 718.718794 720.202689
26.700000 717.972184 719.296274 720.488977 720.543924 721.774711 723.285443
26.800000 721.122156 722.160921 723.389099 723.478814 724.780244 726.483365
26.900000 723.998225 725.191162 726.544381 726.699471 728.128902 730.225096
27.000000 726.542827 727.872988 729.385655 729.513333 731.142438 733.216792
27.100000 728.917925 730.306403 732.054983 732.198620 734.144926 736.146559
27.200000 731.095639 732.946005 734.858517 734.955871 737.180250 739.069714
27.300000 733.634642 735.630703 737.907860 737.985588 740.236135 742.744740
27.400000 736.779930 739.051683 741.694733 741.848096 744.085552 750.048266
27.500000 739.941582 743.150041 746.717963 746.993053 751.225023 754.567492
27.600000 743.813280 748.648733 752.833772 752.368725 755.815312 759.105540
27.700000 750.609321 754.771925 757.662310 757.698189 760.604955 765.004411
27.800000 757.461611 760.049862 763.403217 763.299963 766.677354 769.186960
27.900000 762.191799 765.335696 768.907211 768.634691 771.669141 774.574902
28.000000 767.762520 771.037562 773.605237 773.625990 776.434926 778.754327
28.100000 772.763526 775.518257 778.314050 778.091033 780.731011 782.361057
28.200000 776.680312 779.057859 782.136588 781.704600 783.989908 785.383105
28.300000 780.098056 783.131222 785.478673 785.047212 786.778067 788.184377
28.400000 784.254904 786.993762 788.625713 788.334536 789.747722 791.011391
28.500000 788.478531 789.882586 791.168818 791.134881 792.254948 793.856299
28.600000 792.485971 793.707243 795.163436 795.795203 798.367566 801.098004
28.700000 795.696227 797.577653 800.481033 800.422294 803.085727 805.570754
28.800000 800.358280 803.403015 805.719956 805.637159 807.934479 809.867319
28.900000 805.446751 807.520955 809.648737 809.744457 811.841142 814.190631
29.000000 809.218470 811.161971 813.453420 813.587355 815.828970 818.358013
29.110000 813.500758 815.749233 818.097974 818.232891 820.601217 823.252723
29.210000 816.372770 819.583975 821.965222 822.062234 824.164432 830.663243
29.310000 819.894112 823.293624 825.874215 826.080925 828.541082 834.981100
29.410000 823.243023 826.219380 829.480465 829.924421 833.606379 838.793918
29.510000 826.477388 828.952056 833.825013 833.829787 838.645990 842.627263
29.610000 829.652291 832.141751 838.618505 838.085804 843.824155 846.973560
29.710000 832.313147 834.878653 843.627018 842.412409 848.472693 851.627148
29.810000 835.528661 838.519255 848.762818 846.657626 852.557410 855.326223
29.910000 839.519571 843.942925 853.380936 851.543616 856.513597 859.402927
30.000000 845.977842 853.662000 858.108847 857.018632 860.474349 862.515986
30.110000 856.548694 860.641785 863.028419 862.531404 864.506367 865.746378
30.210000 864.952119 866.403416 867.433632 867.384400 868.542089 869.709203
30.310000 868.306538 869.353744 870.406719 870.494372 871.584341 873.314267
30.410000 870.805441 871.918019 873.091776 873.237789 874.536650 876.851539
30.510000 873.249983 874.224133 875.618203 875.783508 877.257065 879.737602
30.610000 875.533486 876.761298 878.270519 878.541198 880.314298 883.495025
30.710000 877.883453 879.422528 881.288891 881.605478 883.894513 887.182234
30.810000 880.230056 881.987135 884.508067 884.800420 887.835335 890.791730
30.910000 882.788932 885.031292 888.363891 888.536748 892.127221 894.813838
31.010000 885.817273 889.010577 893.199406 893.040312 896.831623 900.930715
31.110000 888.933545 893.764231 898.047560 898.019452 902.407559 907.443434
31.210000 892.960573 897.299538 902.244208 902.447198 907.759846 911.862460
31.310000 898.261181 902.763699 907.957649 907.577603 912.495577 915.064081
31.400000 903.528479 908.270398 912.902712 912.270515 915.846026 917.888813
31.510000 913.441098 917.374849 919.276274 918.957316 920.938024 922.559762
31.610000 918.001456 920.170555 922.126374 921.985345 923.791454 925.513965
31.710000 920.932576 922.980561 924.725054 924.704453 926.429583 928.254483
31.810000 924.076494 925.824416 927.519294 927.520906 929.247422 930.971729
31.910000 926.806449 928.634409 930.381901 930.365880 932.087789 933.865249
32.010000 929.658270 931.475038 933.257921 933.253196 934.941748 936.930601
32.110000 932.735308 934.417261 936.050339 936.169294 937.972657 940.094737
32.210000 935.919188 937.357948 939.159452 939.312935 941.315809 943.792676
32.310000 938.802579 940.542198 942.486658 942.710169 944.844613 948.586162
32.400000 942.431815 944.637983 946.917164 947.108233 949.764748 952.572940
32.500000 946.473593 948.753526 951.418304 951.316056 953.814678 955.568560
32.610000 951.309287 954.280685 956.072419 955.778536 957.248307 958.189848
32.710000 958.450844 959.248716 960.083485 960.169267 961.030541 962.575339
32.810000 961.387267 962.380857 963.699597 963.813283 965.196811 966.836583
32.910000 964.133576 965.696950 967.323840 967.364897 968.972864 970.795618
33.010000 967.966054 969.876764 971.543884 971.765707 973.912913 975.987545
33.110000 971.663429 973.445174 975.660019 975.599652 977.696337 979.509445
33.210000 975.128768 977.287517 979.334265 979.206210 980.948532 982.706244
33.310000 979.137503 981.478281 983.176485 983.294500 985.125105 988.246470
33.410000 982.959187 984.887757 987.000658 987.038199 989.176014 991.519904
33.510000 986.442685 988.805746 991.090776 990.988266 993.224155 994.848111
33.610000 990.477683 993.158188 995.554877 995.206165 997.054640 998.245291
33.710000 993.784275 996.780445 998.652164 998.323662 999.813470 1000.724464
33.810000 998.166690 1000.280540 1001.443759 1001.233656 1002.266070 1003.097227
33.910000 1002.123238 1003.134127 1003.959484 1003.974024 1004.784788 1005.916069
34.010000 1004.168316 1005.117681 1006.201718 1006.248355 1007.293827 1008.905598
34.110000 1006.149951 1007.265641 1008.506536 1008.625189 1009.974527 1011.610209
34.210000 1008.298993 1009.581370 1011.112712 1011.210110 1012.757117 1015.038397
34.310000 1010.564782 1011.983335 1013.784574 1013.955962 1015.811308 1018.352878
34.410000 1012.868402 1014.634619 1016.816084 1016.858762 1018.926363 1021.185969
34.510000 1016.024327 1017.912513 1020.263657 1020.248781 1022.396565 1025.506966
34.610000 1019.930234 1022.170173 1024.189386 1024.219657 1026.455086 1028.520577
34.710000 1023.801128 1026.229024 1028.600844 1028.410367 1030.529246 1032.000871
34.810000 1029.983593 1032.022374 1033.658601 1033.791128 1035.473941 1038.723521
34.910000 1033.439301 1034.865527 1036.916278 1037.305911 1040.017374 1043.278088
35.010000 1035.803180 1037.597932 1039.944226 1040.422265 1043.384165 1046.837729
35.110000 1038.535115 1040.409255 1043.007908 1043.412090 1046.492703 1050.395609
35.210000 1041.204783 1043.448679 1046.379249 1046.640295 1049.742608 1053.225914
35.310000 1044.661264 1047.341241 1050.572300 1050.527968 1053.758234 1056.130279
35.410000 1048.672677 1052.068923 1055.126152 1054.796801 1057.470051 1059.480927
35.510000 1055.853417 1058.562027 1060.540337 1060.479381 1062.448703 1064.391586
35.610000 1060.619039 1062.254855 1064.214833 1064.347789 1066.296605 1069.075864
35.710000 1063.816816 1065.316788 1067.399149 1067.622293 1070.121288 1072.329706
35.810000 1066.183382 1068.343971 1070.426085 1070.616798 1073.017024 1075.279093
35.910000 1069.081516 1071.320345 1073.627050 1073.618539 1075.812956 1078.141283
36.050000 1073.212830 1076.064106 1078.348142 1078.449981 1080.771195 1083.910954
36.110000 1075.738160 1078.301552 1080.711532 1080.874987 1083.499679 1086.650607
36.210000 1079.782900 1082.623910 1085.571315 1085.599697 1088.639202 1091.278756
36.310000 1084.693509 1088.139933 1090.743678 1090.572352 1093.046866 1094.721944
36.410000 1091.179127 1093.324826 1095.476628 1095.284009 1097.093591 1098.486661
36.510000 1095.859141 1097.756804 1099.159604 1099.037419 1100.294612 1101.637534
36.610000 1098.995072 1101.044819 1102.260185 1102.188936 1103.327025 1104.585132
36.710000 1103.156048 1104.382585 1105.609268 1105.736121 1107.043415 1109.463201
36.810000 1105.840859 1107.311071 1108.865388 1109.084049 1110.724228 1113.921862
