depth(m) lower_95(kyr) lower_68(kyr) median(kyr) mean(kyr) upper_68(kyr) upper_95(kyr)
24.220000 696.558417 701.227215 706.024681 705.010719 708.380681 709.994990
24.320000 700.222874 705.184719 708.496403 707.809202 710.370838 711.599463
24.420000 704.926552 708.828804 711.000024 710.548352 712.312141 713.447876
24.520000 709.329020 711.666205 713.040208 712.803781 713.969462 714.769677
24.620000 712.728666 713.863646 714.840331 714.742191 715.594183 716.424982
24.720000 714.849549 715.788307 716.534668 716.555995 717.327164 718.295991
24.820000 716.598294 717.419186 718.242603 718.272184 719.161102 720.020925
24.920000 718.176709 719.098903 719.990860 719.970556 720.820919 721.924803
25.020000 719.831438 720.827075 721.834049 721.895406 722.881492 724.453758
25.120000 721.600319 722.687127 723.923326 724.272415 725.646008 730.132601
25.220000 723.758219 725.160533 727.112255 728.052696 731.689075 735.770042
25.320000 725.690237 727.634123 731.958799 731.920671 736.389215 738.599309
25.420000 728.088563 731.344903 736.003274 735.469030 739.388191 740.932959
25.520000 731.776500 735.686066 739.694247 738.964223 741.765988 743.091617
25.620000 735.987397 740.305956 742.708613 742.236782 744.010023 745.494879
25.720000 740.529070 743.662055 745.044398 744.943092 746.384321 748.043828
25.820000 744.355940 745.771253 747.065288 747.090312 748.447580 750.037775
25.920000 746.327245 747.810960 749.107374 749.168178 750.555725 752.237112
26.020000 748.268288 749.845023 751.150899 751.191516 752.611942 754.390784
26.120000 750.380175 751.875874 753.248543 753.317007 754.813178 756.497782
26.220000 752.935197 754.309114 755.678178 755.803105 757.285518 759.389969
26.320000 755.394451 756.832880 758.225447 758.481369 760.245992 762.827707
26.420000 757.518230 758.884851 760.642103 760.881829 762.846159 765.649036
26.520000 759.638106 761.413891 763.126501 763.360831 765.419537 768.093041
26.620000 761.770460 764.061335 765.926233 766.009248 767.996905 770.550941
26.720000 764.772496 766.824291 769.042971 769.335635 771.604952 776.967670
26.820000 768.168931 770.620097 773.648441 774.950334 779.757576 788.084879
26.945000 772.941093 778.449133 787.296399 785.605750 791.411255 793.351175
27.070000 792.011980 793.170693 794.274853 794.309823 795.481325 796.931322
27.170000 794.115941 795.191112 796.352331 796.388511 797.615717 799.071615
27.270000 796.020689 797.097757 798.268983 798.296459 799.550521 800.923872
27.380000 798.018790 799.114149 800.441551 800.443463 801.712420 803.261690
27.480000 799.962862 801.078464 802.566521 802.549013 803.901997 805.730434
27.580000 801.987316 803.273870 804.855320 804.941946 806.427655 808.670358
27.680000 803.957272 805.371568 807.227684 807.485470 809.524452 812.704176
27.780000 805.705090 807.314364 809.440205 810.364420 813.760364 820.631812
27.880000 807.615431 809.109140 811.609701 813.091368 818.446197 824.192589
27.980000 809.271282 810.964070 813.550278 815.732502 823.410759 826.707149
28.080000 811.201386 812.985885 816.315900 818.695373 826.272565 829.242118
28.180000 813.228235 815.343399 822.679279 822.135005 828.561477 831.991565
28.280000 815.133326 818.161983 827.096761 825.821692 831.277520 835.209856
28.380000 817.928043 822.990405 830.483742 829.491258 834.568309 838.402511
28.480000 821.346751 828.546455 833.940551 833.133768 837.730294 841.427555
28.570000 825.230778 832.329496 837.163268 836.525279 840.652535 843.712023
28.670000 831.220749 837.147294 841.105021 840.816758 844.311810 850.742701
28.770000 836.082773 841.765730 845.262897 845.408188 849.688258 854.401735
28.880000 842.096898 846.311445 850.429341 850.545056 854.736024 859.011516
28.980000 846.853283 851.841787 855.697066 855.608629 859.304255 863.142624
29.080000 854.891529 859.063821 861.810474 861.491988 864.084976 865.906419
29.180000 864.997935 866.743403 867.934839 867.870114 869.072697 870.361894
29.280000 868.834346 869.882775 870.884996 870.958914 872.056883 873.591863
29.380000 871.042515 871.953115 873.126972 873.222746 874.449152 876.373223
29.480000 872.751326 873.792010 875.087334 875.229049 876.650642 878.512642
29.580000 874.670826 875.694850 877.087106 877.269632 878.802593 881.007599
29.680000 876.441585 877.704168 879.295193 879.510515 881.339533 883.631928
29.780000 878.226316 879.783215 881.532365 881.807711 884.051351 887.094494
29.880000 880.293022 881.865557 884.018025 884.291329 886.776511 889.727897
29.980000 882.382173 884.180531 886.875939 887.012123 889.910885 892.320884
30.070000 884.679400 886.716407 890.120986 889.937713 892.987371 895.526483
30.170000 887.353963 890.457297 894.302825 894.321751 897.481896 904.255878
30.270000 890.539540 894.630022 898.510017 899.136395 904.267194 909.886242
30.380000 895.983748 899.646614 905.994883 905.705529 911.430315 914.085261
30.480000 900.141324 906.261382 912.751583 911.215597 915.276380 916.530908
30.580000 907.754600 914.662945 916.753574 916.143043 918.064771 919.106954
30.680000 915.611038 917.579376 918.895548 918.715759 919.968027 921.070703
30.780000 918.206598 919.450994 920.555197 920.543069 921.598418 922.675880
30.880000 920.077991 921.176740 922.292456 922.252893 923.262272 924.462168
30.980000 921.789424 922.965200 924.043777 924.055779 925.213911 926.213071
31.070000 923.654451 924.711742 925.826522 925.867528 927.031999 928.150658
31.160000 925.530771 926.526680 927.733968 927.695790 928.834989 929.838562
31.180000 925.961252 927.020402 928.209026 928.171007 929.299836 930.262802
31.240000 927.169157 928.323804 929.480026 929.471201 930.624114 931.707300
31.340000 929.280775 930.486612 931.644690 931.678136 932.872625 934.313190
31.440000 931.381136 932.841298 934.095974 934.144968 935.476239 937.243948
31.540000 933.951916 935.339134 936.787161 936.933070 938.523881 940.811690
31.640000 936.439421 938.010038 939.785462 939.941185 941.877087 944.121015
31.740000 939.467823 941.656307 943.925903 944.325371 947.133831 951.303892
31.860000 943.677009 946.666540 950.620027 950.584863 954.451974 957.088933
31.960000 949.183460 953.871005 957.621021 956.657112 958.802943 959.898362
32.040000 959.526547 960.505189 961.489993 961.611063 962.840301 964.329237
32.140000 962.098147 963.283788 964.338072 964.402975 965.638082 967.013358
32.240000 964.317484 965.661917 967.011208 966.996975 968.291992 969.640047
32.340000 967.152735 968.405769 969.850746 970.025018 971.626517 973.808667
32.440000 969.630069 970.960162 972.923217 973.013497 974.954770 976.932752
32.540000 972.271744 974.020744 976.359703 976.315168 978.316936 980.196096
32.660000 975.832884 978.274894 980.367836 980.179879 981.812141 983.584525
32.740000 979.464072 981.586107 983.109109 983.206743 984.738377 986.839984
32.840000 982.813668 984.362519 985.881169 986.111309 987.689088 990.000207
32.940000 985.708306 987.109646 988.782878 989.028187 990.717259 993.477273
33.040000 988.771975 990.422498 992.429937 992.791092 995.004439 998.959167
33.140000 992.584922 995.202645 998.507952 998.174484 1000.724154 1002.357410
33.240000 999.233118 1003.379498 1004.673727 1004.751235 1006.261401 1009.161246
33.340000 1002.595604 1007.346526 1009.224251 1009.551994 1012.077437 1016.513144
33.460000 1009.031260 1011.003928 1013.706421 1014.410615 1018.515313 1021.176309
33.540000 1012.023520 1014.101272 1017.990120 1018.228215 1022.448380 1025.270444
33.640000 1015.015231 1018.068104 1022.777583 1022.411653 1026.229299 1028.372448
33.740000 1018.182096 1022.796730 1027.150677 1026.359623 1029.279838 1030.868047
33.840000 1021.908174 1028.130350 1030.397810 1030.017955 1032.198519 1033.741636
33.940000 1029.648787 1031.632016 1033.203735 1033.315742 1035.192392 1037.703125
34.040000 1033.436136 1034.773010 1036.484712 1036.852386 1038.914957 1042.086781
34.160000 1036.285253 1038.191484 1040.507953 1040.760122 1043.350289 1046.148620
34.240000 1038.459951 1040.653593 1043.556693 1043.490403 1046.171572 1048.541766
34.340000 1041.429946 1043.970110 1046.857773 1046.796520 1049.481217 1051.518407
34.440000 1044.293163 1047.242678 1050.112971 1049.913178 1052.446880 1054.374100
34.540000 1047.599526 1050.329763 1053.002438 1052.786843 1055.119609 1057.007134
34.640000 1051.335061 1054.246924 1056.326638 1056.235877 1058.252537 1060.382480
34.740000 1057.202690 1059.016648 1061.111826 1061.200828 1063.286386 1066.174250
34.820000 1062.163539 1064.956462 1067.631147 1067.707849 1070.433805 1074.276066
34.920000 1067.426400 1071.120508 1074.456004 1074.434321 1077.834057 1081.419529
35.020000 1075.366393 1078.555569 1081.852682 1081.700594 1084.805187 1087.033956
35.120000 1080.854055 1083.583970 1086.302172 1086.014664 1088.352253 1090.330266
35.220000 1085.448482 1087.690277 1089.750387 1089.620383 1091.472570 1093.142011
35.320000 1089.015265 1091.080691 1092.677598 1092.609181 1094.237292 1095.712278
35.420000 1091.796232 1093.833717 1095.246874 1095.219469 1096.683430 1098.108270
35.520000 1094.514129 1096.340501 1097.770991 1097.698210 1099.096408 1100.668226
35.620000 1097.583464 1099.011976 1100.235832 1100.252933 1101.510558 1103.055222
35.720000 1100.374452 1101.899590 1103.145022 1103.166986 1104.381348 1105.964944
35.820000 1104.623865 1105.967644 1107.531891 1107.557261 1109.083775 1110.983103
35.920000 1107.732292 1110.129766 1112.261097 1112.230911 1114.242293 1116.672427
36.020000 1112.922202 1114.989155 1117.376629 1117.470328 1119.836937 1123.068038
36.120000 1116.712747 1119.308638 1121.930780 1122.103918 1124.835001 1129.113612
36.220000 1119.772373 1123.030581 1126.113643 1126.276418 1129.599086 1134.530504
36.320000 1123.281135 1126.848195 1130.017036 1130.174568 1133.318846 1138.756425
36.420000 1127.659018 1130.834263 1133.703417 1134.310553 1138.299509 1142.674907
36.520000 1131.727814 1134.582431 1138.180526 1138.629779 1143.068236 1146.728120
36.620000 1135.129668 1138.384931 1143.197393 1143.097754 1147.566788 1151.360024
36.720000 1138.685709 1142.813774 1147.687699 1147.380518 1151.337791 1155.218777
36.820000 1142.723522 1146.994128 1151.327041 1151.323662 1155.417837 1160.215485
36.920000 1147.271802 1151.690060 1155.791454 1156.143152 1161.138970 1165.647025
37.020000 1151.325782 1155.153429 1159.348922 1159.931106 1165.397004 1169.718291
37.120000 1154.744789 1158.449708 1163.011135 1163.481259 1169.123781 1172.904212
37.220000 1157.328679 1161.567904 1166.676525 1166.877161 1172.371066 1175.916009
37.320000 1160.657583 1164.914947 1170.594980 1170.258377 1175.603655 1178.602768
37.420000 1164.162585 1168.070929 1174.337001 1173.592244 1178.570208 1181.242631
37.520000 1168.074470 1171.659173 1178.070857 1177.167409 1181.712618 1183.826431
37.620000 1171.532287 1175.776026 1181.431387 1180.567656 1184.469669 1186.362221
37.720000 1174.596555 1179.736186 1185.011680 1183.825677 1187.192045 1188.663327
37.820000 1178.134943 1183.525563 1188.851230 1187.503350 1190.279101 1191.409702
37.920000 1181.984631 1187.509478 1192.830775 1192.439138 1195.696125 1202.578830
38.020000 1185.930023 1190.037792 1195.934899 1196.456368 1201.337118 1210.954872
38.120000 1194.584807 1197.303017 1200.873561 1201.427375 1204.719015 1213.879873
38.220000 1199.903922 1202.241629 1205.616065 1206.080915 1209.124876 1216.195706
38.320000 1204.217855 1206.902549 1209.275215 1210.197127 1214.785528 1218.665541
38.420000 1208.208236 1210.409094 1213.772437 1214.107843 1218.155930 1220.821256
38.520000 1211.242975 1214.196716 1218.214456 1217.857151 1221.205685 1223.417525
38.620000 1214.064728 1218.225380 1221.852143 1221.416460 1224.339151 1226.587628
38.720000 1218.123747 1221.925135 1224.871499 1224.728117 1227.618641 1230.457821
38.820000 1221.323616 1224.295667 1227.202586 1227.320734 1230.597320 1233.817974
38.920000 1224.651088 1227.216596 1229.918162 1230.212411 1233.617875 1236.777769
39.020000 1228.210210 1230.177390 1233.153941 1233.323872 1236.530109 1239.340470
39.120000 1231.197090 1233.742524 1236.818578 1236.688489 1239.554963 1241.631216
39.220000 1234.925399 1238.334275 1241.034334 1240.641925 1242.816879 1244.256659
39.320000 1244.052113 1245.393930 1246.614645 1246.718510 1248.050630 1250.240104
39.420000 1246.839704 1248.022932 1249.368198 1249.527624 1251.030082 1253.075863
39.520000 1249.014350 1250.347675 1251.764417 1251.898040 1253.476367 1255.348901
39.620000 1251.115418 1252.518903 1254.053802 1254.214566 1255.865458 1258.018817
39.720000 1253.653074 1255.132597 1256.673838 1256.826473 1258.508696 1261.129047
39.820000 1256.012934 1257.572058 1259.239730 1259.340856 1261.032345 1263.648054
39.920000 1258.189416 1259.970383 1261.735123 1261.882541 1263.772746 1266.606772
40.020000 1260.770839 1262.519513 1264.497550 1264.756413 1267.096893 1269.853756
40.120000 1264.264515 1266.262041 1268.789509 1269.065437 1271.946862 1275.233228
40.220000 1266.838507 1269.584337 1272.834355 1272.815076 1275.958770 1278.575991
40.320000 1270.107065 1272.966333 1276.367388 1276.304133 1279.606339 1281.675478
40.420000 1272.995415 1276.281963 1280.096541 1279.778188 1282.944434 1285.559306
40.520000 1276.181761 1280.230040 1283.667234 1283.579630 1286.451748 1292.368129
40.620000 1279.644398 1284.873497 1288.563307 1288.862285 1293.377218 1297.179916
40.720000 1282.185020 1287.873548 1294.690826 1293.705297 1298.162479 1302.658418
40.820000 1287.421301 1293.775261 1298.438822 1297.742639 1301.249882 1305.202413
40.920000 1295.180358 1299.048987 1302.296484 1302.056130 1305.133553 1307.843086
41.020000 1300.750733 1303.712020 1306.113134 1306.235597 1308.790400 1311.828042
41.120000 1304.687374 1307.237102 1309.613919 1309.747734 1312.453184 1314.856909
41.220000 1307.870509 1309.956604 1312.559517 1312.670458 1315.474736 1317.631009
41.320000 1310.400493 1312.703830 1315.558053 1315.487834 1318.268140 1320.646541
41.370000 1311.563569 1314.301915 1317.159443 1317.081728 1319.745201 1322.243761
41.420000 1313.961952 1316.298978 1318.956813 1318.952113 1321.503444 1324.275625
41.470000 1316.068038 1318.593368 1321.261390 1321.246160 1323.769992 1326.560310
41.570000 1319.737698 1322.069199 1324.428164 1324.477146 1326.815439 1329.804865
41.670000 1323.208162 1325.505836 1327.825655 1327.866489 1330.277931 1332.855670
41.770000 1326.249501 1328.245792 1330.640970 1330.691262 1333.138348 1335.153800
41.870000 1328.760750 1330.580124 1333.295781 1333.173823 1335.691237 1337.549647
41.970000 1331.099834 1333.182226 1335.758179 1335.635069 1337.937646 1339.608114
42.070000 1333.758412 1335.954471 1338.293752 1338.135995 1340.208516 1341.884373
42.170000 1337.156222 1339.248935 1341.012034 1340.994630 1342.833427 1344.508815
42.270000 1341.172265 1343.022048 1344.683528 1344.936085 1347.001135 1349.649972
42.370000 1343.879197 1345.563761 1347.235486 1347.542831 1349.617612 1352.676072
42.470000 1346.257488 1347.925840 1349.784566 1350.045376 1352.203879 1354.962263
42.570000 1348.569868 1350.212536 1352.291548 1352.490899 1354.818625 1357.316098
42.680000 1351.081051 1352.952516 1355.341529 1355.297299 1357.510849 1359.685476
42.770000 1353.660966 1356.050082 1358.212187 1358.136091 1360.270168 1362.431238
42.870000 1359.435285 1361.519696 1363.739948 1363.852733 1366.265855 1368.618274
42.970000 1364.820878 1368.135701 1371.215291 1371.063555 1374.122113 1376.181539
43.070000 1367.667436 1371.882001 1375.559223 1374.912993 1377.594278 1378.828956
43.170000 1370.076460 1374.973937 1378.983218 1378.005655 1380.275346 1381.641689
43.270000 1372.219906 1378.315674 1381.283546 1380.461663 1382.584603 1384.307213
43.350000 1375.196201 1379.925559 1382.908564 1382.289957 1384.350973 1386.136272
43.470000 1380.332049 1382.654577 1385.362645 1385.068951 1387.036109 1389.318121
43.570000 1382.976912 1385.080430 1387.438906 1387.402907 1389.464913 1392.255477
43.670000 1386.159964 1388.191954 1390.311781 1390.476780 1392.717734 1396.034107
43.770000 1389.927016 1391.766973 1393.986125 1394.277222 1397.087657 1399.292456
43.870000 1392.681192 1395.213033 1397.908893 1397.811927 1400.468144 1402.022510
43.970000 1396.368146 1399.452990 1401.862469 1401.472904 1403.370415 1404.731513
44.070000 1402.593350 1404.202424 1405.523946 1405.687906 1407.138067 1409.674705
44.180000 1406.713903 1408.218142 1410.182724 1410.580243 1413.105805 1416.529222
44.270000 1409.429767 1411.538774 1414.230177 1414.442342 1417.388107 1420.356878
44.370000 1412.434413 1416.274703 1418.679603 1418.951341 1422.068491 1424.795412
44.470000 1416.924955 1419.710833 1422.243968 1422.330336 1425.016877 1428.337851
44.570000 1421.154258 1423.342822 1425.538961 1425.622983 1427.748936 1431.281910
44.670000 1425.130808 1427.027411 1429.061795 1429.484766 1431.824264 1435.626261
44.770000 1427.679068 1429.480221 1432.131014 1432.613221 1435.950095 1439.662701
44.880000 1430.021673 1432.177297 1435.565850 1435.904792 1439.855336 1443.134591
44.970000 1432.476898 1434.774971 1438.762567 1438.835975 1442.815523 1445.574317
45.070000 1435.057766 1438.058038 1442.158482 1441.895741 1445.604264 1447.596865
45.170000 1438.033951 1441.453103 1445.323528 1444.856035 1447.977554 1449.635661
45.270000 1441.745464 1445.667529 1448.655689 1448.080637 1450.343383 1451.547363
45.370000 1446.411276 1449.952221 1451.852955 1451.549522 1453.233645 1454.563510
45.470000 1452.817000 1453.828011 1454.757021 1454.822902 1455.848581 1457.067827
45.570000 1455.232829 1456.134761 1457.104822 1457.162847 1458.237183 1459.268191
45.660000 1456.933192 1458.126934 1459.111899 1459.156235 1460.271211 1461.283231
45.680000 1457.554982 1458.598466 1459.607550 1459.655870 1460.771632 1461.865798
45.760000 1459.268480 1460.294480 1461.323113 1461.348187 1462.322604 1463.580226
45.860000 1461.615006 1462.548163 1463.552135 1463.612353 1464.648372 1465.844803
45.960000 1463.584661 1464.573813 1465.693500 1465.761528 1466.922473 1468.471807
46.060000 1465.703354 1466.656869 1467.873496 1468.115737 1469.463416 1472.233506
46.160000 1467.686866 1468.823608 1470.367930 1471.025586 1472.938182 1479.629620
46.260000 1470.093911 1471.707334 1474.342814 1475.213899 1479.097241 1484.248028
46.360000 1472.717407 1474.957495 1478.308123 1479.035585 1483.840096 1486.918600
46.460000 1475.332626 1478.342070 1482.674932 1482.656026 1487.095411 1489.333412
46.560000 1478.566744 1482.444655 1487.018678 1486.293508 1489.680611 1491.106762
46.660000 1482.837269 1488.446858 1490.827774 1490.194676 1492.119095 1493.354322
46.760000 1492.061935 1493.129950 1494.372029 1494.695728 1496.276597 1499.296592
46.860000 1494.469733 1495.456983 1497.274807 1497.698582 1500.061798 1502.626998
46.960000 1496.156175 1497.720211 1500.142145 1500.386238 1503.223553 1505.515462
47.060000 1498.365333 1500.140354 1502.949163 1503.134084 1506.179279 1509.209461
47.160000 1500.451232 1502.654783 1505.334387 1505.502093 1508.474591 1511.565062
47.260000 1503.390756 1505.502199 1508.204620 1508.335980 1510.938490 1514.260515
47.360000 1507.241888 1509.534644 1511.983402 1512.199998 1515.080967 1517.935317
47.460000 1510.129767 1512.551946 1515.011233 1515.222075 1518.046842 1521.149547
47.560000 1512.821408 1515.061946 1517.933949 1518.057178 1521.072633 1523.870593
47.660000 1515.470463 1517.931708 1521.038795 1520.969042 1524.030980 1526.542321
47.760000 1518.501791 1521.346267 1524.447948 1524.225218 1527.008003 1529.242840
47.860000 1523.139734 1526.383856 1528.702432 1528.565721 1530.812453 1533.452424
47.960000 1528.374029 1530.387109 1532.323146 1532.427788 1534.617195 1536.844298
48.060000 1531.430202 1533.189970 1535.265712 1535.351330 1537.581384 1539.598000
48.160000 1533.895035 1535.814128 1538.057868 1538.062624 1540.390492 1542.404585
48.260000 1536.374776 1538.778549 1541.013953 1541.010358 1543.169782 1546.020445
48.360000 1540.183074 1542.329322 1544.763834 1544.871664 1547.450391 1550.305010
48.460000 1542.665881 1544.943863 1547.474827 1547.608479 1550.512561 1553.022874
48.560000 1544.796396 1547.056284 1549.964701 1550.009895 1553.122770 1555.458260
48.660000 1546.922316 1549.173244 1552.276448 1552.260692 1555.413614 1557.373155
