depth(m) lower_95(kyr) lower_68(kyr) median(kyr) mean(kyr) upper_68(kyr) upper_95(kyr)
0.030000 0.095581 0.570381 1.459124 1.496499 2.371719 3.411493
0.080000 0.966483 1.807330 3.037956 3.308875 4.938628 6.727765
0.130000 1.988949 3.262590 5.143051 5.109475 6.983193 7.978108
0.180000 3.363395 5.124224 6.781003 6.583989 7.950342 8.791609
0.230000 5.664823 7.087897 8.087473 7.967276 8.857524 9.581791
0.280000 7.220360 8.200147 9.005915 8.940428 9.670835 10.266405
0.330000 8.339520 9.033635 9.743482 9.690128 10.321767 10.878312
0.380000 9.019742 9.710718 10.336046 10.304054 10.898729 11.474697
0.430000 9.595345 10.282011 10.900022 10.862651 11.449302 11.943257
0.480000 10.209410 10.867703 11.471519 11.444428 12.029007 12.528286
0.530000 10.763616 11.419347 12.036890 12.014386 12.582679 13.141455
0.580000 11.310545 11.960596 12.551822 12.552410 13.152796 13.706522
0.630000 11.879871 12.574096 13.115527 13.133012 13.742908 14.257168
0.680000 12.401255 13.110565 13.700794 13.702136 14.344911 14.846545
0.730000 12.984378 13.663197 14.299665 14.300890 14.958050 15.606283
0.780000 13.709408 14.416582 15.074029 15.071555 15.735177 16.396346
0.830000 14.859639 15.527987 16.240331 16.262635 17.010669 17.692697
0.880000 15.912258 16.501762 17.199652 17.222085 17.928166 18.639206
0.930000 16.667500 17.296448 18.011524 18.012060 18.712287 19.452995
0.980000 17.297670 17.951190 18.664742 18.678292 19.373231 20.154298
1.030000 17.888285 18.557490 19.335053 19.329910 20.050583 20.949178
1.080000 18.444483 19.163016 19.986553 19.968196 20.767429 21.571092
1.130000 19.029338 19.780051 20.614648 20.606132 21.405686 22.132354
1.180000 19.655161 20.446034 21.243866 21.235974 22.041186 22.810984
1.230000 20.313917 21.072958 21.880713 21.876626 22.659572 23.471823
1.280000 21.025088 21.731293 22.560630 22.565076 23.364861 24.243736
1.330000 21.618572 22.431026 23.233995 23.273429 24.104587 25.183374
1.380000 22.224645 23.083907 23.902188 23.981859 24.852924 26.107047
1.430000 23.175443 23.814280 24.676089 24.781172 25.748656 27.012684
1.480000 23.829779 24.535363 25.495697 25.612867 26.721948 27.965828
1.530000 24.497241 25.244848 26.361062 26.414313 27.584711 28.663079
1.630000 25.664470 26.544862 27.863483 27.841791 29.085018 29.887783
1.680000 26.260494 27.305197 28.674935 28.589405 29.804736 30.508170
1.730000 26.884251 28.001136 29.444320 29.302175 30.451310 31.195625
1.780000 27.737151 28.680289 30.190644 29.986416 31.060431 31.728360
1.830000 28.446102 29.545699 30.815741 30.647651 31.651146 32.330950
1.880000 29.148973 30.257746 31.430817 31.278322 32.175863 32.830705
1.930000 29.866898 31.025201 32.055468 31.920961 32.780332 33.353261
1.980000 30.618759 31.774294 32.685539 32.585784 33.369602 33.894479
2.030000 31.495531 32.505471 33.354323 33.238507 33.955927 34.446152
2.080000 32.266967 33.176005 33.975169 33.876745 34.556755 35.019793
2.130000 33.035619 33.849410 34.573474 34.514954 35.168662 35.619660
2.180000 33.660408 34.448093 35.186333 35.114710 35.766138 36.184619
2.230000 34.341275 35.110645 35.797908 35.727981 36.341844 36.747722
2.280000 35.084334 35.801158 36.398370 36.364547 36.975476 37.406693
2.330000 35.704547 36.434125 37.011450 36.970666 37.497246 37.988833
2.380000 36.374214 37.084413 37.587362 37.574546 38.067588 38.538446
2.430000 37.019473 37.662718 38.166213 38.144028 38.635495 39.090704
2.480000 37.631569 38.236003 38.724132 38.713407 39.224471 39.713420
2.530000 38.143778 38.785791 39.314861 39.304953 39.825903 40.380771
2.580000 38.753446 39.345687 39.914670 39.894152 40.429064 40.926308
2.630000 39.330312 39.901975 40.515444 40.486623 41.032324 41.616390
2.680000 39.943976 40.492571 41.082992 41.068662 41.621948 42.147025
2.730000 40.525619 41.063176 41.687044 41.661353 42.203689 42.733414
2.780000 41.064854 41.681758 42.286156 42.256426 42.798142 43.317638
2.830000 41.719995 42.334838 42.875810 42.860847 43.386346 43.878104
2.880000 42.401668 42.962069 43.505502 43.477682 43.984593 44.492132
2.930000 43.097514 43.676367 44.105290 44.102794 44.565849 44.999592
2.980000 43.826545 44.304439 44.751620 44.741050 45.156053 45.579049
3.030000 44.493591 44.888397 45.320619 45.315241 45.714551 46.097680
3.080000 45.025019 45.453612 45.874656 45.859802 46.265242 46.647715
3.130000 45.541955 45.981426 46.414588 46.405403 46.807794 47.268037
3.180000 46.057428 46.505185 46.950396 46.939547 47.334014 47.779978
3.230000 46.618153 47.054075 47.468521 47.457969 47.866968 48.244957
3.280000 47.187102 47.564228 47.975813 47.966739 48.361043 48.753263
3.330000 47.658419 48.057026 48.477956 48.467982 48.863911 49.235618
3.380000 48.166390 48.532973 48.990050 48.957701 49.346421 49.724226
3.430000 48.699923 49.071026 49.480458 49.463635 49.834268 50.249335
3.480000 49.223484 49.589046 49.978095 49.974024 50.350270 50.773756
3.530000 49.713431 50.113222 50.502121 50.502469 50.902254 51.375726
3.580000 50.271714 50.669522 51.049471 51.063662 51.464191 51.876835
3.630000 50.819483 51.228767 51.587035 51.608048 51.998768 52.479398
3.680000 51.367742 51.762915 52.135932 52.152990 52.542446 53.044149
3.730000 51.822867 52.288437 52.662447 52.691549 53.097299 53.691952
3.780000 52.391246 52.799286 53.207878 53.235748 53.646438 54.225124
3.830000 52.941591 53.366819 53.783426 53.811429 54.248050 54.836234
3.880000 53.490014 53.929103 54.352815 54.388632 54.877922 55.422835
3.930000 54.101216 54.487640 54.964139 54.979690 55.481232 56.014155
3.980000 54.632796 54.994958 55.502466 55.507889 55.991978 56.589916
4.030000 55.069816 55.519717 56.021225 56.022063 56.527807 57.100054
4.080000 55.582885 56.032818 56.519942 56.545696 57.067936 57.650125
4.130000 56.143718 56.552595 57.036433 57.070261 57.589536 58.118609
4.180000 56.718795 57.122505 57.603177 57.634312 58.166023 58.733837
4.230000 57.268691 57.733051 58.239647 58.277484 58.840815 59.445521
4.280000 58.050415 58.506368 59.126722 59.159229 59.751029 60.580621
4.330000 58.796351 59.409748 60.110646 60.172837 60.872454 62.008019
4.380000 59.588607 60.181521 60.948993 61.016576 61.826129 62.827361
4.430000 60.260412 60.940994 61.735474 61.830982 62.746749 63.836770
4.480000 60.882582 61.655977 62.511363 62.590693 63.550275 64.663697
4.530000 61.491958 62.326871 63.254542 63.307650 64.300890 65.497246
4.580000 62.105008 63.033763 64.004245 64.053453 65.072855 66.142416
4.630000 62.903426 63.750784 64.778207 64.810180 65.854994 66.970643
4.680000 63.643122 64.534114 65.557235 65.601318 66.653784 67.841208
4.730000 64.459454 65.425870 66.428309 66.499813 67.543322 68.978942
4.780000 65.506010 66.453189 67.484638 67.626181 68.789029 70.545400
4.830000 66.829572 67.900313 69.237620 69.412107 71.064323 72.700577
4.880000 69.318370 70.729489 72.155752 72.181976 73.626647 75.183631
4.930000 71.045461 72.319727 73.721331 73.761822 75.227107 76.399342
4.980000 72.296845 73.743006 75.120214 75.170052 76.498697 77.973040
5.030000 73.686522 74.958915 76.311717 76.332428 77.603539 79.385135
5.080000 74.832775 75.998534 77.280394 77.342025 78.613139 80.680636
5.130000 75.814484 76.871289 78.097570 78.233305 79.496463 81.756197
5.180000 76.496583 77.626970 78.833083 79.010591 80.332257 82.633728
5.230000 77.294739 78.336486 79.623724 79.836912 81.206690 83.993510
5.280000 78.166657 79.111795 80.420312 80.647666 82.159485 84.873259
5.330000 78.896177 79.947934 81.178622 81.517165 83.174442 85.693104
5.380000 79.717014 80.791280 82.223238 82.479252 84.214098 86.705901
5.430000 80.521707 81.684397 83.315745 83.540396 85.301744 87.901152
5.480000 81.666298 82.896756 84.513934 84.739301 86.500979 89.277084
5.530000 82.987489 84.444385 85.980866 86.278705 88.233564 90.530644
5.580000 85.493197 86.732860 88.298228 88.383728 89.971273 92.037945
5.630000 86.831741 88.309291 90.199086 90.160872 92.012836 93.476569
5.680000 88.095662 90.161163 91.999674 91.879962 93.620248 94.855904
5.730000 89.977159 91.978244 93.513297 93.390077 94.745145 96.132990
5.780000 91.979772 93.491711 94.783627 94.687941 95.801835 97.212241
5.830000 93.598628 94.823442 95.943201 95.976570 97.101418 98.609384
5.880000 94.594232 95.823553 96.845553 96.946314 98.144631 99.554273
5.930000 95.563584 96.630454 97.663936 97.833107 99.163580 100.508572
5.980000 96.293939 97.379755 98.518259 98.660928 100.095787 101.344860
6.030000 96.955050 98.067548 99.353673 99.449689 100.989677 102.220994
6.080000 97.708129 98.783327 100.148256 100.243785 101.852468 103.184103
6.130000 98.419657 99.573314 100.950193 100.994943 102.534950 103.879893
6.180000 99.093588 100.315097 101.780170 101.779125 103.234772 104.562917
6.230000 100.044557 101.205076 102.637051 102.663521 104.108485 105.649354
6.280000 100.832118 102.121987 103.520124 103.606157 105.071869 106.631092
6.330000 101.777538 102.985606 104.524156 104.586678 105.989748 108.088040
6.380000 102.633192 104.012460 105.606762 105.637444 107.272678 108.993706
6.430000 103.544382 105.019451 106.607618 106.696028 108.345497 110.438039
6.480000 104.706708 106.208185 107.879965 107.912351 109.625006 111.541902
6.530000 105.551239 107.433547 109.066112 109.067533 110.723811 112.341054
6.580000 106.836317 108.600106 110.291017 110.211574 111.841524 113.192715
6.630000 108.245864 109.829585 111.537682 111.382207 112.873782 113.977613
6.680000 109.598677 111.339005 112.794148 112.669525 113.996980 114.887039
6.730000 111.867494 113.190964 114.268636 114.168609 115.187461 116.157394
6.780000 113.351277 114.302881 115.149050 115.162100 115.997628 116.898288
6.830000 114.163129 115.069098 115.892466 115.885395 116.726841 117.604573
6.880000 114.847588 115.688571 116.479833 116.488723 117.339058 118.220126
6.930000 115.420035 116.281925 117.044656 117.086159 117.897597 118.781874
6.980000 116.037500 116.877819 117.668323 117.719102 118.476687 119.630282
7.030000 116.629417 117.513316 118.311783 118.392380 119.227721 120.620297
7.080000 117.352895 118.188842 119.042149 119.247086 120.141937 122.990700
7.130000 118.099413 118.864081 119.870727 120.291827 121.584301 125.267042
7.180000 118.825784 119.765052 121.027386 121.677401 124.047232 126.442227
7.230000 119.841531 121.345071 123.395189 123.504850 125.946996 127.298996
7.280000 120.641502 123.468370 125.958376 125.483141 127.264885 128.158758
7.330000 122.056285 125.518820 127.065567 126.725379 128.075034 128.914209
7.380000 124.368638 126.649730 127.924598 127.691672 128.755753 129.490168
7.430000 125.865226 127.613725 128.667275 128.460152 129.412270 130.042110
7.480000 127.131528 128.361942 129.281419 129.156691 130.002599 130.628294
7.530000 128.326427 129.310862 130.003947 129.970552 130.700908 131.300941
7.580000 129.377006 130.106254 130.755892 130.764875 131.426223 132.096956
7.630000 130.236993 130.857190 131.488551 131.506962 132.181044 132.961632
7.680000 131.022807 131.678661 132.392890 132.407623 133.080892 133.907314
7.730000 132.026600 132.701863 133.489413 133.544315 134.298799 135.652628
7.780000 133.286861 134.105174 135.251613 135.412680 136.643730 138.688683
7.830000 134.459164 135.709657 137.129246 137.320529 139.090839 140.712597
7.880000 135.556723 137.098919 138.913183 138.925930 140.757745 142.440811
7.930000 136.738221 138.578248 140.687203 140.545974 142.343500 144.131811
7.980000 138.403836 140.230297 142.175499 142.044409 143.711250 145.438768
8.030000 139.577106 141.784002 143.447634 143.393738 145.025800 146.456039
8.080000 141.076156 143.057304 144.603860 144.562056 146.219638 147.570110
8.130000 142.412905 144.155910 145.672242 145.651274 147.185779 148.452350
8.180000 143.552401 145.253302 146.757317 146.698463 148.148038 149.820665
8.230000 144.707571 146.281484 147.783441 147.713991 149.134197 150.572247
8.280000 145.639945 147.323173 148.778261 148.735251 150.160118 151.454843
8.330000 146.952109 148.364960 149.705681 149.689563 150.997702 152.157135
8.380000 147.919028 149.319338 150.616176 150.594911 151.920824 152.906701
8.430000 148.804017 150.244184 151.529516 151.447558 152.677081 153.593940
8.480000 149.988243 151.107507 152.330997 152.269571 153.423972 154.362808
8.530000 150.713838 151.948500 153.118573 153.062156 154.160046 155.119761
8.580000 151.577170 152.753651 153.895243 153.854155 154.893477 156.112914
8.630000 152.440095 153.563209 154.717538 154.692787 155.701666 157.232775
8.680000 153.304336 154.365012 155.578821 155.561324 156.573700 158.173981
8.730000 154.198818 155.346324 156.439054 156.508603 157.680829 159.072856
8.780000 155.424197 156.360455 157.442239 157.509752 158.673993 159.906392
8.830000 156.286084 157.392556 158.473530 158.547038 159.741231 161.218425
8.880000 157.384737 158.405734 159.659153 159.743576 160.999586 162.717026
8.930000 158.400967 159.736721 161.038575 161.082216 162.444223 164.188341
8.980000 159.751049 161.141728 162.382248 162.488131 163.921955 165.601855
9.030000 160.930194 162.165095 163.603561 163.668190 165.208435 166.669968
9.080000 161.804018 163.097163 164.682092 164.715533 166.333279 167.746196
9.130000 162.763093 164.109201 165.635702 165.696223 167.314666 168.697149
9.180000 163.778689 165.129823 166.693318 166.676230 168.241214 169.635491
9.230000 164.642749 166.131109 167.769677 167.677288 169.131004 170.558502
9.280000 165.539133 167.151372 168.755337 168.682265 170.087078 171.616337
9.330000 166.628306 168.285852 169.705639 169.747497 171.253565 172.866751
9.380000 167.776574 169.498534 170.906274 170.955802 172.559827 174.613173
9.430000 168.980252 170.645011 172.252289 172.394654 174.333593 176.301800
9.480000 169.924857 171.676832 173.477409 173.685967 175.902950 177.994883
9.530000 171.154763 172.754701 174.854098 174.948952 177.135456 179.209686
9.580000 172.265131 173.970908 176.130874 176.214259 178.378879 180.618394
9.630000 173.473957 175.150616 177.545806 177.515318 179.693784 181.723737
9.680000 174.609690 176.724400 178.949269 178.882204 181.049020 183.099840
9.730000 175.852654 178.049395 180.225797 180.199636 182.312991 184.342699
9.780000 177.289101 179.307501 181.496162 181.419779 183.439139 185.393725
9.830000 178.476525 180.606789 182.724238 182.635919 184.671217 186.231519
9.880000 179.765572 181.875705 183.983964 183.852854 185.766450 187.191143
9.930000 181.187918 183.263244 185.229367 185.056454 186.868807 188.031542
9.980000 182.791829 184.736181 186.556149 186.347608 187.942686 188.955513
10.030000 184.336446 186.199720 187.805347 187.630074 189.025601 189.861805
10.080000 186.588395 187.922496 189.085928 188.973931 189.994801 190.916424
10.130000 188.284095 189.186821 190.168052 190.111305 191.011072 191.868172
