depth(m) lower_95(kyr) lower_68(kyr) median(kyr) mean(kyr) upper_68(kyr) upper_95(kyr)
0.005000 0.053042 0.305485 0.877646 0.939045 1.563838 2.284659
0.015000 0.281916 0.623001 1.215004 1.254910 1.897580 2.596520
0.025000 0.497483 0.924844 1.533129 1.569403 2.205368 2.918419
0.045000 0.943790 1.488821 2.147583 2.170293 2.804759 3.531951
0.055000 1.217641 1.766927 2.472482 2.478805 3.148230 3.855077
0.065000 1.433097 2.070831 2.780060 2.783285 3.466450 4.134282
0.075000 1.778760 2.444952 3.134637 3.113419 3.787824 4.440940
0.085000 2.094799 2.766130 3.435457 3.426429 4.093443 4.759415
0.095000 2.355906 3.098578 3.752564 3.736771 4.394678 5.052584
0.105000 2.604897 3.419292 4.054946 4.046370 4.720715 5.336453
0.115000 2.849404 3.700355 4.357981 4.348137 4.989865 5.583472
0.125000 3.161590 4.047538 4.663368 4.654496 5.288386 5.896214
0.135000 3.510011 4.373130 4.984596 4.964861 5.608965 6.162464
0.145000 3.904071 4.686956 5.306185 5.286804 5.918481 6.466151
0.155000 4.299456 4.993647 5.642419 5.607291 6.234180 6.701287
0.165000 4.592603 5.317800 5.932720 5.917683 6.546257 7.023343
0.175000 4.982420 5.623989 6.255179 6.230335 6.829214 7.323514
0.185000 5.352810 5.948166 6.561843 6.534755 7.116568 7.606988
0.195000 5.648453 6.259655 6.874955 6.838641 7.416653 7.867267
0.205000 6.001319 6.587923 7.211369 7.173707 7.746053 8.225704
0.215000 6.401111 6.936725 7.551131 7.514532 8.049119 8.579623
0.225000 6.771512 7.308703 7.903385 7.873686 8.410962 8.928793
0.235000 7.121104 7.688120 8.243757 8.229052 8.759010 9.204313
0.245000 7.524852 8.067570 8.593436 8.588344 9.128224 9.558230
0.255000 7.915837 8.438408 8.974770 8.958206 9.494865 9.919017
0.265000 8.328328 8.820491 9.349084 9.333851 9.846359 10.284174
0.275000 8.644763 9.191865 9.722350 9.703976 10.202229 10.682801
0.295000 9.430759 9.905790 10.415562 10.412539 10.911188 11.373808
0.305000 9.810482 10.242082 10.742386 10.744115 11.263432 11.691987
0.315000 10.079984 10.565007 11.036285 11.049139 11.590772 11.975646
0.325000 10.428194 10.863406 11.350220 11.361329 11.875163 12.258216
0.335000 10.753397 11.234054 11.672577 11.692556 12.177432 12.603829
0.345000 11.100067 11.558191 12.036823 12.044049 12.520869 12.977316
0.355000 11.459949 11.927771 12.402753 12.403004 12.900996 13.415087
0.365000 11.815034 12.281966 12.751571 12.758075 13.244979 13.747494
0.375000 12.206454 12.639198 13.160199 13.143864 13.619249 14.125918
0.385000 12.534754 13.020825 13.534586 13.521068 14.032604 14.481594
0.395000 12.941768 13.425154 13.906979 13.922440 14.419511 14.921391
0.405000 13.331737 13.751546 14.302251 14.287129 14.801984 15.288366
0.415000 13.680520 14.143054 14.655733 14.654269 15.162449 15.650063
0.425000 13.993724 14.523971 15.013924 15.024310 15.540018 16.054357
0.435000 14.416817 14.983481 15.474339 15.483606 16.006530 16.425380
0.445000 14.886700 15.360978 15.892463 15.876839 16.355853 16.846184
0.455000 15.357042 15.827250 16.325833 16.340160 16.825315 17.465514
0.465000 15.785381 16.295387 16.776936 16.812860 17.340590 17.925469
0.475000 16.281570 16.685133 17.191236 17.237487 17.830834 18.422998
0.485000 16.599509 16.986418 17.551592 17.599765 18.203516 18.813151
0.495000 16.902494 17.272349 17.899680 17.931674 18.586302 19.167090
0.505000 17.149082 17.553650 18.238244 18.233599 18.895516 19.459653
0.515000 17.373738 17.811784 18.553051 18.531403 19.197165 19.812202
0.525000 17.657118 18.063183 18.868888 18.824574 19.496950 20.083370
0.535000 17.892857 18.334434 19.156116 19.106799 19.778638 20.359637
0.545000 18.109021 18.577873 19.469294 19.384874 20.066036 20.627891
0.555000 18.329798 18.868582 19.767436 19.665390 20.330846 20.933468
0.565000 18.560864 19.118075 20.084392 19.954746 20.610774 21.264684
0.575000 18.803741 19.446244 20.363172 20.248250 20.882146 21.540523
0.585000 19.054181 19.799797 20.656050 20.553616 21.188228 21.819660
0.595000 19.365415 20.134793 20.922063 20.844846 21.475433 22.091360
0.605000 19.658677 20.438462 21.196970 21.141721 21.791503 22.371952
0.615000 19.996662 20.786133 21.483653 21.437152 22.109699 22.642807
0.625000 20.298022 21.115633 21.748822 21.731025 22.394455 22.874247
0.635000 20.629792 21.440844 22.046767 22.038997 22.700898 23.150052
0.645000 21.047555 21.784368 22.350847 22.361894 22.987691 23.475898
0.655000 21.415028 22.087661 22.662064 22.667243 23.258136 23.801833
0.665000 21.679960 22.384938 22.959991 22.965660 23.557976 24.060165
0.675000 21.974417 22.701935 23.266832 23.252250 23.824851 24.394684
0.685000 22.353758 22.988998 23.535031 23.543445 24.095478 24.728582
0.695000 22.666176 23.269947 23.825302 23.834202 24.398702 25.158740
0.705000 23.031424 23.531822 24.073652 24.117904 24.693282 25.519852
0.715000 23.292403 23.798116 24.345763 24.400540 24.991919 25.934340
0.725000 23.531332 24.057339 24.600865 24.676221 25.277580 26.309826
0.735000 23.766609 24.287211 24.837522 24.931931 25.576449 26.630431
0.745000 23.982553 24.510363 25.084136 25.196766 25.977658 26.889330
0.755000 24.188291 24.732951 25.346498 25.467928 26.245332 27.273726
0.765000 24.419002 24.990932 25.617842 25.748917 26.550854 27.545616
0.775000 24.587577 25.257589 25.903818 26.045048 26.971105 27.770296
0.785000 24.819744 25.507610 26.224402 26.353603 27.362238 28.117980
0.795000 25.055255 25.799210 26.563431 26.671788 27.696430 28.461627
0.805000 25.290607 26.078177 26.915847 26.987735 27.994600 28.730242
0.815000 25.614795 26.375427 27.276766 27.311028 28.300491 28.995605
0.825000 25.920732 26.662156 27.620858 27.625031 28.611779 29.240838
0.835000 26.201420 27.010689 27.983061 27.954845 28.865180 29.511329
0.845000 26.535597 27.350501 28.314576 28.282989 29.171462 29.796646
0.855000 26.841859 27.667150 28.688874 28.601961 29.467257 30.034825
0.865000 27.141495 28.075622 29.016132 28.925329 29.730612 30.242299
0.875000 27.410963 28.443103 29.390738 29.253602 30.033982 30.522752
0.885000 27.799385 28.852009 29.711295 29.579068 30.297379 30.764630
0.895000 28.181000 29.179455 30.025388 29.897396 30.541633 31.018174
0.905000 28.557440 29.573140 30.354235 30.233101 30.846627 31.258766
0.915000 28.887918 29.938396 30.673112 30.567305 31.167649 31.642904
0.925000 29.298905 30.312707 30.987100 30.899570 31.446576 32.008010
0.935000 29.730039 30.675296 31.278691 31.226935 31.758375 32.362692
0.945000 30.088141 31.037572 31.574637 31.546413 32.060814 32.780726
0.955000 30.492122 31.385092 31.884091 31.879279 32.407918 33.211468
0.965000 30.866714 31.731015 32.227847 32.252176 32.861090 33.620832
0.975000 31.419434 32.088588 32.640020 32.693317 33.341244 34.119109
0.985000 31.807815 32.455463 33.059020 33.128390 33.874008 34.696809
0.995000 32.233887 32.885201 33.546740 33.609403 34.386020 35.381778
1.005000 32.566484 33.241996 33.987223 34.066319 34.903116 35.926663
1.015000 32.847544 33.596545 34.443108 34.517726 35.430133 36.617133
1.025000 33.174725 33.950261 34.888646 34.969667 35.963510 37.173924
1.035000 33.543306 34.267261 35.390163 35.437695 36.516005 37.906617
1.045000 33.786740 34.623142 35.845308 35.905092 37.143665 38.586152
1.055000 34.181395 35.010883 36.368871 36.379501 37.791992 39.223515
1.065000 34.469580 35.336353 36.814309 36.857901 38.444733 39.723713
1.075000 34.657709 35.750235 37.360540 37.343404 38.990530 40.138320
1.085000 34.985943 36.186760 37.856622 37.831159 39.534532 40.445264
1.095000 35.293890 36.590937 38.432989 38.306307 39.995413 40.839094
1.105000 35.540173 36.995820 38.954422 38.783230 40.433283 41.288285
1.115000 35.822856 37.488084 39.379497 39.230508 40.802449 41.626425
1.125000 36.297128 38.119270 39.833681 39.679342 41.193488 42.019094
1.135000 36.686201 38.646749 40.208135 40.095987 41.543850 42.472139
1.145000 37.088322 39.171220 40.622506 40.521183 41.899520 42.970006
1.155000 37.383998 39.745164 41.006232 40.952882 42.258250 43.306645
1.165000 37.863249 40.210262 41.512013 41.377971 42.612980 43.582178
1.175000 38.407688 40.738755 41.933123 41.786792 42.986236 43.860870
1.185000 38.545346 41.228668 42.342754 42.191777 43.306528 44.080032
1.195000 38.903799 41.719385 42.719599 42.589984 43.669336 44.424810
1.205000 39.182153 42.153328 43.151106 42.985942 43.995969 44.786517
1.215000 39.378710 42.595428 43.532995 43.410714 44.382201 45.139260
1.225000 39.825111 42.962221 43.980158 43.815300 44.763734 45.602628
1.235000 40.099548 43.430299 44.397612 44.240452 45.212920 46.163269
1.245000 40.308931 43.854122 44.840034 44.663910 45.655965 46.519300
1.255000 40.520831 44.283163 45.315618 45.098261 46.122089 46.909410
1.265000 40.753036 44.654995 45.756060 45.508092 46.544834 47.226464
1.275000 41.337995 45.045272 46.183386 45.929038 46.958393 47.636905
1.285000 41.851171 45.593471 46.575607 46.317111 47.267712 47.943362
1.295000 42.566452 46.030146 46.925132 46.691832 47.601360 48.235435
1.305000 42.966701 46.518931 47.216495 47.024276 47.876595 48.530345
1.315000 43.541731 46.873943 47.508713 47.337451 48.164876 48.788184
1.325000 43.995561 47.186024 47.778224 47.648522 48.452949 49.048743
1.335000 44.962836 47.516088 48.049612 47.960410 48.735140 49.279011
1.345000 45.204217 47.804400 48.364716 48.257219 49.013730 49.495749
1.355000 45.874878 48.086423 48.650848 48.553073 49.282189 49.736485
1.365000 46.340251 48.365513 48.961687 48.851739 49.568716 50.036965
1.375000 47.256987 48.690291 49.288567 49.157755 49.828489 50.324592
1.385000 47.484089 49.037963 49.608957 49.493553 50.127763 50.626417
1.395000 48.253075 49.379540 49.960349 49.847698 50.472062 50.980894
1.405000 48.716656 49.732860 50.316210 50.195875 50.835039 51.335615
1.415000 49.204717 50.070307 50.657756 50.559678 51.193134 51.728842
1.425000 49.744341 50.453898 50.993287 50.914859 51.539175 52.083106
1.435000 50.174348 50.802004 51.346945 51.275505 51.928812 52.397720
1.445000 50.485126 51.117841 51.733983 51.636049 52.334395 52.761490
1.455000 50.720979 51.448914 52.113921 51.981709 52.665177 53.072174
1.465000 50.962464 51.771579 52.438139 52.307889 52.974800 53.352235
1.475000 51.228596 52.138735 52.750906 52.627810 53.238471 53.604445
1.485000 51.567674 52.530290 53.095433 52.942440 53.511744 53.841585
1.495000 52.018608 52.888472 53.382234 53.256279 53.780039 54.152285
1.505000 52.414190 53.235251 53.691913 53.573713 54.057940 54.413867
1.515000 52.627979 53.546741 53.958086 53.857107 54.333376 54.692488
1.525000 52.964032 53.826146 54.227406 54.143054 54.594570 55.063304
1.535000 53.404834 54.089527 54.499459 54.418391 54.874698 55.323204
1.545000 53.785019 54.360053 54.763180 54.704649 55.151642 55.706161
1.555000 54.017275 54.625860 55.026405 55.001612 55.463489 56.235941
1.565000 54.227961 54.867474 55.298237 55.312225 55.825320 56.764149
1.575000 54.495065 55.120562 55.592612 55.643045 56.249531 57.102400
1.585000 54.799857 55.396787 55.936265 55.992547 56.665775 57.431962
1.595000 55.119602 55.713282 56.266225 56.349965 57.096219 57.797665
1.605000 55.463667 56.019084 56.672613 56.725694 57.488402 58.192608
1.615000 55.792772 56.352609 57.112770 57.096610 57.795163 58.433440
1.625000 56.131303 56.760805 57.535376 57.471807 58.124320 58.707795
1.635000 56.469054 57.192356 57.919401 57.864579 58.507877 59.049832
1.645000 56.983606 57.663357 58.325157 58.291578 58.895946 59.408423
1.655000 57.592654 58.230216 58.800943 58.785173 59.335521 59.923675
1.665000 58.196104 58.767476 59.271858 59.298326 59.846603 60.485022
1.675000 58.603505 59.151041 59.691046 59.733871 60.330660 60.934160
1.685000 59.032974 59.571314 60.094548 60.154413 60.781194 61.411493
1.695000 59.478074 59.900754 60.476433 60.530467 61.161256 61.933360
1.705000 59.722613 60.181119 60.824581 60.876338 61.545495 62.441973
1.715000 60.001402 60.483491 61.153308 61.217250 61.895859 62.915386
1.725000 60.301113 60.783364 61.480733 61.551835 62.311309 63.203632
1.735000 60.556632 61.124696 61.813824 61.896391 62.726052 63.653302
1.745000 60.786249 61.421027 62.141477 62.236319 63.103273 64.055486
1.755000 61.079206 61.776757 62.507893 62.592348 63.501824 64.428041
1.765000 61.336650 62.089062 62.860828 62.947598 63.867034 64.748979
1.775000 61.673506 62.435394 63.208697 63.303042 64.267603 65.163264
1.785000 61.991499 62.756938 63.618759 63.659129 64.585583 65.462384
1.795000 62.397659 63.108954 63.999757 64.020184 64.916535 65.811053
1.805000 62.761907 63.515620 64.355483 64.377392 65.230647 66.138388
1.815000 63.090905 63.851683 64.717437 64.725719 65.581910 66.512948
1.825000 63.503066 64.180351 65.058171 65.070753 65.921263 66.738054
1.835000 63.841654 64.554693 65.411483 65.415969 66.250870 67.015095
1.845000 64.254576 64.954520 65.801705 65.777458 66.611403 67.301807
1.855000 64.533449 65.322951 66.170448 66.133461 66.965995 67.598546
1.865000 64.868336 65.701894 66.557832 66.513627 67.272420 67.921844
1.875000 65.362372 66.166135 66.946488 66.908111 67.669729 68.239169
1.885000 65.825403 66.599638 67.328737 67.310723 68.055091 68.637115
1.895000 66.329011 67.021164 67.717842 67.717881 68.412302 69.032385
1.905000 66.808723 67.458969 68.129696 68.146664 68.828884 69.530608
1.915000 67.246994 67.929148 68.611165 68.608380 69.275846 69.971957
1.925000 67.745984 68.437779 69.129278 69.133148 69.822956 70.524783
1.935000 68.398400 68.992892 69.658918 69.677861 70.365828 71.070492
1.945000 68.831944 69.516401 70.218345 70.228146 70.922626 71.615145
1.955000 69.396616 70.035071 70.719953 70.733237 71.418253 72.193566
1.965000 69.896349 70.532131 71.218013 71.209691 71.912065 72.576278
1.975000 70.309995 70.983294 71.673404 71.675498 72.366890 73.029939
1.985000 70.732928 71.425128 72.077535 72.101567 72.784926 73.500618
1.995000 71.101983 71.811865 72.524547 72.522265 73.248464 73.954725
2.005000 71.473458 72.209120 72.929102 72.927405 73.656564 74.430743
2.015000 71.877703 72.641539 73.326071 73.333799 74.082456 74.764840
2.025000 72.295030 73.048463 73.716632 73.719249 74.441213 75.138631
2.035000 72.602564 73.442708 74.132444 74.099484 74.755404 75.482928
2.055000 73.616485 74.257790 74.901488 74.887615 75.513055 76.109033
2.065000 73.985045 74.627301 75.267143 75.254980 75.900313 76.438568
2.075000 74.364370 75.012029 75.636525 75.625440 76.289777 76.825184
2.085000 74.780394 75.361892 75.990314 75.984385 76.623463 77.201518
2.095000 75.152450 75.710774 76.329180 76.332003 76.952483 77.515554
2.105000 75.525926 76.046673 76.632481 76.642352 77.235114 77.782528
2.115000 75.844080 76.359878 76.928838 76.935927 77.524289 78.066132
2.125000 76.146524 76.675351 77.199647 77.234989 77.831883 78.361326
2.135000 76.408101 76.982217 77.511841 77.531388 78.126991 78.676509
2.145000 76.746473 77.271610 77.783016 77.804166 78.390346 78.935518
2.155000 77.065285 77.551407 78.043264 78.078240 78.689882 79.167581
2.165000 77.372864 77.832315 78.304859 78.347302 78.947421 79.406251
2.175000 77.592744 78.115069 78.549698 78.602456 79.203164 79.656862
2.185000 77.887355 78.370824 78.793648 78.853137 79.429451 79.892900
2.195000 78.197885 78.614999 79.024192 79.100107 79.692729 80.120906
2.205000 78.490285 78.881900 79.254518 79.340566 79.922972 80.401631
2.215000 78.790422 79.135093 79.489387 79.580289 80.136258 80.579534
2.225000 79.048192 79.364973 79.716440 79.821319 80.379148 80.802179
2.235000 79.329418 79.615306 79.948198 80.054912 80.633407 80.986490
2.245000 79.570623 79.847161 80.183033 80.288160 80.874064 81.220193
2.255000 79.798362 80.073322 80.411479 80.517477 81.089262 81.428651
2.265000 80.021066 80.289418 80.629910 80.734530 81.302170 81.657767
2.275000 80.253582 80.500840 80.838893 80.952178 81.507879 81.875281
2.285000 80.456268 80.714083 81.043040 81.162582 81.730377 82.083558
2.295000 80.666740 80.926645 81.245905 81.371021 81.953781 82.279776
2.305000 80.889605 81.136041 81.430460 81.575860 82.156244 82.532727
2.315000 81.093676 81.355429 81.623908 81.782273 82.349089 82.746042
2.325000 81.289214 81.546075 81.836988 81.983589 82.553412 82.926094
2.335000 81.463200 81.744162 82.039772 82.180533 82.747409 83.110029
2.345000 81.705550 81.933094 82.240210 82.378984 82.950535 83.300089
2.365000 82.033276 82.294223 82.609170 82.739637 83.324855 83.637344
2.375000 82.250822 82.485778 82.805460 82.937608 83.522716 83.812622
2.385000 82.430521 82.679237 82.998211 83.133890 83.718685 84.017455
2.395000 82.639380 82.881947 83.208761 83.336319 83.914598 84.219278
2.405000 82.828082 83.082588 83.419081 83.537576 84.103019 84.444667
2.415000 83.034392 83.276359 83.634473 83.742250 84.313764 84.674943
2.425000 83.251218 83.467081 83.850187 83.949651 84.517973 84.846892
2.435000 83.450066 83.671156 84.070750 84.159738 84.723275 85.056936
2.445000 83.651841 83.887449 84.301399 84.372894 84.912583 85.264898
2.455000 83.865425 84.111433 84.526766 84.596468 85.121282 85.499817
2.465000 84.063358 84.330178 84.745724 84.817387 85.348733 85.701001
2.475000 84.275508 84.566140 84.977713 85.045927 85.578957 85.964398
2.485000 84.481316 84.794059 85.226585 85.293043 85.825694 86.281977
2.495000 84.753051 85.047161 85.496792 85.555226 86.088991 86.569092
2.505000 84.959955 85.296866 85.815901 85.841861 86.345039 87.012300
2.515000 85.189010 85.560653 86.119424 86.139664 86.671959 87.358850
2.525000 85.417996 85.842002 86.458221 86.472343 87.039379 87.890319
2.535000 85.724827 86.169566 86.788875 86.816825 87.406050 88.379911
2.545000 85.967738 86.466635 87.136770 87.181792 87.849613 88.772563
2.555000 86.245960 86.835916 87.550953 87.579751 88.287827 89.247074
2.565000 86.504403 87.243162 87.984066 88.009371 88.738318 89.728037
2.575000 86.850264 87.707342 88.444597 88.478390 89.280046 90.083202
2.585000 87.313339 88.113421 88.918482 88.921237 89.752944 90.474803
2.595000 87.647181 88.549095 89.340275 89.336369 90.166755 90.821353
2.605000 88.039583 88.959926 89.795276 89.743834 90.512914 91.214906
2.615000 88.373669 89.388006 90.197101 90.143095 90.902900 91.526063
2.625000 88.829706 89.832241 90.585536 90.528441 91.206114 91.779477
2.635000 89.248799 90.226527 90.954779 90.884395 91.508130 92.092801
2.645000 89.645101 90.629126 91.272589 91.214869 91.808935 92.364192
2.655000 90.046728 90.987428 91.619426 91.549018 92.104205 92.652695
2.665000 90.446332 91.325174 91.915047 91.863468 92.381861 92.908788
2.675000 90.795640 91.657886 92.225196 92.168638 92.651520 93.142406
2.685000 91.244472 91.978433 92.503054 92.451923 92.920705 93.402266
2.695000 91.648910 92.290078 92.789758 92.739913 93.174991 93.668882
2.705000 92.020407 92.574514 93.045469 93.014478 93.428910 93.913999
2.715000 92.283860 92.872779 93.298641 93.281233 93.681452 94.191203
2.725000 92.694096 93.155667 93.539269 93.541569 93.929829 94.433797
2.735000 93.026057 93.414362 93.795161 93.799858 94.146227 94.671367
2.745000 93.339875 93.708182 94.030841 94.053779 94.402074 94.930678
2.755000 93.565993 93.966755 94.267149 94.300180 94.626514 95.172514
2.765000 93.855273 94.197871 94.516451 94.539075 94.887656 95.458107
2.775000 94.099456 94.435392 94.744087 94.782614 95.130560 95.674174
2.785000 94.334146 94.665376 94.971260 95.029331 95.412376 95.969686
2.795000 94.563770 94.895360 95.212293 95.275510 95.697755 96.238854
2.825000 95.231426 95.519221 95.885807 95.945226 96.395894 96.898312
2.835000 95.462279 95.753901 96.120076 96.184581 96.653601 97.141272
2.845000 95.693668 95.975976 96.385171 96.435748 96.905671 97.394357
2.855000 95.942058 96.206982 96.642056 96.685430 97.160642 97.650302
2.865000 96.165948 96.431879 96.921839 96.935023 97.415536 97.885299
2.875000 96.337884 96.666053 97.181832 97.192584 97.687587 98.168618
2.885000 96.568404 96.921481 97.454327 97.448278 97.936567 98.515442
2.895000 96.794185 97.185713 97.712201 97.705342 98.164284 98.791251
2.905000 97.056438 97.476277 97.989552 97.986056 98.438438 98.994912
2.915000 97.306706 97.743841 98.275371 98.253704 98.698413 99.271049
2.925000 97.551192 98.021120 98.532566 98.518695 98.966264 99.539033
2.935000 97.845028 98.321511 98.772442 98.787391 99.226920 99.791218
2.945000 98.137970 98.608152 99.041450 99.061060 99.482242 100.105193
2.955000 98.389880 98.858280 99.316298 99.335241 99.765833 100.377983
