depth(m) lower_95(kyr) lower_68(kyr) median(kyr) mean(kyr) upper_68(kyr) upper_95(kyr)
0.235000 3.564185 4.150738 4.806886 4.857104 5.580354 6.346273
0.368183 4.307320 4.924915 5.600677 5.620248 6.300749 7.114963
0.501367 4.956365 5.678189 6.373410 6.379236 7.084654 7.823482
0.634550 5.770649 6.470410 7.140714 7.167384 7.877540 8.571070
0.767733 6.568245 7.263350 7.933229 7.951888 8.629671 9.364414
0.900917 7.485469 8.080562 8.727827 8.733225 9.405872 10.099528
1.034100 8.244694 8.880134 9.494899 9.504203 10.136421 10.834565
1.134100 8.941688 9.576191 10.193256 10.198588 10.827139 11.434263
1.234100 9.700329 10.195782 10.816268 10.820314 11.421925 12.017406
1.334100 10.269454 10.820020 11.417809 11.438389 12.074353 12.701670
1.434100 10.924208 11.509110 12.095398 12.097173 12.682019 13.323190
1.534100 11.672211 12.185875 12.826668 12.799389 13.360681 14.022034
1.634100 12.471893 12.967787 13.585122 13.578622 14.119140 14.692549
1.734100 13.328950 13.825113 14.404400 14.389462 14.943415 15.493982
1.834100 14.191432 14.679927 15.294269 15.275564 15.851963 16.336613
1.934100 15.061606 15.522321 16.080489 16.102705 16.664525 17.343326
2.040100 15.940299 16.450660 17.048228 17.057334 17.638513 18.347498
2.140100 16.885106 17.398884 18.030156 18.047047 18.666418 19.410419
2.240100 17.744952 18.318161 18.988784 19.023529 19.730320 20.488947
2.340100 18.613146 19.257153 19.983891 19.999460 20.733119 21.459851
2.440100 19.468928 20.232579 20.963950 20.969217 21.677609 22.478170
2.540100 20.351551 21.134822 21.942116 21.923991 22.652661 23.643433
2.640100 21.240070 22.102758 22.878125 22.878571 23.580587 24.602198
2.740100 22.201909 22.973689 23.775625 23.780727 24.492328 25.683064
2.840100 23.028997 23.817407 24.592232 24.636535 25.397836 26.762754
2.940100 23.869512 24.634522 25.424731 25.474386 26.215048 27.838062
3.039000 24.574948 25.422830 26.213805 26.319759 27.109350 28.863963
3.139000 25.510804 26.340555 27.080817 27.194638 27.977129 29.834241
3.239000 26.360588 27.176228 27.932225 28.052873 28.852894 30.850908
3.339000 27.259942 27.985682 28.769755 28.902197 29.663066 31.785578
3.439000 28.109530 28.845866 29.621921 29.762340 30.526431 32.937790
3.539000 28.856560 29.636297 30.408294 30.606978 31.386592 34.033956
3.639000 29.685519 30.533898 31.279046 31.487279 32.182060 35.323705
3.739000 30.474446 31.377244 32.154257 32.394489 33.023636 36.494825
3.839000 31.465260 32.239788 33.027040 33.327668 34.014282 38.417597
3.939000 32.449790 33.146814 33.921861 34.302774 34.921539 40.136406
4.040400 33.319278 34.109975 34.858423 35.304186 35.817950 41.723734
4.140400 34.207029 34.990835 35.778159 36.293595 36.861713 43.526039
4.240400 35.204547 35.912099 36.757611 37.316145 37.859637 44.697816
4.340400 36.015151 36.861569 37.735172 38.367319 38.942705 46.231563
4.440400 37.044625 37.790207 38.680331 39.457269 40.043687 48.177444
4.540400 37.986074 38.783973 39.614092 40.535720 41.152890 50.941199
4.640400 39.103172 39.726033 40.548748 41.643371 42.146388 56.461814
4.740400 39.986034 40.648754 41.487899 42.758664 43.379204 59.131113
4.840400 40.850040 41.565317 42.456854 43.900812 44.618802 60.577548
4.940400 41.821999 42.546408 43.392485 45.022151 46.193881 61.551799
5.057300 42.919771 43.624948 44.545955 46.352782 48.146980 62.900994
5.157300 43.942719 44.652931 45.582341 47.528762 49.486066 64.150852
5.257300 45.054349 45.784003 46.606294 48.735516 51.358218 65.346071
5.357300 46.059894 46.817589 47.816314 49.972472 52.742065 66.348414
5.457300 47.258062 47.965372 49.008123 51.288944 53.778111 67.587761
5.557300 48.350389 49.114753 50.269414 52.694540 54.967897 68.707164
5.657300 49.581892 50.302122 51.805670 54.163301 56.218303 69.616675
5.757300 51.020222 51.782168 54.242499 55.830931 57.602304 70.638211
5.857300 52.269488 53.410372 56.574946 57.754930 59.925695 71.645779
5.957300 53.394636 55.442542 58.832317 60.144811 65.056609 72.666362
6.054000 54.447016 59.249995 63.253739 63.681822 68.308723 73.655911
6.154000 55.494783 62.877871 68.073191 67.074533 70.663966 74.818301
6.254000 56.777017 68.169708 70.779913 69.811140 72.751240 76.028107
6.354000 58.185142 69.960703 72.220384 71.391452 74.185452 77.227542
6.454000 62.710297 71.231253 73.506075 73.062691 75.589392 78.341953
6.554000 70.453240 72.891024 74.896521 74.994542 77.196795 80.377981
6.654000 72.386749 74.367856 76.309358 76.531963 78.746663 82.228819
6.754000 74.335003 75.818440 77.946240 78.279642 80.786986 84.687654
6.854000 76.084011 77.747580 79.944035 80.453438 84.013167 86.174727
6.954000 78.345956 80.312350 83.517503 83.243626 85.893621 87.400613
7.058300 82.137303 85.041299 86.494123 86.279953 87.665658 88.816318
7.158300 85.287598 86.702588 87.833915 87.808989 89.009116 90.080845
7.258300 86.945381 88.010202 89.075480 89.113887 90.249487 91.356547
7.358300 88.153345 89.195276 90.357446 90.359329 91.498715 92.744984
7.458300 89.486295 90.576432 91.786686 91.841469 93.073783 94.475643
7.558300 90.889413 92.274909 93.778250 93.890286 95.501620 97.455932
7.658300 92.616592 93.963555 95.425820 95.651293 97.241738 99.862459
7.758300 94.428379 95.840740 97.360692 97.654728 99.245927 101.844166
7.858300 96.258814 97.541063 99.252996 99.589227 101.212071 105.724590
7.958300 97.933748 99.495396 101.274255 101.951148 103.786805 112.258302
8.062900 100.237656 102.496080 105.603393 106.341801 110.536327 114.759167
8.162900 103.830565 107.304648 111.469281 111.162521 114.670927 117.894406
8.262900 107.909576 113.578910 118.147476 118.186247 123.144584 126.764685
8.362900 113.103397 117.463648 127.934337 125.094292 129.584956 130.504380
8.462900 117.368100 128.578952 130.341433 129.392855 131.336345 132.141786
8.562900 128.517497 130.844900 131.813542 131.638536 132.705211 133.445288
8.662900 130.971228 132.201259 132.971540 132.988788 133.820803 134.857926
8.762900 132.349921 133.338944 134.143978 134.209867 135.074215 136.131146
8.862900 133.664296 134.607601 135.510253 135.654227 136.659812 138.369051
8.962900 134.997740 135.944171 136.948562 137.198635 138.327128 141.187870
9.064700 136.204540 137.150110 138.369135 138.705767 140.330665 143.023939
9.164700 137.483190 138.467213 139.723890 140.140120 142.002440 144.863237
9.264700 138.800809 139.911363 141.213644 141.686822 143.768278 146.552386
9.364700 140.258628 141.403383 143.174510 143.503161 145.595736 148.364392
9.464700 141.732232 143.128621 145.342719 145.605608 148.052428 151.185548
9.564700 143.485962 145.377951 147.771610 147.992373 150.613776 153.549499
9.664700 145.096105 147.527677 150.173851 150.241898 152.905133 155.750858
9.764700 146.626141 149.675925 152.479715 152.440769 155.191268 157.909861
9.864700 148.845443 151.835611 154.797564 154.783194 157.804177 160.083466
9.964700 150.305205 154.061241 157.379445 157.065077 159.881040 161.830577
10.062200 152.137041 156.569248 159.789757 159.286376 161.792296 164.007789
10.162200 154.309779 159.598747 161.736435 161.396836 163.434694 165.776179
10.262200 157.019101 161.472950 163.059543 162.997674 164.749193 167.187374
10.362200 160.435453 162.863158 164.422942 164.457513 166.089918 168.739795
10.462200 162.421392 164.240892 165.662624 165.804415 167.347561 170.264387
10.562200 163.779178 165.465114 166.936248 167.099103 168.715479 171.558656
10.662200 165.097846 166.746570 168.229114 168.416408 170.070594 172.852972
10.762200 166.276873 168.010843 169.514394 169.706995 171.471727 174.126973
10.862200 167.523545 169.325459 170.760931 171.026498 172.876637 175.810100
10.962200 168.819109 170.541240 172.056637 172.322770 174.208288 177.102265
11.071200 170.299239 171.769980 173.305376 173.659756 175.690135 178.580161
11.171200 171.579307 172.995245 174.473547 174.922620 176.996265 180.047233
11.271200 172.783068 174.137894 175.695231 176.199091 178.562965 181.276247
11.371200 174.033123 175.360235 177.014733 177.440982 179.979769 182.474773
11.471200 175.167845 176.505768 178.215150 178.708512 181.359222 183.562754
11.571200 176.328040 177.676936 179.482413 179.964806 182.657107 184.978631
11.671200 177.446239 178.942901 180.796607 181.257294 183.983337 186.259991
11.771200 178.437359 180.148803 182.138920 182.529439 185.314272 187.512958
11.871200 179.792060 181.315747 183.428673 183.818796 186.570102 188.499221
11.971200 181.072894 182.578149 184.838003 185.079917 187.754775 189.635531
12.058800 182.142389 183.680124 186.060528 186.207514 188.824259 190.537504
12.158800 183.468893 185.050009 187.398230 187.505676 190.017636 191.614420
12.258800 184.647715 186.418786 188.709240 188.771469 191.209294 192.907855
12.358800 186.152650 187.855958 189.913330 190.035067 192.304320 194.132127
12.458800 187.770562 189.340447 191.245191 191.420771 193.742646 195.432017
12.558800 189.593490 191.067174 193.004325 193.138947 195.331777 197.349016
12.658800 191.990565 193.409021 195.297512 195.382754 197.326420 199.665061
12.758800 193.549994 195.100708 197.064628 197.151724 199.145175 201.533227
12.858800 194.993882 196.778638 198.848365 198.894984 201.027859 203.303610
12.958800 196.865650 198.573245 200.609530 200.747874 202.914924 205.097867
13.077100 198.752938 200.533359 202.685546 202.703439 204.904360 206.863029
13.177100 200.145119 202.095096 204.268801 204.257088 206.363033 208.468910
13.277100 201.834757 203.657226 205.932907 205.876616 207.990248 209.808514
13.377100 203.426137 205.354544 207.602839 207.485760 209.556004 211.398621
13.477100 205.001545 206.887845 209.101198 209.030227 211.083185 213.134994
13.577100 206.578054 208.413570 210.607833 210.623377 212.732410 214.901579
13.677100 207.974318 210.196854 212.247257 212.390276 214.602363 217.380646
13.777100 209.518613 211.846341 213.988479 214.187451 216.530779 219.969677
13.877100 211.704263 213.799193 215.933253 216.312075 218.775791 223.346051
13.977100 214.958578 217.221576 219.684006 220.214949 223.759018 227.384650
14.065400 217.528043 219.634039 222.684725 223.098860 226.807654 230.136148
14.165400 220.547968 223.399755 226.763837 226.726672 230.178483 232.557122
14.265400 224.143519 227.481077 230.889224 230.531291 233.529731 235.425720
14.365400 230.034154 232.916924 235.055456 234.799933 236.689183 238.041594
14.465400 233.743385 235.547212 237.150179 237.015785 238.513352 239.775708
14.565400 235.810149 237.307080 238.764317 238.740454 240.193229 241.298412
14.665400 237.708373 239.074313 240.450271 240.448950 241.832531 243.033446
14.765400 239.636367 241.138705 242.502977 242.574652 244.058148 245.667492
14.865400 242.010722 243.466649 245.123746 245.294506 247.048067 249.186971
14.965400 244.844938 246.903254 248.971275 249.215368 251.280414 255.026960
15.068900 248.177458 250.000719 252.082191 252.629085 254.885005 262.896829
15.168900 250.672219 252.637293 255.133339 256.078835 259.385259 268.058590
15.268900 253.244619 255.803108 259.241457 260.014272 263.972914 271.993722
15.368900 255.359203 258.930652 262.737018 263.827252 269.974281 275.092689
15.468900 256.798179 262.968572 269.148213 268.656550 274.443541 277.170822
15.568900 258.307028 268.099914 275.256001 273.391181 277.751457 279.944244
15.668900 259.512434 275.009802 278.672756 277.643129 281.151148 288.042671
15.768900 260.656394 278.281273 282.379629 282.168253 288.722005 290.128812
15.868900 262.026606 281.072758 289.093234 286.216250 290.596083 291.917675
15.968900 263.218384 288.852038 290.865456 288.750320 292.224941 293.396155
16.065000 264.553672 290.719134 292.282355 290.368452 293.646178 294.836682
16.165000 266.396189 292.104371 293.638892 291.847548 295.016712 296.141520
16.265000 268.480913 293.503905 294.955047 293.279681 296.361669 297.393559
16.365000 271.801470 294.751553 296.307616 294.707399 297.620143 298.788642
16.465000 274.426654 296.007546 297.562609 296.076133 298.908920 300.210921
16.565000 276.462181 297.361511 298.850010 297.443227 300.166271 301.451557
16.665000 278.751132 298.887717 300.327949 299.017789 301.831896 303.418100
16.765000 282.690785 300.476318 302.421170 301.391404 304.549545 306.223465
16.865000 287.675019 301.792139 304.173090 303.336830 306.583711 308.177229
16.965000 291.400424 303.072512 306.280306 305.268063 308.316407 309.608567
17.063300 296.856532 304.577952 308.256790 307.290568 310.013998 311.627747
17.163300 304.035678 306.604653 310.385939 309.858220 312.645852 314.833721
17.263300 307.100997 309.110465 312.576019 312.525896 315.768925 318.742842
17.363300 311.292132 314.041397 317.205078 316.931052 319.614120 321.128889
17.463300 314.817279 317.814344 320.323034 319.895146 321.782457 322.819480
17.563300 318.421781 321.090860 322.684513 322.377488 323.609178 324.496032
17.663300 321.385528 323.085764 324.049348 324.000418 325.039020 325.959201
17.763300 323.276355 324.407570 325.339469 325.312370 326.260939 327.106972
17.863300 324.942291 325.756560 326.684162 326.681533 327.590106 328.318270
17.963300 326.279722 327.040937 327.977423 327.936043 328.806088 329.598066
18.060700 327.629218 328.295072 329.178704 329.165172 329.980645 330.866999
18.160700 328.831986 329.597319 330.462067 330.450430 331.286882 332.101085
18.260700 330.098382 330.993886 331.804452 331.819947 332.641035 333.519438
18.360700 331.341590 332.170544 333.105335 333.089017 333.961291 334.954762
18.460700 332.459117 333.474959 334.382227 334.372435 335.250323 336.285996
18.560700 334.241146 335.085939 335.951328 335.975134 336.813985 337.818771
18.660700 335.872569 336.735027 337.646576 337.708765 338.671990 339.871570
18.760700 337.567652 338.645142 339.759536 339.838634 340.859533 342.679831
18.860700 340.195918 341.395817 342.957315 343.229372 345.160609 347.711144
18.960700 342.210200 343.769814 345.850449 346.002266 348.264200 350.323507
19.065100 344.679757 346.744805 348.849712 348.906387 350.989559 353.353554
19.165100 347.725833 349.538756 351.647338 351.650822 353.651004 356.107371
19.265100 350.962969 352.709633 354.427930 354.705848 356.799179 359.270700
19.365100 353.265681 354.790776 356.803162 356.989608 359.217056 361.808744
19.465100 354.893654 356.548394 358.764343 358.948012 361.313278 364.172603
19.565100 356.233731 358.215726 360.494004 360.745745 363.268915 366.392251
19.665100 357.692546 359.801168 362.319913 362.480149 365.183373 368.254889
19.765100 359.035821 361.389797 364.089705 364.166969 366.934503 370.250245
19.865100 360.663748 363.191290 365.780803 365.921749 368.642045 371.803897
19.965100 362.326504 364.926900 367.524209 367.650338 370.415151 373.546487
20.061300 363.968050 366.612092 369.169092 369.347654 372.146612 375.515868
20.161300 365.902762 368.475842 371.088143 371.231683 374.116168 377.671247
20.261300 367.986021 370.424442 373.248682 373.350006 376.247432 379.651181
20.361300 369.844720 372.483807 375.503577 375.595518 378.654424 382.259463
20.461300 371.660627 374.520484 377.668193 377.805941 381.058693 384.742039
20.561300 373.486902 376.532979 379.821831 379.979178 383.492322 386.680789
20.661300 375.489380 378.379693 381.820154 381.884937 385.452288 388.240408
20.761300 377.440506 380.451691 383.685387 383.772533 387.445386 390.208386
20.861300 379.154288 382.416277 385.737163 385.807653 389.344705 392.265931
20.961300 381.431999 384.474759 387.921388 387.981692 391.416549 394.415400
21.057800 383.943571 386.954489 390.412537 390.273178 393.543998 396.098104
21.157800 386.419864 389.874228 393.372341 393.085129 396.151844 398.636880
21.257800 390.419879 393.530799 396.636507 396.365178 399.071030 401.647881
21.357800 394.154099 396.790996 399.707519 399.596634 402.094422 405.065043
21.457800 398.033496 400.799715 403.227222 403.263558 405.690945 408.522908
21.557800 400.760416 403.259395 406.104323 406.084625 408.901019 411.229474
21.657800 402.849294 405.762324 408.884379 408.643012 411.405367 413.556533
21.757800 404.700321 408.273041 411.111236 410.859946 413.668415 415.699747
21.857800 407.160521 410.485639 413.219897 412.995800 415.571960 417.465179
21.957800 410.539664 413.290390 415.784570 415.571473 417.928784 419.506356
22.057400 413.208685 415.521611 417.752619 417.647635 419.730415 421.428367
22.157400 415.383117 417.669615 419.796329 419.666295 421.725551 423.299443
22.257400 418.460979 420.349591 422.291853 422.141387 423.883212 425.381299
22.357400 421.724887 423.459746 425.125389 425.051276 426.613129 428.260674
22.457400 424.618062 426.201773 427.766819 427.786139 429.321259 431.082060
22.557400 427.230634 428.686444 430.191813 430.251702 431.806597 433.547516
22.657400 429.108471 430.488300 432.107943 432.151536 433.795540 435.486247
22.757400 430.484683 432.053743 433.757744 433.796855 435.511071 437.402763
22.857400 431.720899 433.512220 435.314024 435.307917 437.054276 439.056747
22.957400 433.163746 434.858943 436.794267 436.774629 438.520604 440.526890
23.086900 435.132770 436.719201 438.689997 438.627173 440.371165 442.371921
23.186900 436.517009 438.167816 440.104171 440.095470 441.824435 444.017821
23.286900 437.879607 439.767708 441.665741 441.687358 443.519505 445.997022
23.386900 439.330573 441.310461 443.256652 443.373521 445.447365 448.262650
23.486900 440.649049 442.884512 444.837994 445.078370 447.545275 450.210720
23.586900 442.127892 444.329922 446.397522 446.758154 449.353639 452.725732
23.686900 443.623554 445.834571 448.005081 448.407405 451.098573 454.707336
23.786900 445.239487 447.389423 449.749351 450.163475 453.185389 456.821452
23.886900 446.868335 449.122630 451.606681 451.993149 455.016170 458.780594
23.986900 448.739105 450.921262 453.407374 453.896378 457.053053 460.643346
24.063400 450.169514 452.304004 455.098440 455.437817 458.803399 462.301937
24.163400 451.823924 454.266596 457.219691 457.545740 460.918548 464.679130
24.263400 453.382608 456.058492 459.410147 459.512578 463.036318 466.465383
24.363400 454.920269 457.842545 461.548209 461.560201 465.051565 468.936975
24.463400 456.846350 459.988525 463.533878 463.673210 467.362422 470.871480
24.563400 458.733914 462.285563 465.785724 465.886826 469.582054 473.012429
24.663400 460.740356 464.517024 468.039872 468.004569 471.618894 474.989003
24.763400 462.746612 466.536788 470.229642 470.118131 473.889849 476.954136
24.863400 465.011085 468.697080 472.572027 472.361469 475.982493 479.185776
24.963400 467.427609 471.247020 474.833551 474.732268 478.179914 481.031220
25.064200 470.196727 474.067494 477.656706 477.444729 480.783819 483.766120
25.164200 472.754240 476.943318 480.297662 480.160046 483.382960 486.527266
25.264200 476.046854 479.681054 482.871437 482.928544 486.200445 489.632472
25.364200 479.528725 482.722579 485.914421 485.949186 489.086488 492.595937
25.464200 482.692460 485.936807 489.018496 489.080417 492.257341 496.239984
25.564200 486.530120 489.081707 492.204557 492.368310 495.586431 499.716588
25.664200 488.900427 491.982486 495.158237 495.319683 498.734916 501.802633
25.764200 491.773165 494.721151 498.070345 498.190045 501.623162 504.575249
25.864200 494.403860 497.492876 500.876307 501.008986 504.413420 508.447236
25.964200 497.084690 500.295662 503.474804 503.822014 507.573011 511.571073
26.062200 499.532010 502.795938 506.472801 506.801173 510.639623 515.655770
26.162200 502.305494 506.167231 510.574188 510.762392 515.230101 520.920786
26.262200 505.458634 510.418973 515.227516 515.551632 520.699461 526.525386
26.362200 510.252365 515.849998 521.301252 521.356926 526.895397 532.662612
26.462200 515.547219 521.302040 527.577810 527.371368 533.506283 539.371752
26.562200 522.329478 527.720072 534.360117 534.362690 540.685395 546.637409
26.662200 527.780318 534.596297 541.286580 540.941839 547.124469 552.555170
26.762200 535.387591 541.625757 547.928359 547.629039 553.345706 557.716326
26.862200 543.275922 549.834152 555.472111 555.079548 560.394374 564.390790
26.962200 550.157183 555.843210 560.539656 560.323141 564.763865 569.017416
27.063600 557.010789 561.452265 565.293191 565.234105 569.067789 572.575549
27.163600 560.939486 565.195507 568.852999 568.782711 572.474908 575.501583
27.263600 563.839496 568.396718 572.027486 572.014084 575.601063 579.441000
