depth(m) lower_95(kyr) lower_68(kyr) median(kyr) mean(kyr) upper_68(kyr) upper_95(kyr)
45.860000 311.862620 315.031828 317.599735 317.204732 319.124260 320.639100
45.935000 312.218840 315.412367 317.954164 317.569848 319.475113 320.905497
46.010000 312.554704 315.718669 318.341559 317.923597 319.814475 321.161858
46.060000 312.737882 316.009103 318.553732 318.165182 320.096303 321.330858
46.160000 313.255747 316.574983 319.012581 318.653681 320.580722 321.719463
46.210000 313.613338 316.816048 319.233328 318.904376 320.824981 322.012255
46.310000 314.097295 317.388966 319.787971 319.439369 321.380711 322.460765
46.410000 314.664213 318.050534 320.335966 319.955893 321.858994 322.917342
46.551667 315.401887 318.841536 320.967372 320.625422 322.451337 323.563822
46.693333 316.226284 319.543011 321.665218 321.291163 323.066114 324.159152
46.835000 317.171724 320.353574 322.259066 321.978001 323.683838 324.781733
46.976667 318.055699 321.053790 322.914699 322.638406 324.283297 325.398300
47.118333 318.867885 321.824208 323.526740 323.293835 324.835636 325.979144
47.260000 319.745884 322.477448 324.172994 323.948259 325.348560 326.552039
47.401667 320.834143 323.165408 324.845367 324.615191 325.998896 327.123659
47.543333 321.763424 324.004750 325.425977 325.302870 326.622868 327.814702
47.685000 322.761004 324.734959 326.099034 325.951313 327.169504 328.346173
47.826667 323.877835 325.463103 326.677683 326.593629 327.748927 328.905586
47.968333 324.582423 326.219021 327.334103 327.257094 328.324496 329.540006
48.110000 325.448205 326.880149 327.975777 327.914733 328.963669 330.080611
48.185000 325.840419 327.244265 328.319750 328.281053 329.276176 330.438215
48.260000 326.215625 327.654976 328.641864 328.631493 329.622440 330.755937
48.393333 326.988744 328.321905 329.329605 329.274041 330.265136 331.177352
48.526667 327.864390 329.001750 329.932084 329.908004 330.840331 331.615325
48.660000 328.664224 329.666635 330.587516 330.539149 331.440810 332.136915
48.710000 328.952210 329.911850 330.832386 330.782816 331.676672 332.343591
48.810000 329.460423 330.446371 331.352582 331.300189 332.160970 332.805590
48.910000 329.891052 330.994644 331.926265 331.825534 332.670892 333.369642
48.960000 330.003855 331.263083 332.210549 332.108352 332.946971 333.638192
49.010000 330.335064 331.564317 332.510065 332.410279 333.253634 333.930458
49.060000 330.606898 331.907721 332.836113 332.741724 333.595427 334.302698
49.172500 331.610071 332.720212 333.756364 333.708217 334.722860 335.611984
49.285000 332.670058 333.675663 334.745487 334.709658 335.751803 336.599301
49.397500 333.763698 334.787595 335.805303 335.743873 336.696326 337.422106
49.510000 335.140504 335.907768 336.760468 336.701991 337.465418 338.058573
49.560000 335.492380 336.244137 337.124794 337.034567 337.747437 338.326917
49.685000 336.384808 337.149926 337.905011 337.831842 338.506144 338.944409
49.810000 337.504159 338.072829 338.636782 338.602534 339.114275 339.495132
49.885000 338.013501 338.498473 338.992975 338.973655 339.430271 339.810353
49.960000 338.462692 338.864307 339.344255 339.318120 339.716882 340.121389
50.010000 338.698889 339.117178 339.556213 339.531003 339.913255 340.308617
50.060000 338.932508 339.357466 339.759760 339.742981 340.112581 340.512082
50.110000 339.128787 339.551734 339.958637 339.939464 340.300955 340.702341
50.185000 339.434660 339.850729 340.231541 340.211396 340.551826 340.957905
50.260000 339.754145 340.141833 340.489591 340.485407 340.815178 341.240431
50.310000 339.926730 340.317656 340.668548 340.664007 340.984483 341.418296
50.410000 340.283703 340.656653 340.968188 340.986155 341.310633 341.736932
50.460000 340.482711 340.829601 341.129451 341.147963 341.457548 341.896075
50.560000 340.832068 341.127942 341.429999 341.452389 341.777821 342.214679
50.660000 341.150384 341.438453 341.746809 341.759389 342.081606 342.527115
50.710000 341.294127 341.591704 341.898966 341.921191 342.251521 342.686682
50.810000 341.590738 341.901607 342.196343 342.221956 342.566097 342.987554
50.860000 341.750166 342.058448 342.352604 342.382135 342.731733 343.129443
50.960000 342.057553 342.357711 342.653486 342.687920 343.047346 343.417514
51.010000 342.194555 342.522251 342.819296 342.851944 343.216161 343.573465
51.110000 342.552371 342.826014 343.136338 343.160786 343.521733 343.896731
51.160000 342.703475 342.970866 343.296747 343.318417 343.676378 344.067607
51.273333 342.986142 343.316658 343.640509 343.655367 344.010974 344.357356
51.386667 343.310553 343.615433 343.977708 343.984749 344.349436 344.636935
51.500000 343.627137 343.965452 344.324699 344.318632 344.671554 344.945722
51.575000 343.846473 344.201351 344.560391 344.551078 344.898223 345.162220
51.650000 344.080210 344.436533 344.807721 344.788221 345.122573 345.383706
51.700000 344.239965 344.613759 344.986371 344.956545 345.289720 345.536970
51.800000 344.491655 344.946699 345.314174 345.280872 345.608229 345.821247
51.850000 344.625240 345.119433 345.495808 345.459154 345.776343 346.014339
51.900000 344.759108 345.324188 345.693109 345.650283 345.970354 346.258105
51.950000 344.975310 345.527760 345.888764 345.846170 346.171571 346.440000
52.000000 345.172653 345.740054 346.092082 346.048611 346.361774 346.684716
52.050000 345.364166 345.939378 346.297268 346.266211 346.594325 346.903152
52.100000 345.579504 346.160558 346.505646 346.477179 346.803019 347.151516
52.150000 345.784416 346.389227 346.722774 346.696796 347.027415 347.378904
52.200000 346.027586 346.595368 346.948990 346.915820 347.262351 347.602257
52.250000 346.272781 346.804206 347.164906 347.137149 347.484867 347.815055
52.300000 346.520975 347.026878 347.391899 347.367798 347.735674 348.011095
52.350000 346.802533 347.240656 347.626782 347.591818 347.963650 348.248128
52.400000 347.019728 347.455180 347.822616 347.800670 348.156541 348.480560
52.500000 347.404135 347.830289 348.204073 348.180948 348.507919 348.791717
52.550000 347.641160 348.062159 348.412636 348.386256 348.715185 348.989439
52.600000 347.879874 348.283473 348.614218 348.594076 348.905690 349.187532
52.650000 348.097878 348.482184 348.796300 348.788825 349.107751 349.388683
52.700000 348.295113 348.679279 348.998015 348.984916 349.302742 349.569274
52.800000 348.675219 349.054074 349.357514 349.353732 349.674233 349.952395
52.850000 348.868718 349.228062 349.553782 349.543491 349.862832 350.162961
52.900000 349.089279 349.420804 349.741904 349.733184 350.048619 350.335150
53.000000 349.488202 349.783720 350.096123 350.085787 350.396824 350.652122
53.100000 349.820363 350.121596 350.427470 350.423695 350.729588 350.961786
53.200000 350.173464 350.465479 350.773270 350.757981 351.041253 351.285618
53.250000 350.376312 350.657529 350.954249 350.941270 351.208357 351.437391
53.325000 350.641611 350.924587 351.206126 351.194085 351.458040 351.700167
53.400000 350.917083 351.193853 351.458971 351.447997 351.692157 351.925097
53.450000 351.092680 351.390203 351.631071 351.626237 351.865051 352.085638
53.500000 351.271139 351.569322 351.813516 351.806113 352.046955 352.270392
53.550000 351.450998 351.753180 351.995400 351.986309 352.218334 352.442772
53.600000 351.644476 351.921807 352.176641 352.169057 352.410495 352.659911
53.650000 351.834922 352.118099 352.354267 352.350780 352.593070 352.830906
53.700000 352.013905 352.285380 352.524398 352.527011 352.765111 353.052756
53.800000 352.349148 352.623724 352.851090 352.864762 353.111196 353.373749
53.850000 352.537580 352.795899 353.026013 353.045638 353.283337 353.602772
53.900000 352.729842 352.974126 353.210457 353.231588 353.470654 353.883280
53.950000 352.925217 353.151656 353.393964 353.423829 353.674506 354.121335
54.000000 353.113336 353.334360 353.588667 353.620047 353.904958 354.376067
54.050000 353.296240 353.497112 353.782682 353.819668 354.120804 354.631367
54.100000 353.480731 353.687811 353.980255 354.024700 354.352977 354.847852
54.150000 353.669221 353.863065 354.170078 354.229904 354.577261 355.148452
54.200000 353.836827 354.072572 354.378651 354.446097 354.815283 355.400779
54.250000 353.998143 354.264292 354.577477 354.656544 355.045566 355.657431
54.300000 354.179222 354.454797 354.804154 354.866494 355.267090 355.924154
54.350000 354.371462 354.657785 355.016449 355.088145 355.544693 356.283222
54.450000 354.686023 354.984665 355.399695 355.480190 355.979610 356.659725
54.550000 355.014600 355.332874 355.799251 355.877590 356.440003 357.075368
54.650000 355.365216 355.677049 356.214593 356.290272 356.946549 357.559964
54.700000 355.555106 355.884372 356.436767 356.504978 357.187989 357.793562
54.750000 355.747781 356.077023 356.650454 356.724570 357.413019 357.975239
54.800000 355.918490 356.277980 356.872881 356.936862 357.629907 358.186220
54.850000 356.098733 356.476817 357.107959 357.159947 357.859332 358.426934
54.900000 356.279339 356.687235 357.329276 357.389410 358.101634 358.651161
55.000000 356.652807 357.072813 357.838196 357.837418 358.557069 359.209558
55.050000 356.843139 357.319612 358.070979 358.072063 358.806030 359.455910
55.150000 357.230166 357.739082 358.558645 358.556204 359.320496 360.042876
55.200000 357.426823 357.994438 358.825088 358.820761 359.596189 360.317464
55.250000 357.637125 358.244937 359.088840 359.090816 359.882393 360.648006
55.300000 357.866887 358.550240 359.366209 359.386360 360.205713 360.930522
55.375000 358.214727 358.999446 359.826661 359.844662 360.700753 361.334032
55.450000 358.598474 359.471838 360.338496 360.327125 361.193447 361.884857
55.500000 358.843645 359.825944 360.670283 360.636924 361.455912 362.163909
55.600000 359.432410 360.458763 361.414503 361.349748 362.166846 363.006253
55.650000 359.671014 360.783958 361.731771 361.668139 362.517272 363.351805
55.700000 359.900559 361.057336 362.022024 361.974339 362.876867 363.705772
55.750000 360.262674 361.364937 362.322769 362.276265 363.184056 363.974015
55.800000 360.420752 361.623592 362.613443 362.567544 363.508951 364.224217
55.850000 360.708968 361.928591 362.911716 362.855944 363.807253 364.512029
55.900000 361.065866 362.243852 363.214437 363.155212 364.122157 364.873243
56.000000 361.597934 362.831931 363.811149 363.765927 364.685313 365.507889
56.050000 361.894551 363.119254 364.155682 364.083622 364.971118 365.824132
56.150000 362.778371 363.802426 364.791230 364.742073 365.595498 366.745989
56.200000 363.018633 364.042778 365.091696 365.032740 365.912912 367.024376
56.250000 363.321750 364.352767 365.368272 365.326491 366.217477 367.401814
56.300000 363.606666 364.647557 365.662790 365.602959 366.487738 367.716826
56.350000 363.900680 364.921312 365.925264 365.890577 366.819532 368.003974
56.450000 364.397197 365.475465 366.462891 366.512787 367.564824 368.749148
56.550000 364.836482 366.055890 367.078009 367.150119 368.337821 369.583325
56.650000 365.407470 366.613921 367.694194 367.788865 369.061881 370.479206
56.725000 365.921825 366.997896 368.220246 368.260140 369.512513 371.088257
56.800000 366.336774 367.353907 368.691974 368.712057 369.945871 371.733894
56.850000 366.606811 367.595390 369.022950 369.008566 370.225611 371.947045
56.970000 367.272806 368.294184 369.885711 369.799497 370.972012 373.076163
57.020000 367.500767 368.582362 370.192222 370.101513 371.232640 373.380979
57.070000 367.837680 368.927304 370.517322 370.402211 371.489618 373.716792
57.120000 368.134161 369.168938 370.811999 370.697698 371.781144 373.977342
57.170000 368.377087 369.489153 371.108896 370.995327 372.026796 374.206817
57.220000 368.670348 369.866330 371.394507 371.290393 372.308967 374.448108
57.270000 368.985305 370.156790 371.678323 371.596307 372.610467 374.665661
57.370000 369.639296 371.111523 372.247695 372.279497 373.405886 375.276104
57.470000 370.512735 371.862100 372.790522 372.938867 374.196277 375.708957
57.520000 370.736820 372.198702 373.042455 373.222362 374.443891 375.911050
57.570000 371.163697 372.542164 373.315614 373.498600 374.718830 376.134037
57.620000 371.431611 372.851741 373.594490 373.762495 374.949622 376.328681
57.670000 371.965372 373.102030 373.852140 374.037007 375.212217 376.498676
57.720000 372.266680 373.392074 374.106941 374.296670 375.453851 376.662761
57.820000 372.991447 373.855163 374.576061 374.785405 375.910066 376.987129
57.870000 373.291922 374.107245 374.807447 375.030093 376.140770 377.152876
57.920000 373.654074 374.372283 375.074083 375.286706 376.450965 377.326422
57.970000 373.955745 374.616947 375.337284 375.538778 376.695304 377.492628
58.020000 374.138884 374.869885 375.586531 375.791828 377.021199 377.652566
58.070000 374.439389 375.151550 375.861032 376.045522 377.268895 377.801715
58.120000 374.699007 375.399637 376.154612 376.302494 377.517085 377.965852
58.220000 375.241538 375.868385 376.739211 376.808287 377.903525 378.303650
58.270000 375.422846 376.137621 377.014233 377.055148 378.102044 378.482592
58.320000 375.741828 376.370647 377.282905 377.303790 378.331502 378.645685
58.370000 375.931306 376.620031 377.560115 377.554593 378.530849 378.831251
58.420000 376.174848 376.894021 377.883821 377.802723 378.704233 379.037298
58.470000 376.500671 377.153305 378.146927 378.059487 378.892347 379.209012
58.520000 376.751850 377.417588 378.471484 378.314997 379.089821 379.380487
58.570000 377.061057 377.696741 378.730318 378.562455 379.281081 379.574628
58.620000 377.260817 377.939574 379.000850 378.802950 379.480762 379.765456
58.670000 377.505248 378.208251 379.244969 379.035980 379.695701 379.960607
58.720000 377.740870 378.501856 379.462106 379.263599 379.885131 380.134705
58.770000 377.974660 378.798739 379.676651 379.492559 380.065570 380.320581
58.870000 378.444487 379.390513 380.081059 379.927325 380.402591 380.707036
58.920000 378.716314 379.683699 380.281711 380.149640 380.573612 380.894643
58.970000 378.981477 379.955065 380.480054 380.366527 380.761187 381.082603
59.020000 379.217197 380.207811 380.679780 380.577195 380.950878 381.226252
59.070000 379.515490 380.465288 380.876871 380.792514 381.144487 381.480582
59.120000 379.736705 380.694921 381.059598 380.996123 381.343693 381.695413
59.170000 379.983003 380.922686 381.244962 381.201179 381.556120 381.911040
59.220000 380.180615 381.113143 381.437688 381.403536 381.767658 382.143143
59.270000 380.375509 381.313658 381.637293 381.607894 381.965759 382.348971
59.320000 380.640776 381.500942 381.821373 381.808394 382.177691 382.596635
59.420000 381.077124 381.862028 382.178734 382.188244 382.577591 383.055914
59.520000 381.556739 382.209993 382.550719 382.591133 383.024375 383.626361
59.570000 381.826227 382.393866 382.758481 382.806966 383.273311 383.891433
59.620000 382.063877 382.599392 382.983472 383.043785 383.512639 384.248400
59.720000 382.551728 382.970696 383.434379 383.521794 384.038561 385.088872
59.770000 382.741068 383.222349 383.691291 383.775719 384.318335 385.351681
59.820000 382.892536 383.464763 383.947287 384.042679 384.591346 385.726594
59.920000 383.340045 383.898132 384.459041 384.578555 385.229030 386.479826
60.020000 383.782605 384.359311 384.962231 385.103752 385.830548 387.394493
60.070000 384.005922 384.587060 385.198319 385.358199 386.153921 387.714063
60.120000 384.159147 384.798913 385.430447 385.612188 386.462266 388.025936
60.170000 384.464482 385.052938 385.676995 385.867482 386.746632 388.249162
60.270000 384.851442 385.473330 386.132922 386.391263 387.415955 389.000359
60.370000 385.254169 385.875295 386.624121 386.927599 388.179433 389.837272
60.470000 385.706374 386.297182 387.130565 387.462898 388.799961 390.477157
60.520000 385.916189 386.507050 387.424271 387.733860 389.084208 390.776497
60.620000 386.326510 386.991768 388.057190 388.300481 389.745943 391.417275
60.670000 386.540785 387.246075 388.328633 388.580729 390.092914 391.636563
60.720000 386.806652 387.570514 388.620756 388.875416 390.391885 391.898431
60.820000 387.328520 388.263287 389.416079 389.566512 390.975205 392.410047
60.920000 387.904291 388.989254 390.155380 390.262634 391.612296 392.890650
61.020000 388.598597 389.747633 390.999182 391.047621 392.396302 393.595738
61.120000 389.306125 390.625909 391.823650 391.892466 393.218872 394.379194
61.220000 390.355565 391.702293 393.020053 392.985879 394.240158 395.419104
61.320000 391.746735 392.907912 394.124974 394.130366 395.302690 396.567617
61.420000 393.129991 394.277884 395.219561 395.295342 396.387299 397.404209
61.520000 394.649147 395.486356 396.571621 396.598661 397.649087 398.826451
61.620000 396.536903 397.562949 398.412278 398.426431 399.309578 400.085961
61.670000 397.164538 398.052866 398.888568 398.888819 399.721905 400.501561
61.720000 397.705672 398.513478 399.345269 399.338233 400.145015 400.846491
61.770000 398.130825 398.963707 399.788106 399.762435 400.530724 401.330142
61.820000 398.514256 399.374329 400.200819 400.161416 400.963284 401.731101
61.920000 399.322977 400.135338 400.968131 400.962735 401.753454 402.464215
62.020000 400.109324 400.915412 401.721852 401.672559 402.441054 403.024423
62.120000 400.709430 401.490677 402.341427 402.270293 402.945859 403.601414
62.220000 401.240955 402.079208 402.880306 402.809813 403.464005 404.093317
62.270000 401.531602 402.337961 403.143496 403.068153 403.722414 404.327951
62.320000 401.750516 402.608215 403.362369 403.312392 403.974823 404.666422
62.370000 401.943539 402.904817 403.600921 403.546142 404.186579 404.891831
62.420000 402.135839 403.144273 403.837965 403.777257 404.401559 405.182012
62.470000 402.299465 403.362116 404.059184 404.012175 404.654486 405.428358
62.520000 402.504135 403.565542 404.299108 404.244304 404.901312 405.666575
62.595000 402.865108 403.848349 404.640603 404.602254 405.316633 406.214937
62.670000 403.149038 404.152067 404.990014 404.973467 405.749028 406.736618
62.770000 403.533711 404.612486 405.458852 405.481423 406.365214 407.642108
62.820000 403.702594 404.841790 405.733593 405.759276 406.660290 407.965177
62.920000 404.242605 405.394663 406.362842 406.463730 407.578091 408.971921
63.065000 405.066029 406.381457 407.776214 407.910076 409.496749 411.315885
63.210000 406.038369 407.560240 409.364291 409.435586 411.290278 413.321249
63.355000 407.244381 409.090167 411.006373 411.086510 413.176079 415.031702
63.500000 408.839417 410.625360 412.627908 412.679076 414.673831 416.918653
63.645000 410.405537 412.175478 414.272712 414.274747 416.429510 418.372098
63.790000 411.853887 413.664332 415.799367 415.827488 417.930220 420.064637
63.935000 413.207519 415.249949 417.355388 417.360602 419.496956 421.336150
64.080000 415.026781 416.884433 418.948539 418.912003 420.913107 422.531863
64.225000 416.815824 418.639838 420.549065 420.447220 422.217457 423.527643
64.370000 418.567470 420.455576 422.041301 421.926407 423.486507 424.544802
64.445000 419.462219 420.938616 422.644993 422.520251 424.016617 425.053224
64.520000 419.924588 421.550133 423.276482 423.090154 424.501832 425.520547
64.640000 421.183600 422.727035 424.310010 424.137811 425.504619 426.442376
64.760000 422.366110 423.741846 425.307903 425.116428 426.434575 427.110992
64.880000 423.674856 425.026585 426.300810 426.128505 427.209068 427.722699
65.000000 425.169076 426.321135 427.224830 427.071240 427.820704 428.227605
65.120000 426.792165 427.455502 427.996415 427.919994 428.381820 428.716238
65.195000 427.318159 427.869673 428.349552 428.286593 428.686763 429.008319
65.270000 427.715908 428.251801 428.652462 428.607489 428.967181 429.253285
65.395000 428.188016 428.718032 429.063000 429.022793 429.335292 429.609156
65.520000 428.675394 429.180413 429.460720 429.432043 429.701029 429.943057
65.620000 428.960921 429.492110 429.776560 429.738048 429.995707 430.218071
65.670000 429.080354 429.668778 429.938480 429.897927 430.150185 430.359256
65.745000 429.314830 429.901277 430.151524 430.118923 430.360284 430.563712
65.820000 429.542867 430.149621 430.376695 430.344259 430.579471 430.768581
65.870000 429.712174 430.306849 430.523885 430.494937 430.722618 430.888941
65.970000 429.922673 430.590632 430.800389 430.770256 430.985803 431.156115
