depth(m) lower_95(kyr) lower_68(kyr) median(kyr) mean(kyr) upper_68(kyr) upper_95(kyr)
0.560000 2.928766 3.624957 4.459780 4.441766 5.195918 5.887615
0.660000 3.366796 4.201836 5.033821 5.021813 5.838957 6.601862
0.760000 3.951244 4.798470 5.625469 5.628665 6.455845 7.301010
0.860000 4.459258 5.420173 6.235267 6.236215 7.078823 7.876062
0.910000 4.837887 5.752829 6.565382 6.565605 7.412988 8.156863
0.960000 5.107083 6.068394 6.944303 6.916390 7.795952 8.473343
1.010000 5.573791 6.451530 7.318090 7.292110 8.176335 8.824123
1.060000 5.892947 6.786308 7.688370 7.651766 8.492618 9.125603
1.110000 6.296391 7.255405 8.147909 8.066306 8.887695 9.493094
1.160000 6.768968 7.744367 8.574824 8.529306 9.339651 10.026094
1.240000 7.716659 8.621961 9.500844 9.470118 10.309870 11.056671
1.320000 9.107515 9.771383 10.404960 10.429341 11.095007 11.852452
1.370000 9.642070 10.237227 10.864205 10.899142 11.568716 12.254546
1.410000 10.091915 10.579663 11.214038 11.255416 11.886585 12.612572
1.490000 10.813773 11.444418 12.161051 12.163047 12.885411 13.467802
1.570000 11.798429 12.405624 13.098287 13.059539 13.673017 14.272285
1.610000 12.153694 12.691301 13.409469 13.366295 13.967697 14.528196
1.660000 12.529373 13.045655 13.736963 13.687385 14.249663 14.740985
1.710000 12.874922 13.439777 14.034766 14.008311 14.541049 15.019196
1.820000 13.683107 14.157709 14.664324 14.642612 15.106774 15.563864
1.860000 13.964355 14.419880 14.921324 14.887002 15.355033 15.802437
1.910000 14.224265 14.722407 15.206931 15.193453 15.671545 16.073527
1.985000 14.699746 15.184419 15.636623 15.647831 16.124295 16.575835
2.060000 15.172973 15.629277 16.102307 16.091105 16.547914 17.070649
2.110000 15.479053 15.906251 16.400339 16.377675 16.834281 17.298664
2.160000 15.745844 16.182081 16.642847 16.643672 17.101730 17.544862
2.240000 16.134137 16.571357 17.029747 17.038337 17.524128 17.897258
2.320000 16.488384 16.943450 17.438996 17.422625 17.901983 18.269478
2.360000 16.753816 17.123054 17.624133 17.606846 18.074867 18.405378
2.410000 16.966593 17.335003 17.838036 17.815126 18.278802 18.607203
2.460000 17.178442 17.535565 18.051788 18.019344 18.481662 18.837845
2.510000 17.366407 17.728944 18.262826 18.222670 18.680362 19.065502
2.610000 17.677645 18.064300 18.627282 18.568770 19.017867 19.393392
2.660000 17.861467 18.240102 18.793041 18.752303 19.207345 19.569432
2.740000 18.143411 18.511778 19.092459 19.030281 19.473857 19.884031
2.820000 18.407380 18.757049 19.373431 19.300261 19.744852 20.191956
2.870000 18.588114 18.936124 19.549860 19.480399 19.934304 20.398426
2.910000 18.745514 19.087345 19.709636 19.634113 20.082547 20.572093
2.960000 18.914427 19.250778 19.889929 19.817836 20.268583 20.721355
3.010000 19.080762 19.440618 20.070052 19.995780 20.461955 20.898676
3.060000 19.274853 19.604280 20.245798 20.176848 20.647637 21.049652
3.110000 19.457419 19.784078 20.439524 20.359716 20.843391 21.224891
3.210000 19.764153 20.086065 20.773866 20.685913 21.164353 21.552273
3.320000 20.086816 20.436874 21.146853 21.039731 21.520789 21.941079
3.360000 20.250597 20.571702 21.285214 21.182797 21.670115 22.090998
3.410000 20.441021 20.752404 21.465133 21.363491 21.849198 22.305007
3.460000 20.612331 20.920208 21.645194 21.540956 22.016438 22.512865
3.510000 20.785638 21.084409 21.827307 21.723628 22.217005 22.690908
3.560000 20.939398 21.268767 22.010747 21.910946 22.409805 22.868446
3.610000 21.111018 21.439644 22.180984 22.088369 22.580161 23.128830
3.735000 21.454425 21.843429 22.577961 22.481121 22.978300 23.474392
3.860000 21.836810 22.204645 22.989052 22.874743 23.388662 23.860550
3.910000 22.019639 22.381279 23.168693 23.049746 23.556217 24.081716
3.960000 22.178710 22.544810 23.336950 23.232477 23.747738 24.339523
4.010000 22.367555 22.707055 23.513798 23.409164 23.918118 24.524505
4.060000 22.549729 22.904650 23.701143 23.593312 24.105827 24.737514
4.190000 22.959106 23.309624 24.089792 24.014769 24.566316 25.160825
4.320000 23.299845 23.737264 24.487393 24.430545 24.980958 25.654705
4.370000 23.504266 23.919871 24.654273 24.611414 25.165582 25.907782
4.410000 23.648104 24.069392 24.796206 24.762799 25.328462 26.115839
4.460000 23.824289 24.258785 24.960165 24.947560 25.545012 26.302445
4.570000 24.177176 24.634095 25.311652 25.326817 25.934752 26.755350
4.610000 24.296581 24.794852 25.455928 25.482344 26.105763 26.910865
4.660000 24.474475 25.006165 25.644965 25.680635 26.328589 27.136861
4.710000 24.666458 25.209584 25.816886 25.875588 26.534466 27.357029
4.820000 25.100041 25.638324 26.167943 26.277641 26.999510 27.833397
4.910000 25.363030 25.978503 26.492074 26.612318 27.384539 28.253309
4.950000 25.498808 26.126304 26.641963 26.772863 27.553298 28.416256
5.060000 25.923452 26.495584 27.001151 27.168544 27.994148 28.785322
5.160000 26.233704 26.858655 27.350830 27.540665 28.464333 29.216231
5.230000 26.477884 27.136041 27.606537 27.819676 28.821594 29.493525
5.320000 26.829426 27.458076 27.908409 28.173288 29.243788 29.898204
5.360000 26.986035 27.621243 28.061421 28.337640 29.403911 30.052426
5.410000 27.183125 27.810701 28.254574 28.541815 29.626519 30.274774
5.460000 27.322387 27.994615 28.426769 28.741061 29.850750 30.457343
5.563333 27.653127 28.344803 28.800498 29.124150 30.260560 30.860771
5.666667 28.033395 28.680189 29.160885 29.498431 30.667856 31.234583
5.770000 28.463762 29.034972 29.517674 29.879443 31.042766 31.614034
5.870000 28.808032 29.370884 29.921692 30.252002 31.439817 31.986917
5.920000 28.984521 29.555176 30.104108 30.456914 31.644436 32.201006
6.020000 29.308933 29.912658 30.485549 30.851331 32.055346 32.583751
6.070000 29.519302 30.095733 30.696932 31.058872 32.279224 32.816282
6.120000 29.742643 30.293258 30.876756 31.272184 32.512723 33.053079
6.170000 29.935386 30.482893 31.114377 31.484159 32.714110 33.259053
6.220000 30.120559 30.678221 31.374703 31.695118 32.936496 33.441789
6.270000 30.329795 30.861100 31.597600 31.906024 33.140609 33.621853
6.345000 30.626403 31.124454 31.903620 32.206016 33.427782 33.933678
6.420000 30.917191 31.397418 32.210028 32.494593 33.702438 34.264923
6.520000 31.240853 31.745623 32.639139 32.876015 34.058157 34.750876
6.570000 31.486578 31.936492 32.844202 33.082960 34.286061 34.948767
6.620000 31.661578 32.138363 33.097507 33.297989 34.493134 35.209052
6.670000 31.837189 32.330181 33.341252 33.508784 34.686721 35.464790
6.720000 32.016036 32.542014 33.591321 33.728771 34.902559 35.722026
6.795000 32.293642 32.853251 33.942150 34.054180 35.208851 36.161108
6.870000 32.551649 33.178154 34.369897 34.383679 35.541242 36.680679
6.920000 32.734910 33.377488 34.641572 34.600757 35.756660 36.887482
7.020000 33.074233 33.797047 35.091161 35.021278 36.166782 37.306780
7.070000 33.253006 34.014565 35.277697 35.241568 36.377275 37.537295
7.120000 33.440068 34.247085 35.535763 35.461531 36.599374 37.741813
7.170000 33.611199 34.471110 35.752500 35.687489 36.834209 37.996309
7.220000 33.835214 34.691828 35.973337 35.917283 37.067645 38.214503
7.270000 34.118233 34.902594 36.205765 36.142946 37.334667 38.511721
7.395000 34.577302 35.348925 36.698701 36.643648 37.870798 39.055236
7.520000 35.016263 35.814778 37.199238 37.135481 38.420438 39.633394
7.570000 35.229903 35.998714 37.409533 37.356053 38.670396 39.911601
7.670000 35.642951 36.346036 37.827738 37.788833 39.136706 40.466107
7.720000 35.853186 36.535362 38.023786 38.001549 39.405005 40.667998
7.795000 36.189688 36.795959 38.356495 38.325678 39.718271 41.024275
7.870000 36.506066 37.089534 38.689168 38.650405 40.132170 41.472204
7.970000 36.836191 37.455080 39.152749 39.090497 40.585266 42.078053
8.020000 36.995756 37.637696 39.401313 39.319082 40.831919 42.444340
8.070000 37.201941 37.834786 39.619398 39.550115 41.079732 42.750731
8.120000 37.448071 38.042824 39.862238 39.784526 41.340727 43.045509
8.170000 37.678823 38.254910 40.092904 40.023049 41.555557 43.379245
8.295000 38.136199 38.713539 40.639989 40.579241 42.207049 44.065244
8.420000 38.534683 39.159432 41.157054 41.149951 42.820297 45.060956
8.470000 38.708760 39.355115 41.396184 41.391942 43.077587 45.340281
8.520000 38.923038 39.573982 41.715412 41.651280 43.375722 45.618616
8.570000 39.120519 39.847124 41.967900 41.912167 43.666197 45.895352
8.620000 39.326132 40.064236 42.178443 42.173949 43.951508 46.078184
8.670000 39.537268 40.311436 42.458764 42.442410 44.241171 46.355859
8.720000 39.735530 40.522685 42.708356 42.707945 44.562598 46.575105
8.770000 39.977381 40.753127 43.013237 42.970106 44.891576 46.807380
8.895000 40.431981 41.324412 43.601235 43.647994 45.742796 47.460707
9.020000 40.898697 41.877513 44.113522 44.318257 46.587512 48.274245
9.070000 41.197811 42.094192 44.351861 44.595286 46.918753 48.622694
9.120000 41.370779 42.340027 44.594374 44.875694 47.225539 48.874726
9.170000 41.582121 42.578778 44.846385 45.147394 47.509430 49.136052
9.270000 42.098993 43.146730 45.391498 45.700965 48.187836 49.670273
9.370000 42.584867 43.758446 46.052221 46.274096 48.823233 50.614592
9.420000 42.828182 44.069103 46.343309 46.546155 49.120366 51.012057
9.470000 43.090131 44.334855 46.622460 46.823336 49.423656 51.322602
9.520000 43.405058 44.662753 46.890800 47.117831 49.758194 51.717841
9.620000 43.919608 45.216550 47.488647 47.677513 50.433362 52.515522
9.670000 44.143124 45.467059 47.733681 47.946105 50.756524 52.805997
9.720000 44.432303 45.723842 47.961092 48.233397 51.130377 53.143249
9.795000 44.793398 46.086095 48.391319 48.667885 51.604338 53.825683
9.870000 45.258499 46.446617 48.725825 49.094559 52.157806 54.573460
9.920000 45.493547 46.687061 49.010002 49.380768 52.496970 54.842192
9.970000 45.799096 46.885406 49.265081 49.677032 52.956704 55.191080
10.020000 46.056077 47.136332 49.492483 49.963435 53.312336 55.436985
10.070000 46.362690 47.385201 49.811096 50.271110 53.715471 55.792724
10.120000 46.655913 47.625775 50.113860 50.580435 53.998843 56.116244
10.220000 47.165281 48.171557 50.858357 51.276166 54.708769 56.935081
10.320000 47.669207 48.791223 51.735065 52.011787 55.400066 57.694663
10.370000 47.937599 49.107988 52.129018 52.356505 55.735485 58.057998
10.420000 48.207062 49.406286 52.642751 52.701661 55.994722 58.293400
10.470000 48.421353 49.780882 53.042799 53.046934 56.289159 58.637510
10.570000 49.068224 50.689811 54.259995 53.955494 56.971029 59.448860
10.670000 49.836611 51.732263 55.123970 54.926873 57.710563 60.226800
10.770000 50.540914 52.801454 56.026251 55.869734 58.582221 61.004139
10.845000 51.076983 53.462888 56.777410 56.524484 59.186981 61.478430
10.920000 51.726998 54.259278 57.421704 57.148824 59.728976 61.887690
10.970000 52.121809 54.709937 57.826247 57.538888 60.111792 62.108941
11.020000 52.642177 55.172456 58.220964 57.941560 60.459280 62.517822
11.100000 53.673456 55.995020 58.958770 58.692330 61.064347 63.099784
11.180000 54.686390 56.939031 59.866524 59.479943 61.698275 63.636824
11.305000 56.993728 59.107467 61.279902 61.031261 62.700789 64.372541
11.430000 59.784920 61.387683 62.616307 62.572569 63.796129 65.152686
11.480000 60.358757 61.910897 63.007450 62.975843 64.140036 65.444493
11.530000 60.757840 62.330617 63.379000 63.353332 64.487143 65.693441
11.580000 61.219476 62.690235 63.689519 63.698352 64.811858 65.947049
11.680000 62.132857 63.374370 64.286761 64.315358 65.413130 66.429813
11.730000 62.599007 63.674205 64.590291 64.614783 65.714822 66.666692
11.855000 63.277932 64.377762 65.259871 65.291357 66.372878 67.139855
11.980000 64.077073 65.044415 65.945305 65.965114 66.978063 67.799732
12.030000 64.372377 65.362560 66.226869 66.264033 67.278006 68.009560
12.130000 65.048800 65.897737 66.785922 66.815793 67.731990 68.455015
12.180000 65.349010 66.218055 67.095726 67.105398 68.029931 68.692969
12.280000 66.030628 66.791218 67.692660 67.660862 68.529516 69.125670
12.380000 66.537218 67.447223 68.285699 68.239276 69.083847 69.611754
12.430000 66.964606 67.728828 68.592055 68.570416 69.405042 69.927251
12.480000 67.279141 68.096822 68.928929 68.888074 69.689456 70.242045
12.530000 67.573648 68.426070 69.276167 69.215160 69.991345 70.489948
12.580000 67.934244 68.799577 69.629848 69.549721 70.269819 70.838716
12.630000 68.307041 69.177565 69.959320 69.881144 70.582644 71.095440
12.680000 68.687246 69.457368 70.297065 70.218135 70.942270 71.416368
12.730000 69.144494 69.863995 70.621246 70.577049 71.284950 71.769702
12.805000 69.708082 70.445613 71.149779 71.102194 71.774519 72.355033
12.880000 70.238734 70.956666 71.654520 71.613749 72.237358 72.830080
12.930000 70.703056 71.321195 72.012904 71.970395 72.558250 73.209604
12.980000 71.143975 71.678075 72.330795 72.322433 72.914251 73.542145
13.030000 71.423327 72.029947 72.680250 72.672744 73.265899 73.856474
13.080000 71.813462 72.386583 73.012678 73.014043 73.604820 74.350657
13.130000 72.149666 72.702892 73.313962 73.335046 73.945230 74.756242
13.180000 72.387508 73.018077 73.629496 73.659025 74.300464 75.137636
13.230000 72.671128 73.308657 73.951071 73.968636 74.598949 75.435334
13.280000 73.024341 73.615657 74.282780 74.279691 74.900100 75.758449
13.330000 73.308347 73.922865 74.597818 74.612242 75.255766 76.071730
13.380000 73.621784 74.251246 74.928862 74.938630 75.629985 76.345600
13.430000 73.834353 74.584539 75.246424 75.269076 75.966307 76.847640
13.480000 74.201329 74.901393 75.560134 75.596106 76.298604 77.157478
13.580000 74.845604 75.498116 76.251811 76.272467 77.011344 77.959681
13.630000 75.146350 75.809906 76.591736 76.630697 77.452846 78.365328
13.680000 75.450701 76.124425 76.980160 76.993207 77.810444 78.709062
13.730000 75.796342 76.506782 77.381229 77.380120 78.201352 79.062864
13.780000 76.164945 76.914505 77.766995 77.794827 78.651877 79.562310
13.855000 76.691212 77.509409 78.440059 78.466406 79.402534 80.412046
13.930000 77.314928 78.082714 79.126825 79.158582 80.155956 81.298093
13.980000 77.627387 78.530098 79.549098 79.587772 80.591092 81.789297
14.050000 78.165573 79.124582 80.162452 80.208907 81.256601 82.415145
14.150000 78.833920 79.873989 81.025315 81.084221 82.304648 83.805585
14.250000 79.542222 80.600222 81.810672 81.966829 83.340526 85.414965
14.375000 80.247024 81.439578 82.765228 83.251672 85.554841 88.359023
14.500000 80.999628 82.217734 83.557280 84.556029 88.644860 90.987065
14.550000 81.261168 82.528454 83.809800 84.927470 89.170228 91.378504
14.600000 81.675848 82.880007 84.175796 85.303607 89.717005 91.751233
14.650000 81.960969 83.215713 84.504245 85.680685 90.213031 92.076067
14.700000 82.449381 83.599504 84.856370 86.059886 90.630963 92.353914
14.750000 82.888268 84.086312 85.286583 86.483639 91.016548 92.597656
14.800000 83.353803 84.504732 85.792905 86.923133 91.351556 92.849777
14.850000 83.761547 85.070805 86.312244 87.405001 91.650443 93.094679
14.975000 85.670491 87.171625 89.292686 89.509751 92.281108 93.602065
15.100000 88.238164 90.342472 91.826155 91.705392 93.140081 94.179793
15.150000 88.674168 90.946529 92.301546 92.154952 93.476353 94.416671
15.250000 90.873644 92.109071 93.186104 93.079397 94.048051 94.858103
15.300000 91.440449 92.584658 93.553312 93.472683 94.318450 95.138368
15.350000 91.943895 92.945228 93.894243 93.817676 94.629313 95.414700
15.400000 92.393610 93.322155 94.210219 94.151281 94.923870 95.711037
15.450000 92.830213 93.710315 94.493573 94.471902 95.191881 96.088519
15.550000 93.615221 94.408004 95.109601 95.093578 95.734692 96.723522
15.600000 93.952961 94.751789 95.423254 95.419500 96.035755 97.048938
15.650000 94.281620 95.053882 95.715918 95.726456 96.331351 97.337695
15.700000 94.542191 95.355269 96.011477 96.020194 96.654354 97.608091
15.750000 94.819750 95.695846 96.294133 96.313366 96.955173 97.919620
15.800000 95.172584 95.972977 96.563821 96.610824 97.260668 98.158871
15.875000 95.614902 96.389693 96.975837 97.032161 97.712127 98.574610
15.950000 96.109600 96.784014 97.367420 97.451651 98.182235 98.964904
16.000000 96.447064 97.070682 97.655390 97.730862 98.478079 99.247265
16.050000 96.647028 97.328661 97.920342 98.002506 98.740520 99.570176
16.100000 96.968278 97.574582 98.199575 98.277713 99.004201 99.938778
16.150000 97.235190 97.852397 98.493918 98.557106 99.293256 100.236295
16.200000 97.507088 98.110661 98.779970 98.849895 99.584934 100.530176
16.250000 97.729902 98.357228 99.082321 99.129358 99.874383 100.857858
16.300000 98.017871 98.642665 99.384451 99.437505 100.219847 101.163851
16.350000 98.280466 98.908538 99.727039 99.733604 100.486948 101.518999
16.400000 98.534467 99.204618 100.024308 100.032788 100.777502 101.798403
16.500000 99.004946 99.773674 100.600818 100.610361 101.411407 102.409831
16.550000 99.217787 100.060298 100.892073 100.903488 101.722138 102.645389
16.600000 99.454890 100.368039 101.233785 101.205705 101.999933 102.943889
16.700000 99.912404 100.884941 101.783396 101.738238 102.550007 103.526007
16.750000 100.120372 101.181519 102.062843 102.033345 102.881686 103.818439
16.800000 100.462242 101.494722 102.374943 102.333728 103.166951 104.162094
16.850000 100.829570 101.800026 102.686836 102.650973 103.479020 104.455132
16.900000 101.101540 102.062420 103.025407 102.949937 103.770036 104.863262
16.950000 101.353058 102.322340 103.307553 103.247819 104.070851 105.124449
17.050000 101.931460 102.892464 103.877703 103.833638 104.666028 105.937090
17.100000 102.208485 103.150697 104.178674 104.142153 104.972013 106.344735
17.150000 102.520595 103.473666 104.455529 104.461139 105.377077 106.726453
17.200000 102.774602 103.795842 104.760751 104.784516 105.759791 107.188736
17.250000 103.033270 104.118463 105.081012 105.128097 106.130034 107.542099
17.300000 103.337463 104.475202 105.405700 105.471728 106.543274 107.853410
17.350000 103.758187 104.784981 105.773404 105.840685 106.895536 108.249160
17.450000 104.293895 105.352431 106.510258 106.618936 107.869754 109.248765
17.525000 104.781987 106.010037 107.152256 107.273737 108.643967 109.760254
17.600000 105.264895 106.524308 107.842399 107.875674 109.325351 110.271045
17.650000 105.680383 106.876954 108.269683 108.271866 109.739266 110.660737
17.700000 106.055958 107.280267 108.701386 108.673439 110.139653 110.955549
17.750000 106.436690 107.661308 109.117824 109.056914 110.456530 111.332728
17.800000 106.885299 108.095945 109.520968 109.453401 110.796479 111.700916
17.900000 107.903862 109.064856 110.481258 110.323617 111.479643 112.267206
17.950000 108.220622 109.564223 110.893905 110.732576 111.824360 112.524544
18.050000 109.339761 110.738499 111.708054 111.597878 112.467558 113.213925
18.100000 109.857656 111.142291 112.058356 111.971533 112.797385 113.498317
18.150000 110.228428 111.584765 112.420144 112.340507 113.138286 113.776003
18.200000 110.856894 111.968646 112.763087 112.710693 113.468275 114.075721
18.250000 111.330943 112.364949 113.147457 113.084345 113.851280 114.365375
18.300000 111.734813 112.771839 113.523508 113.462667 114.163681 114.698022
18.350000 112.198598 113.216493 113.942914 113.863070 114.523001 115.175138
18.400000 112.740842 113.657205 114.393663 114.329599 114.995471 115.643250
18.450000 113.112703 114.150924 114.867903 114.837106 115.551013 116.175130
18.500000 113.549135 114.583076 115.408676 115.372507 116.154215 116.910522
18.610000 114.584872 115.541084 116.487475 116.522481 117.490340 118.721272
18.720000 115.495355 116.561154 117.674472 117.641548 118.783283 119.744379
18.830000 116.564496 117.687959 118.727042 118.730711 119.817706 120.604010
18.930000 117.551316 118.620756 119.724035 119.642829 120.680864 121.271593
19.030000 118.559608 119.676341 120.571168 120.516978 121.392000 121.965639
19.130000 119.760483 120.653565 121.397134 121.331454 122.043164 122.563280
19.230000 120.364309 121.396288 122.025630 121.968066 122.558554 123.082355
19.280000 120.742196 121.704389 122.315421 122.261553 122.843654 123.283411
19.330000 121.080366 122.012378 122.617277 122.535086 123.086293 123.510413
19.430000 121.701263 122.487497 123.065832 123.011013 123.507619 123.934969
19.505000 122.120801 122.882242 123.417789 123.366626 123.863442 124.246146
