depth(m) lower_95(kyr) lower_68(kyr) median(kyr) mean(kyr) upper_68(kyr) upper_95(kyr)
0.790000 11.402461 12.187022 13.082882 13.073783 13.975214 14.721040
0.900000 12.979392 13.882736 14.837535 14.881378 15.853860 17.087619
1.010000 14.465114 15.441939 16.467654 16.482878 17.462933 18.920764
1.125000 15.766713 16.701353 17.784753 17.846530 18.974913 20.307838
1.240000 17.159387 17.991690 19.104048 19.164848 20.311652 21.796602
1.385000 18.505203 19.516793 20.695520 20.781235 22.001662 23.688596
1.530000 20.020286 21.058972 22.305862 22.418283 23.755107 25.530235
1.630000 21.176526 22.144424 23.464201 23.597066 24.957864 26.859846
1.730000 22.206827 23.336920 24.616078 24.813460 26.229982 28.501993
1.830000 23.317365 24.465055 25.826743 26.023708 27.522945 30.071933
1.930000 24.306240 25.548545 27.023873 27.262092 28.798980 31.869302
2.030000 25.358013 26.769107 28.259104 28.551259 30.193446 34.116406
2.115000 26.455570 27.812023 29.399504 29.769588 31.449919 36.201134
2.200000 27.514271 28.851588 30.586831 31.050781 33.038508 38.064578
2.290000 28.610428 30.069797 31.975746 32.490195 34.758502 39.672226
2.380000 29.777648 31.356993 33.418274 33.979292 36.620348 41.327085
2.490000 31.103529 32.881002 35.304574 36.028058 39.421103 44.528358
2.600000 32.847168 34.696365 37.370414 38.135275 41.808700 47.279179
2.715000 34.161009 36.576676 39.632568 40.365807 44.498340 49.598775
2.830000 35.889968 38.380160 42.120147 42.766081 47.387076 52.383701
2.925000 37.113218 40.075323 44.526688 44.901680 49.661773 54.776422
3.020000 38.971532 41.856235 46.805039 46.982225 52.367599 56.440174
3.160000 42.114678 45.707301 50.266333 50.627671 55.941227 58.843562
3.300000 45.851060 50.619122 54.822376 54.628237 58.917038 61.063648
3.440000 50.686965 55.047224 59.312580 58.640774 61.939986 63.624694
3.570000 55.027679 60.677704 63.275182 62.802848 65.132672 66.788789
3.690000 60.112546 64.340109 66.291583 66.033825 67.997136 69.723679
3.810000 64.035893 67.622183 69.483237 69.335397 71.232894 73.384238
3.910000 68.187633 70.228519 72.255171 72.352089 74.603262 76.699906
4.010000 71.262849 73.182145 75.159006 75.241814 77.324407 79.492020
4.130000 73.863073 75.869564 78.028371 78.013756 80.135760 82.594136
4.220000 76.269871 78.014912 80.131116 80.180722 82.396759 84.438512
4.320000 78.582424 80.817933 82.765471 82.723725 84.539715 86.644894
4.420000 81.009373 83.827572 85.477086 85.439894 87.214505 89.044251
4.520000 84.431949 86.250769 87.866760 87.899596 89.616648 91.401223
4.640000 86.997303 88.801864 90.670890 90.605814 92.278462 94.584222
4.760000 89.659978 91.492736 93.246832 93.303670 95.074397 97.647356
4.880000 92.383008 94.402162 96.165996 96.423672 98.544335 101.611798
5.000000 95.496341 97.247393 99.308556 99.620138 102.115952 104.931780
5.095000 97.397364 99.636374 102.300201 102.412728 105.343952 107.749098
5.190000 99.812271 102.422952 105.289082 105.309792 108.249759 110.152607
5.280000 101.943927 104.867389 107.903174 107.732615 110.491959 111.972707
5.370000 105.003302 107.749984 110.479537 110.222270 112.669731 113.857203
5.490000 109.260204 112.202489 113.948404 113.703122 115.321088 116.537357
5.600000 113.873583 115.429037 116.746104 116.805809 118.142404 120.321053
5.690000 117.535682 118.787462 120.573737 120.947511 123.134430 126.351668
5.780000 120.528832 122.726142 125.487453 125.257343 127.607770 128.967126
5.860000 126.029430 128.236915 129.699227 129.538459 130.955637 131.952205
5.935000 128.499180 130.317740 131.780850 131.711044 133.110785 134.564919
6.010000 130.726540 132.096581 133.441518 133.532006 134.818619 136.726123
6.113333 132.379594 133.812942 135.259402 135.485656 136.987778 140.125923
6.216667 134.238689 135.660555 137.040140 137.397996 138.911381 143.430756
6.320000 136.119271 137.495664 138.939341 139.379017 140.864693 147.155537
6.405000 137.539066 138.938497 140.488315 141.027112 142.564475 151.061171
6.490000 139.066214 140.464997 142.042070 142.675218 144.275164 153.189578
6.560000 140.443843 141.847558 143.452253 144.266454 146.163696 155.873327
6.620000 141.764822 143.200713 144.948035 145.932545 148.188798 157.695202
6.670000 143.041312 144.504527 146.429296 147.576754 150.543110 158.745996
6.750000 144.887611 146.895330 150.082376 150.990283 155.130732 161.578003
6.850000 147.313163 150.350350 155.395840 155.536323 160.505309 165.360149
6.950000 149.741688 155.227206 160.987802 160.508471 165.432673 169.427062
7.040000 152.163391 160.631560 165.346062 164.871624 169.522647 172.499953
7.140000 157.750536 165.174996 169.431883 168.918908 172.873465 175.813176
7.230000 162.859562 168.361750 172.713586 172.020744 175.538370 178.030994
7.310000 165.638829 170.923822 175.119263 174.487034 177.890515 180.096455
7.380000 167.922608 173.054957 177.307900 176.505606 179.784777 181.708241
7.460000 170.277704 175.642760 179.259416 178.609647 181.621949 183.453470
7.540000 172.693733 178.054063 181.255401 180.680365 183.438056 185.238889
7.610000 174.663950 180.161448 182.944544 182.426143 184.937393 186.909673
7.690000 176.656870 182.109334 184.943790 184.387743 186.839698 188.684074
7.770000 179.323146 184.054926 186.892798 186.384045 188.681085 190.372265
7.890000 183.757074 187.182326 189.769061 189.548247 191.795748 194.319809
8.010000 188.194649 190.368282 192.623056 192.798185 195.234051 197.848292
8.125000 191.517408 193.542216 195.916821 196.413522 199.428950 203.827806
8.240000 195.189960 196.885045 199.530163 200.209738 203.788461 207.498436
8.300000 196.667812 198.911177 201.877967 202.317230 205.908748 209.096695
8.350000 197.925294 200.495059 203.941574 204.061939 207.702317 210.334705
8.400000 199.447882 202.355742 205.775108 205.760232 209.211450 211.933390
8.450000 200.962889 204.198796 207.575164 207.489770 210.744378 213.197634
8.500000 202.503799 206.109355 209.411657 209.238951 212.163923 215.067189
8.550000 204.666580 207.917160 211.229772 210.959223 213.734305 216.295119
8.610000 207.286459 210.312249 213.364609 213.146647 215.993113 218.109236
8.700000 211.736234 214.375441 217.107513 216.850912 219.124121 220.569540
8.750000 214.823946 217.446976 219.727879 219.456212 221.236914 223.146396
8.800000 220.631374 222.060246 223.727322 223.814660 225.663805 227.492978
8.850000 222.736396 224.511485 226.487148 226.516395 228.579845 230.477704
8.900000 224.771761 227.076388 229.344064 229.126267 231.081124 232.732284
8.950000 227.346181 229.591458 231.533173 231.407242 233.133406 234.906852
9.000000 231.496471 233.310021 234.823039 234.901277 236.417219 238.915559
9.050000 234.143943 235.822788 237.498441 237.689458 239.723293 241.808617
9.100000 235.764419 237.836437 240.229238 240.101556 242.329085 243.505695
9.150000 237.329034 240.084841 243.077780 242.481548 244.455336 245.842877
9.235000 240.317221 243.304706 245.465717 245.228073 247.015849 248.628276
9.320000 244.696030 246.038906 247.579112 247.625277 249.187204 250.771513
9.400000 246.249961 247.726290 249.162153 249.332236 250.912034 253.205265
9.480000 247.788369 249.318530 250.756196 250.869276 252.434870 254.590783
9.620000 249.950016 251.516679 253.125472 253.198556 254.836601 256.618801
9.700000 251.310151 252.902184 254.553337 254.638473 256.386894 258.405602
9.780000 252.779507 254.249262 255.959171 256.072983 257.777738 260.129696
9.920000 254.836423 256.487240 258.308334 258.471530 260.488498 263.074010
10.000000 256.275351 257.928170 259.754930 259.934966 262.064525 264.694817
10.080000 257.585509 259.303293 261.194292 261.399249 263.541976 266.037988
10.220000 259.431841 261.534200 263.713504 263.803589 266.085196 268.507611
10.300000 260.852450 262.925354 265.220913 265.293845 267.657717 269.912499
10.380000 262.201269 264.351697 266.774352 266.816753 269.107840 271.409343
10.455000 263.432266 265.824495 268.302439 268.252138 270.531503 272.729817
10.530000 264.779608 267.329084 269.766201 269.681364 271.891156 274.009480
10.590000 265.890082 268.451239 270.969694 270.822596 272.949339 274.894654
10.675000 267.596434 269.925499 272.428107 272.306656 274.304664 275.929556
10.760000 269.252746 271.424708 273.865460 273.746069 275.584780 277.288266
10.890000 271.488547 273.602951 275.863655 275.732737 277.399042 279.173723
10.965000 272.702097 274.890922 277.054294 276.939690 278.517253 280.270256
11.040000 274.366457 276.250767 278.291292 278.200099 279.641111 281.195613
11.115000 275.934736 277.835892 279.579359 279.580509 280.906851 282.644333
11.190000 277.673331 279.311953 280.885384 280.961670 282.251934 283.880783
11.265000 279.205435 280.750571 282.244399 282.348685 283.634356 285.217958
11.340000 280.678137 282.188836 283.558536 283.753470 285.104932 286.894364
11.415000 282.095868 283.585076 284.951481 285.135617 286.556467 288.242604
11.490000 283.471268 284.942471 286.331033 286.539266 288.020406 289.559668
11.565000 284.882956 286.449025 287.786145 288.002114 289.397028 291.161138
11.640000 286.340873 287.935307 289.265423 289.532510 290.945879 293.544344
11.715000 287.867422 289.285244 290.866418 291.172223 292.817771 296.056215
11.790000 289.535223 290.749466 292.388173 292.805713 294.667909 298.630447
11.900000 291.421672 292.842693 294.815888 295.242414 297.386040 302.650873
12.010000 293.481290 295.296300 297.566195 297.860562 300.010036 305.708007
12.090000 295.233357 297.326360 299.768666 300.065161 302.516184 307.659239
12.175000 297.539708 299.868606 302.485372 302.980923 306.399887 310.098705
12.260000 300.467727 302.802943 305.834086 306.068757 309.454058 313.360052
12.390000 304.496015 307.430348 310.731115 310.833890 314.264847 317.882287
12.465000 307.437267 310.523065 313.592882 313.743708 317.266265 320.142721
12.540000 310.830692 313.619648 316.536685 316.656956 319.841774 322.102846
12.615000 313.584595 316.468608 319.369627 319.201791 321.883200 323.890495
12.690000 315.895706 319.505523 321.958782 321.622398 323.710538 325.637582
12.765000 319.236679 322.282408 323.989748 323.945495 325.880119 327.311915
12.840000 322.648343 324.486690 325.999447 325.993495 327.563918 329.107249
12.915000 324.618295 326.056769 327.527639 327.515708 329.036402 330.270433
12.990000 326.019586 327.443884 328.943402 328.887242 330.395901 331.569172
13.065000 327.102742 328.642260 330.204523 330.142205 331.648139 332.699611
13.140000 328.505207 329.836840 331.445876 331.360540 332.796632 333.867311
13.215000 329.707710 331.266332 332.702835 332.602178 333.945009 334.940694
13.290000 331.100531 332.596164 333.909077 333.863255 335.103034 336.180430
13.400000 333.168414 334.399875 335.676900 335.739704 336.997447 338.422009
13.510000 335.126755 336.393841 337.667455 337.790685 339.119047 340.977920
13.590000 337.688932 339.089407 340.892842 341.291496 343.654910 346.533072
13.675000 339.247126 341.351700 344.497219 344.496071 347.478033 350.631857
13.760000 340.575332 344.449243 347.633419 347.414118 350.373110 352.979659
13.890000 343.587651 347.745677 351.281251 351.002614 354.083719 357.767713
13.965000 345.122504 349.169711 353.215155 352.782573 356.135773 359.747625
14.040000 346.731514 350.421378 354.873547 354.416652 357.901642 361.225991
14.115000 348.730572 351.759068 356.646242 356.110630 359.774042 362.634080
14.190000 350.178538 353.070323 358.338670 357.743916 361.767999 364.431905
14.265000 351.464766 354.453561 359.740672 359.238252 363.572808 366.057863
14.340000 352.756678 355.806740 361.068575 360.666983 365.120346 367.338819
14.415000 353.973143 357.057331 362.395283 361.966245 366.488490 368.554164
14.490000 355.410615 358.287104 363.660209 363.224172 367.921306 369.913804
14.593500 357.286246 359.919146 365.284613 364.907391 369.591607 371.435108
14.697000 359.274955 361.602407 367.005359 366.640990 371.193741 372.918538
14.710000 359.525700 361.900007 367.248578 366.887466 371.413779 373.171697
14.790000 360.957626 363.417243 368.603794 368.298628 372.664095 374.435549
14.870000 362.532378 365.042465 369.974744 369.692293 373.880434 375.648653
15.010000 364.896268 367.687017 372.402814 372.010135 375.946729 377.698067
15.090000 366.244308 369.491355 373.930074 373.509820 377.190607 379.093509
15.175000 367.614913 371.398221 375.491152 375.098361 378.663022 380.589289
15.260000 369.928652 373.321055 377.117086 376.771400 380.106821 382.070747
15.390000 373.094914 376.361002 379.925149 379.484559 382.245043 384.539885
15.465000 375.399260 378.256167 381.595993 381.299375 384.047944 386.211727
15.540000 377.762529 380.442339 383.455444 383.172537 385.828936 387.758157
15.615000 379.577878 382.199538 385.120458 384.945882 387.577227 389.344563
15.690000 381.653836 384.217222 386.914239 386.769727 389.113941 390.801949
15.765000 383.308544 386.084486 388.742983 388.428632 390.734401 392.207306
15.840000 385.452839 387.922633 390.465829 390.066289 392.110462 393.455253
15.915000 387.175648 389.656536 391.926742 391.599077 393.410261 394.601793
15.990000 388.972598 391.571065 393.371958 393.113146 394.646829 395.854971
16.065000 391.624095 393.325715 394.812577 394.674077 396.042729 397.172419
16.140000 393.780479 395.088414 396.233881 396.225188 397.363940 398.485255
16.210000 395.428714 396.607783 397.750849 397.770077 398.857152 400.156715
16.290000 397.104399 398.177526 399.285717 399.408987 400.573786 402.053605
16.400000 398.973083 400.112785 401.298562 401.460939 402.861118 404.808473
16.510000 400.913062 401.980870 403.262930 403.466388 404.975049 407.285697
16.590000 402.256940 403.399085 404.785684 404.978319 406.542338 408.634903
16.675000 403.820668 404.982778 406.646792 406.721322 408.406668 410.394115
16.760000 405.283525 406.775042 408.538827 408.517165 410.201402 411.967448
16.890000 408.022034 409.723186 411.597971 411.535629 413.257025 415.132895
16.965000 409.532889 411.646632 413.521726 413.506597 415.384021 417.433755
17.040000 411.707139 413.587439 415.323907 415.368248 417.227670 418.969889
17.115000 413.432677 415.133106 416.922768 416.901712 418.747984 420.363102
17.190000 414.836933 416.617251 418.311285 418.342611 420.110571 421.602858
17.265000 416.456594 418.165636 419.885160 419.840452 421.550634 423.022475
17.340000 418.085209 419.870272 421.628950 421.499119 423.145194 424.244557
17.410000 420.134014 421.865431 423.724938 423.534831 425.043906 426.157163
17.490000 424.866806 426.474863 428.314845 428.484121 430.164461 434.262397
17.565000 426.483230 428.151029 431.138220 431.554172 435.129660 438.387618
17.640000 427.983449 429.507587 434.271993 434.242019 438.366372 440.965114
17.710000 429.233940 431.217514 437.040467 436.317200 440.318737 442.522068
17.790000 430.742570 434.081785 438.981382 438.334605 441.901186 443.960550
17.890000 432.659028 437.294464 441.467229 440.813971 444.020769 446.041031
17.990000 436.583073 440.500706 443.748577 443.331841 446.089405 448.624047
18.090000 440.161681 443.491455 445.914194 445.776134 448.146764 450.755255
18.175000 442.697864 445.294396 447.705427 447.665983 450.042505 452.396790
18.260000 444.893165 447.208693 449.368047 449.439029 451.666219 454.055373
18.390000 447.212603 449.591522 452.086816 451.909230 454.112718 456.209550
18.465000 448.385516 451.218431 453.615471 453.422591 455.741738 457.905679
18.540000 449.741028 452.643516 455.081948 454.906211 457.251907 459.268412
18.615000 451.152480 453.996624 456.480115 456.355628 458.601364 460.586215
18.690000 453.027872 455.570834 457.987343 457.836113 459.961079 461.965517
18.765000 454.477632 457.098640 459.567809 459.385783 461.557779 463.613817
18.840000 456.019025 458.543497 461.101302 460.952635 463.146723 465.501039
18.940000 458.186739 460.720113 463.053720 463.255935 465.176369 471.188430
19.040000 460.435920 462.903501 465.046088 465.623492 467.390190 475.591900
19.140000 462.718861 465.118822 467.112584 468.037756 469.226616 481.130752
19.220000 464.443068 466.717299 468.614797 469.921691 470.818660 487.839548
19.350000 466.045464 468.819389 470.799190 473.328087 473.071079 506.781961
19.425000 467.427145 470.144216 472.113648 474.813082 474.438081 509.317011
19.500000 468.768454 471.489985 473.430617 476.263814 475.586780 511.048422
19.630000 470.947060 473.805934 475.677412 478.756116 478.094916 514.080237
19.650000 471.438043 474.187895 476.246330 479.241319 478.587773 514.543899
19.725000 473.455730 476.152235 478.364029 481.391070 481.035868 516.324130
19.800000 475.848108 478.255575 480.665672 483.748865 483.995639 518.176566
19.875000 477.982488 480.540562 483.350020 486.563030 488.345124 519.769047
19.950000 480.618815 483.323296 486.514577 489.631574 492.721958 521.520212
20.025000 482.968241 486.241643 489.810331 492.772629 496.352671 523.294701
20.100000 485.921784 489.395686 493.415425 495.975370 499.921334 524.521795
20.175000 489.241292 492.624203 497.892241 499.978170 503.913124 525.840376
20.250000 493.227196 497.522086 502.494091 504.152134 508.208509 527.450823
20.360000 500.564561 506.375884 513.712192 514.327679 522.169775 530.155797
20.470000 510.521074 520.838712 524.817498 524.586952 529.471793 532.922891
20.550000 518.553661 526.352629 530.542390 529.662963 533.663306 535.514462
20.620000 524.472404 531.502790 535.129832 534.133912 537.088989 539.459460
20.720000 534.068688 537.924581 539.836141 539.896190 543.291883 546.943110
20.850000 538.341486 541.770600 545.066951 544.763759 548.677637 551.403413
20.925000 540.665825 544.183480 547.968001 547.337080 551.145812 553.619235
21.000000 542.732962 547.110330 550.749760 549.881827 553.475601 555.509583
21.075000 544.742019 549.755616 553.213278 552.342288 555.625625 558.152187
21.150000 547.384990 552.287496 555.566129 554.719734 557.865831 560.343611
21.225000 549.466775 554.344226 557.643140 556.886158 560.227488 563.076288
21.300000 552.194087 556.543804 559.616151 559.033849 562.349995 567.011626
21.375000 553.646447 558.618717 562.222919 561.677696 565.837315 569.861190
21.450000 555.386708 560.707534 564.895526 564.307164 569.383056 572.987443
21.525000 556.713781 561.778200 567.106404 566.545767 572.169246 577.034589
21.600000 557.720779 563.073413 569.335416 568.720755 575.890946 579.974511
21.675000 558.864280 564.053684 571.261215 571.036263 578.922502 582.876338
21.750000 559.667217 565.271515 573.580536 573.451606 581.401281 586.937379
21.850000 560.960632 566.556318 579.069748 577.092098 585.223288 590.763151
21.950000 562.406188 568.009445 584.176075 580.643294 589.152373 593.261034
22.050000 563.766316 569.165947 588.597654 584.176748 592.672801 595.310116
22.130000 564.844238 570.413086 590.880128 586.359967 594.960681 596.976611
22.220000 565.953327 572.070224 593.246856 588.465673 597.051254 598.807692
22.350000 567.430505 574.203286 596.329050 591.347562 599.135958 601.138802
22.450000 568.702028 575.930752 598.450034 593.474204 600.894603 602.630520
22.550000 569.864683 577.264599 600.189306 595.440743 602.491329 604.108822
22.630000 570.973617 578.780907 601.576594 596.807574 603.483257 605.007763
22.720000 572.101598 579.980912 602.889183 598.275379 604.661857 606.093561
22.800000 573.124216 580.930350 603.984463 599.414581 605.632189 607.074037
22.930000 574.732447 587.553893 605.428150 601.041921 607.064603 608.325144
23.000000 575.825921 589.349752 606.203910 601.931345 607.849664 609.029540
23.115000 577.435073 596.735054 607.409858 603.369753 608.987042 610.164343
23.230000 579.234308 601.848559 608.560447 604.853863 610.106289 611.263899
23.342500 581.871949 603.690554 609.646224 606.469251 611.163507 612.446903
23.455000 587.301774 605.704411 610.753741 608.230260 612.297402 613.512941
23.567500 594.058369 608.256305 611.779768 610.043956 613.311728 614.396687
23.680000 600.677905 609.663304 612.909799 611.769037 614.326454 615.425248
23.755000 603.271449 610.751595 613.729990 612.787348 615.102532 616.198621
23.830000 606.620118 611.888277 614.477260 613.822087 615.886704 616.944105
23.940000 609.153869 613.462833 615.603060 615.130481 617.001894 618.148199
24.050000 611.442132 614.893380 616.738632 616.423908 618.063494 619.200529
24.130000 613.063098 616.014463 617.690075 617.434345 618.909329 620.040169
