depth(m) lower_95(kyr) lower_68(kyr) median(kyr) mean(kyr) upper_68(kyr) upper_95(kyr)
0.220000 0.182647 0.682437 1.330582 1.362614 2.061519 2.746162
0.320000 1.514788 2.248646 3.102676 3.140187 4.035455 5.157337
0.395000 2.624781 3.494182 4.412304 4.459109 5.432242 6.482569
0.470000 3.861776 4.714528 5.767072 5.775602 6.802422 7.823128
0.538000 5.015863 5.864793 6.978105 6.999445 8.073121 9.202178
0.550000 5.249973 6.118114 7.224447 7.248542 8.301269 9.419306
0.640000 6.691014 7.824515 8.881656 8.912323 10.052148 11.204095
0.730000 8.397660 9.470527 10.558182 10.617726 11.745379 13.072319
0.830000 10.361612 11.597847 12.886748 13.012710 14.415087 16.420801
0.930000 12.734540 14.058964 15.372340 15.582006 17.222859 19.325583
1.030000 15.856135 16.637897 18.037773 18.304434 20.040035 22.063692
1.050000 16.334454 17.223159 18.647194 18.891605 20.592233 22.601809
1.120000 17.641432 18.813361 20.527532 20.667571 22.424156 24.506422
1.220000 19.574390 20.932541 22.932902 23.118102 25.129913 27.992342
1.320000 21.793101 23.286629 25.328441 25.719475 28.001714 31.398220
1.450000 24.868693 26.817500 29.574381 30.138145 33.397999 39.348794
1.590000 29.559498 31.897889 35.806332 36.294693 40.577562 45.644506
1.670000 31.880697 34.949648 39.117265 39.331132 43.494543 48.376136
1.755000 33.992760 38.363182 42.233699 42.432489 46.913939 51.193789
1.840000 36.801522 41.401387 45.310813 45.412139 50.082696 53.830380
1.880000 37.915203 42.494933 46.562392 46.720941 51.378585 55.010116
1.960000 40.526081 44.981532 49.352740 49.334977 53.800446 56.979116
2.040000 43.469865 47.619543 52.068007 51.822478 56.002262 59.129498
2.110000 45.881674 49.922043 54.396041 54.046451 57.997682 61.024642
2.160000 47.226373 51.416225 56.121814 55.649506 59.446748 62.581131
2.220000 49.152667 53.260523 57.974559 57.534580 61.007823 64.156042
2.325000 52.675747 57.628410 61.872904 61.412201 65.251174 67.661351
2.430000 56.344811 61.656288 65.709088 65.175532 68.811834 71.007606
2.460000 57.349509 62.953455 66.965986 66.335883 69.761615 71.930193
2.540000 59.739038 67.315388 71.088646 70.384051 73.414525 76.542731
2.630000 65.494223 70.883184 74.014326 74.014769 77.105487 82.278755
2.720000 71.749186 73.867204 77.069759 77.395785 80.326438 87.127698
2.800000 73.796887 76.692002 81.158731 80.891410 83.834389 89.829109
2.920000 76.236347 79.757609 86.314632 85.851751 90.343116 93.544868
2.940000 76.770049 80.435427 87.426605 86.646170 90.990776 94.150301
3.060000 79.229229 84.697266 92.720831 91.242794 95.520103 98.180640
3.140000 80.928586 89.359577 94.936809 93.604790 97.755949 100.504254
3.210000 82.398926 92.543127 96.565382 95.469881 99.557708 102.420307
3.280000 83.864374 94.538644 98.224727 97.317662 101.299576 104.337529
3.380000 86.785092 96.449674 100.550114 99.858887 103.945131 107.152343
3.480000 91.334209 99.033947 102.836530 102.446425 106.501405 109.914668
3.565000 94.052982 101.186022 104.857336 104.699821 108.750000 112.551523
3.650000 97.334467 103.192826 106.799922 106.983694 111.477428 114.920963
3.700000 99.216082 104.542985 108.058764 108.382425 112.971809 116.247699
3.775000 102.512408 106.838312 110.326308 110.503697 114.542743 117.834885
3.850000 106.106387 109.513581 113.019767 112.949491 116.521938 119.353567
3.930000 114.614605 116.587229 118.342718 118.340939 120.141878 122.023517
4.030000 119.227573 120.761273 122.239235 122.282381 123.803078 125.670153
4.140000 122.587844 124.124701 125.673824 125.611389 127.062206 128.421734
4.280000 127.707363 129.153832 130.654087 130.638189 132.035517 133.822084
4.410000 134.193963 136.478194 139.038467 138.933331 141.300103 143.288042
4.420000 134.467340 136.976705 139.484403 139.371382 141.756858 143.848264
4.510000 136.825492 139.904424 142.748910 142.573490 145.128459 147.589997
4.595000 139.445306 142.122883 144.958452 144.853086 147.400248 149.732322
4.680000 141.934701 144.566788 147.007420 147.076912 149.538269 151.865329
4.700000 142.530187 145.083984 147.574742 147.635217 150.154734 152.752539
4.775000 144.676161 146.969117 149.451190 149.503622 152.030250 154.654699
4.850000 146.677533 148.855303 151.398951 151.393978 153.807638 156.156733
4.870000 147.133322 149.389850 151.928604 151.914188 154.329284 156.649863
4.995000 150.287548 152.478799 154.700432 154.789067 157.089461 159.546685
5.120000 153.244678 155.339850 157.594267 157.622858 159.861186 162.560880
5.180000 154.742370 156.841532 159.031025 159.095727 161.353586 164.014607
5.260000 156.511900 158.892377 161.093801 161.196772 163.425175 166.331143
5.340000 158.383966 160.879952 163.295304 163.502754 166.268334 169.580073
5.430000 160.786772 163.386316 165.988609 166.176610 169.021724 173.639375
5.540000 164.109783 166.568152 169.713945 169.849388 172.632515 177.543636
5.630000 167.079006 170.233755 173.205593 173.241897 175.999275 180.739236
5.710000 169.722613 173.202196 176.097432 176.305389 179.424721 183.543453
5.810000 173.714825 177.207968 180.581134 180.556248 184.029637 186.913055
5.910000 177.325746 182.187339 185.688405 185.311207 188.243424 190.984855
6.040000 188.836209 190.716291 192.759369 193.221577 195.608262 200.378105
6.140000 191.992512 194.171974 196.034071 196.577544 198.738924 204.253487
6.260000 196.030047 198.144898 200.247877 200.702162 203.151184 208.328778
6.360000 198.718936 200.704685 203.279219 203.965171 207.847336 211.594875
6.460000 200.986237 203.288226 206.598856 207.079826 211.372843 214.010739
6.540000 202.731450 205.490576 209.493127 209.484158 213.549523 215.721421
6.620000 204.978565 207.820119 212.349292 211.892196 215.447828 217.370514
6.730000 208.194160 211.759390 215.834585 215.189182 218.215550 219.592148
6.860000 213.634589 217.497071 219.666839 219.301329 221.089543 222.615670
6.930000 218.502091 220.558420 221.866699 221.836006 223.214942 224.990560
7.040000 221.867778 223.201450 224.635110 224.699328 226.185263 228.387888
7.160000 224.172756 225.664187 227.388301 227.457840 229.216165 231.286560
7.235000 225.813226 227.374730 229.095097 229.211991 231.049430 232.982439
7.310000 227.807967 229.335577 231.060479 231.141389 232.820640 235.081482
7.410000 230.802195 233.002651 234.849293 234.984948 237.087246 240.003488
7.490000 232.954806 235.357500 238.015637 238.091400 240.991357 242.895359
7.570000 235.485554 238.117971 241.847825 241.275202 243.951753 245.612734
7.650000 238.832270 242.031611 244.994077 244.767897 247.310904 250.423942
7.730000 244.333095 245.931867 247.915494 248.221618 250.417277 253.867351
7.860000 247.622818 249.422209 252.039812 252.396011 255.389778 259.327431
7.980000 250.297490 252.407925 255.374977 255.670596 258.676119 262.654679
8.120000 252.908302 255.817913 259.510528 259.447578 262.972466 265.990815
8.250000 255.491219 258.649511 262.964391 262.739677 266.576400 269.626792
8.340000 257.459579 261.013352 265.137131 264.929252 268.806219 271.521704
8.460000 260.036642 264.233449 267.962576 267.816025 271.528715 274.148480
8.530000 262.060215 266.337051 269.853375 269.674577 273.113446 275.539964
8.605000 264.315649 268.517031 271.936611 271.728066 275.072391 277.207179
8.680000 266.643916 270.990583 274.099953 273.850651 277.051783 279.122548
8.795000 270.803656 274.522271 277.357128 277.242490 280.007805 282.785547
8.910000 276.050576 278.537646 280.648867 280.745477 283.173938 285.785052
9.030000 280.760041 282.708866 284.571247 284.593529 286.522861 288.150330
9.140000 284.250436 286.428120 288.196591 288.090305 289.729672 291.575594
9.230000 288.321169 289.942055 291.373887 291.422612 292.977928 294.651842
9.360000 291.815566 293.147645 294.611494 294.660949 296.185122 298.050301
9.420000 292.993402 294.498918 296.032631 296.081137 297.647366 299.655043
9.550000 295.803416 297.333628 298.917261 299.150427 300.658886 305.828984
9.660000 298.228097 300.058662 301.712945 302.335409 304.717241 309.940242
9.800000 300.982211 302.645463 304.623027 305.700122 309.905542 313.538307
9.900000 302.845622 304.395461 306.691102 307.949190 312.626221 316.203315
10.000000 304.525048 306.193972 308.935776 310.184426 315.021581 318.289268
10.080000 306.121596 307.957727 310.706435 311.914620 316.871904 319.875066
10.180000 308.169660 310.266405 313.337918 314.434133 319.043950 322.771718
10.220000 309.354528 311.771417 315.060026 315.838318 319.954199 323.975610
10.360000 313.349353 317.067070 320.500513 320.515571 323.420951 329.771098
10.460000 315.540157 322.293782 324.770127 325.050296 328.849513 332.815208
10.560000 317.637231 326.364415 330.514045 329.723052 333.278459 335.463174
10.660000 320.551787 332.599328 334.930890 333.991128 336.392925 337.976174
10.785000 329.250348 335.905858 337.731014 337.566483 339.913839 342.683621
10.910000 337.517219 338.892833 340.372676 340.951185 343.235573 346.994131
10.990000 339.424267 340.692194 342.334046 342.884952 345.361059 348.935970
11.080000 341.017654 342.506500 344.576158 344.941879 347.497339 350.646916
11.170000 342.923945 344.457257 346.592544 346.934382 349.474136 352.722055
11.265000 344.596114 346.460578 348.666944 349.051393 351.707610 354.899153
11.360000 346.299942 348.308398 350.783510 351.093761 353.982861 357.642566
11.470000 348.361590 350.356957 353.129542 353.323073 356.090750 360.067441
11.580000 350.105201 352.348901 355.552697 355.557184 358.357963 362.742758
11.720000 352.601387 354.971377 358.338193 358.502274 361.344214 366.553388
11.810000 354.698258 357.151803 360.226687 360.461986 363.297582 369.241731
11.860000 355.927041 358.509060 361.539589 361.714416 364.443496 370.248814
11.940000 358.060251 360.967138 364.003277 364.143826 367.171125 372.105030
12.020000 360.314494 363.350850 366.193223 366.468069 369.821639 373.774116
12.160000 363.582111 366.734561 369.631520 369.882742 373.389994 376.638111
12.290000 366.397782 369.735771 372.763825 373.002936 376.548595 379.697515
12.400000 369.004490 372.446696 375.318553 375.526870 378.917660 381.831308
12.490000 371.394839 374.981715 377.933994 377.963348 381.181472 383.902991
12.565000 373.713918 376.742763 379.850260 379.811631 382.919104 385.497434
12.640000 376.126854 378.954984 381.749324 381.709567 384.614442 387.016089
12.780000 379.802623 382.290676 385.043432 385.059980 387.866763 389.928622
12.910000 383.315512 385.936052 388.504427 388.508380 391.144707 393.320977
13.005000 386.142834 388.832240 391.473051 391.382395 393.724517 396.589668
13.100000 389.495738 392.715852 394.731744 394.761403 396.789251 400.242030
13.240000 397.061526 401.085837 404.232878 404.055814 406.961921 409.742243
13.315000 398.881427 404.744476 408.058737 407.605449 410.597089 412.564702
13.390000 400.440420 408.618415 411.356348 410.762111 413.162576 415.161266
13.400000 400.659985 408.943988 411.609416 411.073781 413.448682 415.457587
13.520000 408.445665 412.283709 414.492188 414.329012 416.714283 418.806169
13.610000 411.970509 414.770633 417.204145 417.096634 419.532699 421.292392
13.700000 415.774268 417.715655 420.182132 419.952483 422.051231 423.610641
13.830000 418.765347 421.184086 423.498171 423.213271 425.000779 426.301160
13.930000 423.807332 425.621752 427.205525 427.142505 428.649804 429.999688
14.060000 427.041883 428.070374 429.394421 429.739864 431.579417 434.316114
14.130000 428.848993 429.720637 431.104095 431.477835 433.348372 436.172177
14.270000 431.238675 432.504398 434.218681 434.494213 436.548101 438.665743
14.410000 433.792817 435.433755 437.467929 437.679996 439.985608 442.466993
14.530000 436.088779 437.785369 440.139171 440.429226 443.062103 446.479012
14.640000 438.235204 439.733246 442.256363 442.678669 445.634353 449.499992
14.715000 439.397262 441.082933 443.748823 444.203919 447.380866 451.790704
14.790000 440.710743 442.405467 445.248097 445.731465 449.249112 453.417701
14.900000 442.808828 444.642844 447.547085 448.115034 451.949213 456.049459
15.005000 444.683909 446.681534 450.238509 450.512188 454.430727 458.231212
15.110000 446.617181 448.767844 452.932435 453.027593 457.025628 460.343781
15.200000 448.370088 450.868209 455.378473 455.337621 459.562433 462.455653
15.290000 450.169308 453.212470 457.587818 457.537428 461.708161 464.638830
15.430000 452.813910 456.716670 461.297830 460.952014 465.006320 467.588927
15.440000 453.022990 457.047726 461.623326 461.243934 465.342840 468.033068
15.515000 455.443211 460.298739 464.596090 464.059145 467.589707 470.076143
15.590000 457.916233 463.276316 467.339215 466.734343 469.906321 472.198649
15.715000 463.064777 466.633977 470.415620 469.847347 472.628391 474.669534
15.840000 466.560976 469.993948 473.397622 472.843854 475.361420 477.236997
15.870000 467.526328 470.869687 474.241419 473.703197 476.188550 478.147631
15.910000 468.936209 472.313803 475.395811 474.980909 477.385063 479.461096
15.950000 470.291803 473.561329 476.463099 476.219101 478.668075 480.633727
16.050000 474.016064 476.815466 479.185077 479.195225 481.678207 484.033340
16.060000 474.310706 477.127741 479.478100 479.515784 482.017336 484.262940
16.150000 477.258525 480.062933 483.005512 482.911988 485.645057 488.394061
16.260000 480.501088 483.389356 487.244529 487.017239 490.558683 493.124321
16.400000 483.296063 486.659796 492.055803 491.231667 495.295078 497.744310
16.500000 486.285134 490.060701 494.999979 494.290830 497.946662 500.159314
16.610000 490.143999 494.152882 498.289037 497.685609 500.750987 502.831436
16.740000 494.979086 499.214991 501.803411 501.407173 503.722999 505.624764
16.840000 498.743455 502.254783 504.115155 504.029335 505.874945 508.013622
16.930000 501.950217 504.323695 506.023468 506.086545 507.962308 510.086101
17.060000 504.940574 506.824437 508.375032 508.542908 510.350820 512.958383
17.180000 507.782819 509.210578 510.784799 510.948917 512.699953 515.140139
17.280000 509.662746 511.170029 512.692070 512.982584 514.836359 517.676292
17.410000 511.994583 513.714276 515.438995 515.805282 517.873875 521.806002
17.485000 513.699179 515.525386 517.373541 517.969370 520.473367 525.113570
17.560000 515.810551 517.591800 519.535507 520.311180 523.489161 527.636055
17.660000 518.202535 520.316122 523.282785 523.808814 527.836146 530.911351
17.780000 521.482737 524.517392 528.141071 528.163758 531.989994 534.163255
17.900000 527.451196 530.661285 533.797127 533.380456 535.932940 537.685255
18.040000 533.864951 536.437695 538.161261 538.378632 540.470087 544.037471
18.180000 537.897871 539.924174 542.166381 542.470020 545.029038 548.297787
18.300000 540.426454 542.689979 545.338258 545.529517 548.689865 551.092082
18.430000 543.386679 545.816652 548.925415 548.850643 551.876987 553.981467
18.560000 546.590161 549.532060 552.808706 552.588824 555.325521 557.753356
18.645000 549.390115 552.564015 555.389709 555.228086 557.866130 560.373647
18.730000 553.221370 555.803138 558.254309 558.276016 560.726411 563.946409
18.820000 556.592138 559.235982 561.627757 561.827168 564.613007 567.604699
18.910000 560.467807 562.952090 565.552138 565.684322 568.446796 570.602063
18.990000 563.215378 565.782915 569.396471 569.261962 572.200229 576.141769
19.113333 566.450385 570.726595 574.847753 574.908940 579.045447 584.195238
19.236667 569.884913 575.880047 580.705375 580.284491 584.564079 588.838959
19.360000 575.334743 583.561676 585.995302 585.666576 588.734483 592.452953
19.435000 578.356276 586.347551 589.134733 588.653668 592.120462 595.189353
19.510000 580.700902 589.266782 591.682198 591.209285 594.853220 597.138022
19.585000 582.425352 590.901015 593.589989 593.168884 596.965150 598.968744
19.660000 584.217503 592.578363 595.486194 595.060962 598.791514 600.633571
19.735000 586.033369 594.196134 597.365261 596.893814 600.511052 602.426039
19.810000 587.864108 595.898964 599.299368 598.691474 602.144413 603.950692
19.920000 591.808699 598.527379 601.951930 601.494694 604.665112 606.474354
20.030000 596.231522 601.355029 604.752452 604.368218 607.400723 609.187738
20.110000 601.354260 604.717384 607.955938 607.333694 609.768536 611.531079
20.190000 604.862198 608.706995 610.563322 610.280215 612.193877 613.735428
20.330000 608.637993 612.476135 614.274384 614.002409 615.659213 616.984564
20.470000 614.141163 616.167647 617.385812 617.312243 618.693394 619.837031
20.610000 617.937414 619.279756 620.361401 620.324550 621.429605 622.446278
20.720000 620.580534 621.783632 622.821504 622.927014 623.963947 626.014364
20.850000 623.764990 624.758145 626.159594 627.800118 632.029889 638.993342
20.940000 626.011816 627.172695 630.230930 631.809419 637.607603 642.464044
21.055000 628.707463 630.814172 637.038688 637.376274 643.330737 649.693303
21.170000 631.604279 634.854074 643.446101 642.745690 649.135510 655.747150
21.290000 634.439269 639.370721 647.440425 647.050067 653.956082 659.713763
21.410000 637.736335 643.678302 651.382538 651.258651 658.531826 663.595579
21.530000 642.064161 648.189328 655.180579 655.425485 662.926058 667.098749
21.610000 644.836486 651.381532 658.666842 658.674734 665.864877 670.152685
21.690000 649.104662 655.519744 662.576185 662.098248 668.487911 672.596592
21.830000 656.475633 662.950667 669.636523 668.697552 673.648953 677.290551
21.960000 664.819449 670.793543 675.634697 675.128972 679.332314 682.582159
22.035000 669.092101 674.439918 679.067842 678.596757 682.617393 685.788132
22.110000 673.759929 678.327761 682.508151 682.152895 685.757619 688.888395
22.225000 680.436437 684.355452 687.678227 687.907762 691.635499 696.345081
22.340000 686.860487 689.812430 692.882125 693.409360 697.172171 702.264502
22.440000 690.076776 692.882302 696.865974 697.211831 701.490460 706.624895
22.520000 692.463226 695.437065 699.956146 700.341877 705.141932 711.134925
22.570000 694.087840 697.143688 701.918820 702.346584 707.482078 713.498588
