depth(m) lower_95(kyr) lower_68(kyr) median(kyr) mean(kyr) upper_68(kyr) upper_95(kyr)
32.650000 192.285825 194.268296 196.066826 196.812920 198.170530 207.196450
32.750000 193.238807 195.145532 196.756471 197.546294 198.717182 207.884502
32.850000 194.118772 195.918101 197.465785 198.303785 199.500175 208.830347
32.950000 195.215831 196.801267 198.130718 199.025215 200.070680 209.419494
33.050000 195.971775 197.535444 198.790112 199.758589 200.910124 210.235450
33.150000 196.941432 198.255786 199.444681 200.474183 201.502684 211.298525
33.250000 197.921679 198.977205 200.157413 201.176367 202.326394 211.853357
33.320000 198.357742 199.418883 200.592669 201.658508 202.915614 212.279163
33.450000 199.161934 200.242481 201.466672 202.548934 204.019295 212.982757
33.595455 199.977967 201.056723 202.470695 203.586843 205.598723 213.642763
33.740909 200.735265 201.911806 203.528961 204.596891 207.003168 214.454968
33.886364 201.526559 202.783076 204.679141 205.631152 208.275233 215.213145
34.031818 202.105269 203.646175 205.728751 206.620346 209.743334 215.860865
34.177273 202.811602 204.500694 206.900503 207.659484 210.975146 216.434008
34.322727 203.573967 205.485269 208.181395 208.717422 212.074306 217.141722
34.468182 204.341427 206.395096 209.243687 209.742110 213.099364 217.628255
34.613636 205.200502 207.430169 210.416512 210.791014 214.425871 218.348074
34.759091 206.113632 208.435025 211.458519 211.845626 215.453279 218.894684
34.904545 207.129916 209.528907 212.725115 212.936839 216.664943 219.585450
35.050000 208.259530 210.877046 213.813439 214.083715 217.638034 220.330035
35.183333 209.509908 211.963817 214.968327 215.212930 218.723939 221.307819
35.316667 210.489627 213.115211 216.183902 216.391881 219.775672 222.306975
35.450000 211.481123 214.397102 217.456432 217.621745 220.977520 223.621888
35.583333 212.438226 215.644292 218.801085 218.781278 221.986286 224.627884
35.716667 213.650581 216.929240 220.088456 219.996252 223.104017 225.812288
35.850000 215.341488 218.024933 221.211052 221.158732 224.172321 226.679720
35.983333 216.347042 219.371276 222.319891 222.328381 225.364074 227.564773
36.116667 218.099374 220.760649 223.612394 223.528923 226.486588 228.589527
36.250000 219.413951 221.763982 224.713113 224.668900 227.650404 229.592513
36.350000 220.123369 222.485003 225.510729 225.443740 228.456298 230.397753
36.450000 220.712906 223.188634 226.306826 226.200440 229.117657 231.135904
36.550000 221.463254 224.000719 227.068818 226.938661 229.814118 231.633288
36.670000 222.558926 225.179522 228.069708 227.888068 230.635711 232.419002
36.790000 223.568942 226.265790 228.980780 228.824462 231.351499 233.193926
36.910000 224.597114 227.382568 229.895282 229.756237 232.071148 233.866092
37.030000 225.900238 228.686094 230.849877 230.734508 232.804367 234.586260
37.150000 227.239535 229.731490 231.876540 231.711752 233.506272 235.275099
37.270000 228.687606 230.902137 232.818336 232.674862 234.361125 236.162054
37.390000 229.948549 231.940908 233.708777 233.627604 235.175805 236.876070
37.510000 231.197534 233.093960 234.582664 234.567499 236.026174 237.768019
37.630000 232.684824 234.146976 235.441479 235.505085 236.876391 238.658152
37.750000 234.057888 235.147941 236.278985 236.404317 237.653302 239.516973
37.820000 234.642166 235.728906 236.801324 236.949704 238.177804 240.076640
37.935000 235.484566 236.486111 237.611593 237.760666 239.053258 240.806766
38.050000 236.195283 237.198762 238.425921 238.564138 240.027161 241.609866
38.150000 236.754345 237.786001 239.209386 239.281685 240.742799 242.155768
38.250000 237.440866 238.477076 239.962860 240.012588 241.571802 242.810944
38.350000 237.906297 239.112021 240.759072 240.740035 242.392628 243.462606
38.491667 238.709017 240.120105 241.967755 241.922807 243.655558 245.360986
38.633333 239.732654 241.109299 243.073042 243.106071 244.874903 246.883902
38.775000 240.813994 242.195490 244.236495 244.287352 246.039300 248.669709
38.916667 241.939129 243.442876 245.348940 245.480174 247.207121 250.342018
39.058333 242.924571 244.568210 246.369305 246.620891 248.401278 252.650927
39.200000 244.199394 245.673086 247.279873 247.744319 249.455502 255.150731
39.300000 244.728920 246.229212 247.919634 248.433680 250.321040 256.547483
39.400000 245.224706 246.734834 248.553073 249.088065 251.067217 257.394808
39.500000 245.717893 247.310872 249.102721 249.705730 251.793750 258.239342
39.642857 246.402106 248.068293 249.953406 250.582630 252.831864 259.765912
39.785714 247.010180 248.828994 250.730507 251.459984 253.996435 260.693811
39.928571 247.744418 249.586313 251.542206 252.327404 255.134012 261.897188
40.071429 248.438704 250.266443 252.254901 253.170611 256.256890 262.854954
40.214286 249.100192 250.891144 252.949262 253.958631 257.326104 263.812638
40.357143 249.679344 251.556160 253.718618 254.748581 258.611127 264.745384
40.500000 250.238153 252.180883 254.428093 255.552888 259.954798 266.283840
40.610000 250.851229 252.730537 255.039872 256.175588 260.827227 267.037841
40.720000 251.447537 253.250340 255.608635 256.835212 261.615501 267.592472
40.840000 252.022081 253.841381 256.263260 257.519234 262.361392 268.224530
40.960000 252.704633 254.472692 256.982987 258.225280 263.327878 269.072380
41.080000 253.277231 255.113304 257.595385 258.897258 264.142094 270.252211
41.200000 253.845477 255.711663 258.186526 259.561560 265.051532 271.094050
41.320000 254.479531 256.291869 258.829942 260.265601 265.850984 271.854260
41.420000 254.931722 256.757760 259.423743 260.844827 266.476372 272.475714
41.520000 255.373664 257.246593 259.939620 261.440001 267.146224 273.241351
41.620000 255.900894 257.727230 260.503376 262.040240 267.730628 274.338947
41.748571 256.381051 258.349783 261.184786 262.836381 268.680228 276.094593
41.877143 257.022872 258.899853 261.952798 263.644735 269.881987 277.002096
42.005714 257.591764 259.485874 262.607192 264.470476 270.944205 279.454156
42.134286 258.138465 260.079814 263.243399 265.291363 272.017773 281.017744
42.262857 258.644947 260.670351 263.998404 266.137052 273.175247 283.025465
42.391429 259.223283 261.208037 264.760813 266.982664 274.176966 285.363204
42.520000 259.819429 261.888073 265.506021 267.838490 275.051715 287.606098
42.648571 260.374175 262.474091 266.166668 268.689153 275.900755 288.815576
42.777143 260.943549 263.110783 266.967973 269.506778 276.760279 290.156474
42.905714 261.569266 263.813446 267.817499 270.333590 277.509265 290.751737
43.034286 262.256523 264.561681 268.729216 271.221507 278.222242 291.443433
43.162857 262.896413 265.266078 269.643131 272.135516 278.834822 292.046491
43.291429 263.407365 265.992845 270.678543 273.057137 279.661881 293.071202
43.420000 264.054957 266.740874 271.912976 274.004118 280.522106 293.756436
43.553333 264.628731 267.421867 273.116950 275.068623 281.945852 294.362823
43.686667 265.127402 268.178524 274.636128 276.179639 283.313939 294.988421
43.820000 265.915569 268.936632 276.061908 277.338992 284.702650 295.643523
43.953333 266.569034 269.714749 277.669822 278.457787 286.183447 296.292271
44.086667 267.050496 270.473960 279.759516 279.632905 287.783599 296.902068
44.220000 267.762610 271.238574 281.362056 280.801503 289.033181 297.407091
44.353333 268.305911 271.964020 283.576451 281.972065 290.653232 297.809157
44.486667 268.876809 272.974018 285.534917 283.152741 291.937241 298.485794
44.620000 269.563419 273.848249 287.853399 284.367746 293.552629 299.038491
44.720000 270.158149 274.576516 288.931857 285.150397 294.314104 299.516419
44.820000 270.728539 275.258048 290.175207 285.932692 295.223741 299.857495
44.920000 271.284514 276.097286 291.106878 286.694382 295.898366 300.244942
45.056364 272.067244 277.370788 292.102381 287.848172 296.855198 300.891357
45.192727 272.777125 278.895392 292.955092 289.042416 298.121634 301.509849
45.329091 273.451322 280.380033 293.913697 290.171338 298.977508 301.979978
45.465455 274.343818 281.950420 294.593493 291.332923 299.854204 302.563106
45.601818 275.100741 283.315186 295.270637 292.436580 300.730943 303.076363
45.738182 275.649787 284.500343 296.159195 293.554547 301.548193 303.861570
45.874545 276.263664 285.923676 297.261046 294.731812 302.358392 304.442935
46.010909 276.805472 287.155896 298.093640 295.861861 303.105340 305.204954
46.147273 277.745189 288.571449 299.208116 296.975075 303.913313 305.927337
46.283636 278.739936 290.026066 300.126253 298.075246 304.665495 306.610961
46.420000 279.864604 291.131201 301.339835 299.209658 305.458603 307.303320
46.520000 280.483060 292.062373 302.108974 299.989854 305.966143 307.908916
46.620000 281.027112 293.178330 303.022149 300.782206 306.579771 308.460789
46.720000 282.124534 294.571746 303.970930 301.552923 307.131967 309.175158
46.820000 282.719183 295.682798 304.710248 302.310840 307.661363 309.808582
46.920000 283.459392 296.690523 305.463336 303.041243 308.150789 310.321846
47.020000 285.141411 297.715865 306.221269 303.783281 308.708638 310.810164
47.148571 287.497556 299.075874 307.203816 304.795094 309.462907 311.489398
47.277143 289.010725 300.589022 308.137818 305.847810 310.277373 312.167475
47.405714 291.968551 301.968300 308.954181 306.905523 311.120185 313.269192
47.534286 294.467509 303.032336 309.781330 307.997152 312.182749 314.217719
47.662857 297.115925 304.067173 310.614326 309.043710 312.952325 315.006172
47.791429 298.770030 305.512580 311.435604 310.050574 313.865689 315.860843
47.920000 301.023816 306.522708 312.204124 311.028734 314.733690 316.768484
48.055000 302.384128 307.566784 313.016022 311.938173 315.455429 317.396136
48.190000 303.483490 309.001500 313.830114 312.857649 316.221928 318.104979
48.323333 305.151566 310.391766 314.683137 313.817292 317.009920 318.810209
48.456667 306.453562 311.573000 315.550983 314.746918 317.704388 319.476083
48.590000 307.824643 312.599036 316.437640 315.655278 318.423940 320.080705
48.723333 309.459136 313.857267 317.287932 316.575659 319.129675 320.729576
48.856667 310.966367 314.891488 317.959481 317.441593 319.841738 321.416645
48.990000 312.594207 315.964137 318.809225 318.313215 320.582359 322.092309
49.132857 313.705880 317.079642 319.677182 319.226974 321.326187 322.806475
49.275714 315.241202 318.222234 320.496999 320.163861 322.082214 323.473050
49.418571 316.558950 319.265353 321.301439 321.074527 322.834632 324.298402
49.561429 317.762808 320.434125 322.216352 321.985860 323.516413 325.075920
49.704286 319.525031 321.541452 323.007741 322.920413 324.287011 325.920520
49.847143 320.971571 322.521598 323.842476 323.841677 325.092056 326.923880
49.990000 322.261287 323.518699 324.703499 324.729711 325.889796 327.640195
50.010000 322.396746 323.651364 324.816625 324.846188 326.007451 327.793783
50.150000 323.110674 324.342242 325.592807 325.632642 326.888238 328.624438
50.290000 323.733377 325.061651 326.328201 326.425245 327.848508 329.437303
50.430000 324.524260 325.692643 327.167258 327.215557 328.760152 330.214731
50.570000 325.164180 326.503123 328.048007 328.042404 329.545385 330.951300
50.710000 325.836370 327.324463 328.913422 328.854080 330.342687 331.723573
50.850000 326.505969 328.092883 329.821649 329.696506 331.159286 332.598270
50.990000 327.182763 328.986132 330.748299 330.608194 332.053911 333.433000
51.010000 327.319179 329.150774 330.915995 330.752687 332.204697 333.562912
51.154286 328.452323 330.611669 332.288841 332.292592 334.000574 335.981690
51.298571 329.990012 331.849217 333.812084 333.848117 335.872534 337.789814
51.442857 331.572841 333.434697 335.489193 335.488009 337.610482 339.431351
51.587143 333.258003 335.006962 337.283367 337.197686 339.169364 341.352247
51.731429 334.761198 336.818645 338.951651 338.812984 340.722676 342.461646
51.875714 336.676641 338.771487 340.454857 340.430052 342.151372 343.862848
52.020000 338.905106 340.641357 341.824784 341.934897 343.387492 344.893956
52.040000 338.983452 340.796549 341.964261 342.072478 343.512564 345.082373
52.182857 339.588423 341.541411 342.771367 342.873526 344.291839 345.839946
52.325714 340.223513 342.280158 343.590366 343.621492 345.048095 346.712785
52.468571 340.876606 343.041189 344.341680 344.362922 345.708079 347.743566
52.611429 341.431884 343.690945 345.113624 345.077559 346.373828 348.778819
52.754286 342.343800 344.353095 345.836835 345.807110 347.075049 349.875564
52.897143 342.906226 344.947644 346.511869 346.489020 347.710731 350.754808
53.040000 343.552217 345.636493 347.142640 347.178951 348.370910 351.587624
53.180000 344.128165 346.243719 347.826666 347.859302 349.137977 352.391217
53.320000 344.731997 347.003383 348.431571 348.523426 349.869336 353.253659
53.340000 344.880044 347.081828 348.538907 348.618781 349.944092 353.310063
53.480000 345.362363 347.638618 349.067022 349.179687 350.531862 353.902447
53.620000 345.929693 348.096875 349.602400 349.735584 351.308698 354.401844
53.760000 346.534479 348.624841 350.077504 350.273895 351.955502 354.912600
53.900000 347.315379 349.085878 350.624295 350.815005 352.611222 355.404221
54.040000 347.665797 349.553960 351.218256 351.365207 353.272444 355.997531
54.180000 348.167660 350.023347 351.748525 351.908440 353.934588 356.511703
54.320000 348.529713 350.519781 352.276782 352.458431 354.662222 357.015742
54.420000 348.796976 350.892880 352.716249 352.864690 355.112758 357.483496
54.520000 349.168481 351.241629 353.137112 353.282027 355.659321 357.958787
54.620000 349.587767 351.617208 353.580882 353.699838 356.252859 358.362485
54.748571 350.047552 352.050822 354.052950 354.218046 356.827341 358.872756
54.877143 350.533255 352.499639 354.579059 354.719946 357.439329 359.346255
55.005714 351.211159 352.926745 355.069076 355.234028 358.041450 359.952612
55.134286 351.655928 353.389221 355.620719 355.753419 358.619480 360.575286
55.262857 352.120394 353.803243 356.099865 356.265466 359.153272 361.096053
55.391429 352.573732 354.304706 356.585066 356.795382 359.721359 361.607862
55.520000 352.989524 354.725399 357.122994 357.322301 360.260227 362.099822
55.653333 353.574005 355.185991 357.667854 357.886637 360.933894 362.669401
55.786667 354.052003 355.636008 358.194782 358.436727 361.504539 363.280767
55.920000 354.504709 356.128597 358.735481 359.023511 362.099715 363.873900
56.053333 355.033537 356.647937 359.306725 359.600359 362.774981 364.555021
56.186667 355.477469 357.148128 359.880188 360.182766 363.371387 365.193319
56.320000 355.876899 357.670948 360.410793 360.762627 364.119551 365.816446
56.420000 356.387494 358.040673 360.862535 361.210458 364.614605 366.351676
56.520000 356.814843 358.470652 361.330980 361.656458 365.074789 366.748526
56.620000 357.145715 358.872369 361.739072 362.126507 365.505643 367.375322
56.740000 357.620194 359.397925 362.347860 362.709465 366.058596 368.182103
56.860000 358.131491 359.976087 362.885178 363.278995 366.563431 368.786663
56.980000 358.616561 360.496858 363.457632 363.843101 367.180011 369.416187
57.100000 359.138871 361.142620 364.113847 364.443082 367.694489 370.231130
57.220000 359.669522 361.721626 364.758256 365.048088 368.256953 370.863902
57.320000 360.121557 362.443479 365.447875 365.573145 368.714000 371.551003
57.420000 360.588485 363.006125 366.072318 366.113420 369.229705 372.058892
57.520000 360.978621 363.579900 366.683059 366.669386 369.669731 372.524644
57.620000 361.557836 364.120434 367.304808 367.252563 370.215261 373.007124
57.720000 362.112227 364.781599 367.914187 367.814353 370.709609 373.405943
57.820000 362.678535 365.362430 368.507579 368.379063 371.175850 373.800952
57.960000 363.512310 366.241905 369.387482 369.191515 371.847345 374.465172
58.100000 364.335257 367.225355 370.325423 370.028391 372.598691 375.277221
58.240000 365.207792 368.089499 371.267537 370.878446 373.283970 376.067958
58.380000 366.345533 369.063036 372.113560 371.764099 374.096174 376.772775
58.520000 367.347447 370.044111 372.854953 372.641114 374.861006 377.651098
58.620000 368.141978 370.713700 373.421282 373.263370 375.590823 378.162130
58.720000 368.803425 371.382750 374.037141 373.927057 376.282095 378.790917
58.820000 369.600775 372.163787 374.682542 374.610421 376.973983 379.507197
58.940000 370.382312 373.052405 375.358852 375.431014 377.906402 380.340359
59.060000 371.621375 374.035290 376.070405 376.280423 378.815321 381.339345
59.180000 372.794626 374.805228 376.881575 377.122444 379.629330 382.137860
59.300000 373.635010 375.680045 377.692037 377.957546 380.549498 382.886842
59.420000 374.731543 376.463350 378.590450 378.819522 381.534545 383.533192
59.500000 375.096979 376.986564 379.142035 379.364681 382.049542 384.109930
59.580000 375.668243 377.480429 379.727889 379.922962 382.517220 384.483872
59.720000 376.864509 378.488587 380.867815 381.021001 383.622668 385.733253
59.820000 377.595532 379.165275 381.580085 381.716620 384.284027 386.432839
59.920000 378.093518 379.928467 382.372816 382.434452 384.911605 387.117134
60.020000 378.485608 380.603891 383.140920 383.131810 385.508372 387.753470
60.120000 379.058772 381.337118 383.985492 383.858145 386.290892 388.569880
60.220000 379.687989 381.925033 384.716179 384.588636 387.060289 389.453913
60.320000 380.367764 382.654925 385.508526 385.308441 387.774936 390.007738
60.420000 380.908800 383.313295 386.293120 386.010428 388.417746 390.450326
60.520000 381.361081 384.086469 386.996503 386.707943 389.129125 390.960836
60.620000 381.963876 384.904621 387.738032 387.408993 389.774380 391.650783
60.720000 382.629095 385.651685 388.359229 388.088265 390.403922 392.159808
60.820000 383.359798 386.298042 388.984480 388.784839 391.095303 392.766357
60.953333 384.342338 387.528274 389.905985 389.711956 392.080940 393.578307
61.086667 385.407680 388.334292 390.699781 390.579767 392.927539 394.412130
61.220000 386.483697 389.305051 391.639834 391.475854 393.688038 395.266095
61.353333 387.526467 390.217223 392.524477 392.373539 394.503875 396.145341
61.486667 388.493803 391.225352 393.405485 393.272321 395.314708 396.921630
61.620000 389.676993 392.113022 394.256750 394.113618 396.028047 397.813178
61.753333 390.707586 393.024100 395.073428 394.953234 396.823200 398.717439
61.886667 391.722897 393.953848 395.849192 395.762676 397.547260 399.419416
62.020000 392.546068 394.767581 396.658934 396.564382 398.365431 400.250246
62.157500 393.231101 395.480435 397.422856 397.313746 399.117453 401.035524
62.295000 393.813220 396.215276 398.145599 398.052679 399.869080 401.868902
62.432500 394.469470 396.919279 398.870137 398.782179 400.629463 402.611797
62.570000 395.242752 397.562770 399.621794 399.533666 401.443320 403.789104
62.707500 395.871914 398.226728 400.328829 400.288560 402.191808 404.742182
62.845000 396.520571 398.991705 401.074193 401.037125 402.962810 405.506344
62.982500 397.268786 399.685768 401.832177 401.780503 403.766412 406.330175
63.120000 398.216911 400.360383 402.551777 402.533768 404.561724 407.016837
63.257500 398.875482 401.157288 403.336523 403.310988 405.390167 407.703634
63.395000 399.564174 401.922097 404.095615 404.085020 406.155094 408.595745
63.532500 400.336342 402.670882 404.800234 404.877769 407.035834 409.236431
63.670000 401.044016 403.406736 405.602891 405.675037 407.960589 410.485037
63.807500 401.862403 404.240444 406.469036 406.479305 408.747928 411.320017
63.945000 402.698508 405.069474 407.270395 407.314578 409.629349 412.193780
64.082500 403.625178 405.912899 408.082046 408.161350 410.409416 413.028822
64.220000 404.582788 406.840905 409.036754 409.060798 411.261462 413.729247
64.348571 405.637559 407.629940 409.921022 410.001413 412.301730 414.686543
64.477143 406.537436 408.679353 410.922129 410.992361 413.408918 415.728349
64.605714 407.547388 409.753825 411.971888 412.020143 414.352039 416.628766
64.734286 408.655603 410.835096 413.125829 413.141372 415.426287 417.660145
64.862857 410.001105 411.990633 414.287585 414.264067 416.512480 418.699535
64.991429 411.140933 413.292613 415.463671 415.444023 417.645753 419.828986
65.120000 412.659143 414.645510 416.617900 416.665363 418.804910 420.861623
