depth(m) lower_95(kyr) lower_68(kyr) median(kyr) mean(kyr) upper_68(kyr) upper_95(kyr)
0.005000 0.042746 0.308175 0.837664 0.903427 1.514658 2.172742
0.015000 0.319722 0.652074 1.269478 1.311763 1.970290 2.583737
0.025000 0.589525 1.036482 1.718149 1.750995 2.499608 3.044522
0.035000 0.844234 1.380695 2.196635 2.180809 2.987252 3.469970
0.045000 1.124095 1.739475 2.626317 2.579433 3.384805 3.838037
0.055000 1.381893 2.131090 3.062932 2.962509 3.773462 4.188704
0.065000 1.725734 2.484401 3.467742 3.315274 4.066765 4.487634
0.075000 1.999576 2.827645 3.829756 3.650048 4.355663 4.742444
0.085000 2.293691 3.199745 4.140355 3.982985 4.649727 5.053840
0.095000 2.596787 3.565231 4.460505 4.311256 4.953455 5.343771
0.105000 2.966872 4.001744 4.780282 4.635670 5.253209 5.681184
0.115000 3.347112 4.355145 5.086402 4.963187 5.527994 6.033379
0.125000 3.709277 4.735558 5.380041 5.299736 5.862515 6.440694
0.135000 4.121721 5.094436 5.699327 5.644262 6.204032 6.772433
0.145000 4.601282 5.419073 6.006615 5.987976 6.566671 7.142066
0.155000 5.021723 5.815576 6.328416 6.324500 6.902177 7.439359
0.165000 5.476485 6.150866 6.661027 6.670513 7.250519 7.780628
0.175000 5.835207 6.481126 7.016363 7.013072 7.583401 8.087248
0.185000 6.236602 6.789139 7.371778 7.355782 7.910593 8.452373
0.195000 6.637312 7.150921 7.721339 7.710488 8.266406 8.763362
0.205000 7.010324 7.529948 8.089761 8.077306 8.599432 9.051018
0.215000 7.344622 7.961537 8.488346 8.466460 8.981206 9.424378
0.225000 7.746887 8.341752 8.849900 8.822275 9.336464 9.769688
0.235000 8.175762 8.675831 9.198961 9.181640 9.645099 10.203731
0.245000 8.545855 9.080910 9.559886 9.537139 10.003339 10.523545
0.255000 8.950508 9.453067 9.890320 9.892697 10.324717 10.862329
0.265000 9.301051 9.788041 10.227338 10.246860 10.719942 11.253454
0.275000 9.681307 10.127311 10.565748 10.592227 11.086666 11.578767
0.285000 10.004333 10.461940 10.912972 10.945555 11.466753 11.946335
0.295000 10.320585 10.771480 11.288465 11.306215 11.842171 12.331249
0.305000 10.634846 11.075836 11.627447 11.632878 12.200589 12.651605
0.315000 10.946912 11.387836 11.951270 11.945924 12.518314 12.961935
0.325000 11.244964 11.668954 12.256516 12.243155 12.799080 13.180051
0.335000 11.498566 11.947788 12.561852 12.542987 13.093744 13.462737
0.345000 11.858081 12.291426 12.878907 12.847669 13.383651 13.740767
0.355000 12.187689 12.621571 13.201923 13.163795 13.666941 14.018216
0.365000 12.520006 12.962649 13.539239 13.473680 13.964577 14.295039
0.375000 12.818845 13.267768 13.842407 13.783613 14.252782 14.584006
0.385000 13.159025 13.634697 14.160787 14.095977 14.514453 14.858032
0.395000 13.462392 13.965245 14.457017 14.397138 14.774658 15.110939
0.405000 13.806304 14.299891 14.729112 14.680011 15.037631 15.366051
0.415000 14.102940 14.590051 14.998334 14.963453 15.314910 15.644526
0.425000 14.483810 14.870835 15.272947 15.243426 15.598441 15.957032
0.435000 14.802055 15.231608 15.563454 15.568290 15.912140 16.298886
0.445000 15.198449 15.535495 15.868734 15.884376 16.232868 16.648532
0.455000 15.506506 15.838810 16.200113 16.220162 16.600190 17.044763
0.465000 15.824377 16.153055 16.522318 16.554576 16.929942 17.486915
0.475000 16.118181 16.462433 16.835959 16.881873 17.279134 17.998834
0.485000 16.446306 16.739405 17.118611 17.187227 17.606900 18.471655
0.495000 16.682400 17.014089 17.380680 17.468569 17.897486 18.846671
0.505000 16.943255 17.268068 17.640273 17.741133 18.144271 19.234967
0.515000 17.212972 17.523641 17.896156 18.012376 18.445270 19.588560
0.525000 17.457023 17.767844 18.164892 18.273522 18.757328 19.923911
0.535000 17.705184 18.039848 18.411228 18.532937 19.009424 20.178860
0.545000 17.940781 18.281781 18.662348 18.793373 19.290607 20.479310
0.555000 18.175453 18.520073 18.924596 19.048668 19.547070 20.758797
0.565000 18.432505 18.772201 19.167382 19.304587 19.824412 21.074797
0.575000 18.668636 19.016171 19.419446 19.560982 20.101765 21.258310
0.585000 18.945883 19.270701 19.658185 19.812489 20.399279 21.523291
0.595000 19.156395 19.522638 19.900954 20.066266 20.599493 21.753286
0.605000 19.393555 19.798251 20.156415 20.324564 20.877501 22.064536
0.615000 19.658863 20.047802 20.415578 20.584873 21.144545 22.258131
0.625000 19.935186 20.298708 20.695110 20.854390 21.476179 22.522520
0.635000 20.194311 20.568928 20.950347 21.132778 21.745967 22.806265
0.645000 20.461800 20.821186 21.240426 21.407468 22.020725 23.072771
0.655000 20.724630 21.089032 21.521079 21.688120 22.349180 23.327910
0.665000 20.992127 21.341254 21.808664 21.970281 22.665505 23.549953
0.675000 21.278008 21.623456 22.108318 22.256882 22.980907 23.794355
0.685000 21.530442 21.889175 22.408415 22.546623 23.307625 24.075227
0.695000 21.798487 22.211424 22.725077 22.850806 23.610164 24.373840
0.705000 22.055447 22.491947 23.061600 23.153171 23.912896 24.657934
0.715000 22.348445 22.800927 23.369422 23.462375 24.219708 24.918030
0.725000 22.586345 23.093054 23.687497 23.771222 24.538794 25.267707
0.735000 22.861945 23.385069 23.987554 24.064233 24.804715 25.631264
0.745000 23.087411 23.666031 24.290379 24.359519 25.090999 25.891792
0.755000 23.358331 23.962737 24.597856 24.661100 25.384194 26.129787
0.765000 23.657043 24.290016 24.929682 24.972449 25.659390 26.372009
0.775000 23.977042 24.581389 25.268084 25.281667 25.981408 26.632986
0.785000 24.241413 24.888214 25.582679 25.584368 26.281550 26.918146
0.795000 24.524005 25.256941 25.905874 25.907420 26.591561 27.273283
0.805000 24.806805 25.588523 26.226354 26.235235 26.900518 27.544101
0.815000 25.135835 25.910347 26.573098 26.553482 27.201161 27.852766
0.825000 25.424520 26.234251 26.904521 26.867773 27.503753 28.113460
0.835000 25.726218 26.599305 27.203938 27.190124 27.794182 28.473021
0.845000 25.939064 26.888691 27.526457 27.503389 28.131396 28.802234
0.855000 26.394534 27.222151 27.846229 27.832674 28.437673 29.118362
0.865000 26.598835 27.566429 28.162199 28.162665 28.774314 29.626773
0.875000 27.058828 27.889011 28.486226 28.507686 29.125076 30.050314
0.885000 27.380708 28.242681 28.829092 28.862687 29.494719 30.425194
0.895000 27.742583 28.620417 29.199792 29.240013 29.881311 30.940567
0.905000 28.202995 28.978933 29.598847 29.651561 30.357020 31.330162
0.915000 28.618532 29.377056 30.006616 30.090048 30.847747 31.821250
0.925000 29.018556 29.744771 30.452144 30.533098 31.413887 32.447881
0.935000 29.348794 30.129274 30.895162 30.983569 31.923484 32.955186
0.945000 29.733896 30.550538 31.336211 31.433232 32.375956 33.413670
0.955000 30.137156 30.914493 31.773637 31.867819 32.908098 33.898656
0.965000 30.573711 31.298481 32.279811 32.344458 33.483351 34.215565
0.975000 31.012950 31.724943 32.798682 32.810619 33.941817 34.668086
0.985000 31.406138 32.157343 33.313516 33.325027 34.470114 35.217337
0.995000 31.744715 32.665393 33.904203 33.820385 34.926709 35.689093
1.005000 31.980007 33.100781 34.448716 34.290570 35.401397 36.182532
1.015000 32.349803 33.567388 34.926830 34.759596 35.831704 36.674845
1.025000 32.701370 34.040419 35.389342 35.215307 36.311746 37.104512
1.035000 32.989658 34.484816 35.857843 35.673289 36.757125 37.641695
1.045000 33.460376 34.939290 36.279872 36.138217 37.210115 38.163167
1.055000 33.825952 35.469809 36.729746 36.613325 37.704531 38.612582
1.065000 34.211838 35.963033 37.224544 37.087832 38.244606 39.026931
1.075000 34.552736 36.469355 37.681143 37.550189 38.724955 39.470809
1.085000 34.969081 37.015997 38.163445 38.035059 39.160659 39.952563
1.095000 35.510882 37.506413 38.667480 38.506891 39.592381 40.410190
1.105000 35.916845 38.014774 39.157088 38.975807 40.015891 40.817374
1.115000 36.447549 38.476767 39.676295 39.441137 40.428337 41.188469
1.125000 36.753560 39.011951 40.132563 39.907275 40.824935 41.566761
1.135000 37.321877 39.548063 40.551842 40.355491 41.320145 41.924277
1.145000 37.689529 40.040450 40.977028 40.783975 41.741307 42.376303
1.155000 38.177516 40.459315 41.388546 41.206766 42.122511 42.789458
1.165000 38.590678 40.946784 41.827528 41.639639 42.520139 43.150150
1.175000 39.043134 41.368460 42.269850 42.069612 42.924777 43.592369
1.185000 39.524133 41.774989 42.650408 42.472687 43.293911 43.883484
1.195000 39.940325 42.160759 43.066912 42.876365 43.687673 44.267200
1.205000 40.369334 42.650395 43.425299 43.262303 44.039421 44.614870
1.215000 40.850289 43.054647 43.776078 43.643923 44.374162 44.969684
1.225000 41.486630 43.462928 44.167669 44.025481 44.730885 45.400773
1.235000 41.844538 43.840234 44.497573 44.401731 45.072475 45.771367
1.245000 42.552641 44.244434 44.822733 44.780830 45.448137 46.180993
1.255000 43.069273 44.599485 45.180562 45.156528 45.843364 46.579613
1.265000 43.602052 44.952284 45.534203 45.542959 46.275922 47.066736
1.275000 44.142847 45.283814 45.920446 45.940648 46.674063 47.514659
1.285000 44.606667 45.598581 46.305211 46.327145 47.094108 48.054001
1.295000 45.058708 45.904156 46.708736 46.697109 47.493253 48.478949
1.305000 45.369088 46.233861 47.070388 47.072164 47.900632 48.857948
1.315000 45.831208 46.562988 47.468829 47.463355 48.316255 49.269814
1.325000 46.189565 46.874359 47.834325 47.836378 48.740213 49.682798
1.335000 46.523014 47.231342 48.203569 48.213993 49.154139 50.288169
1.345000 46.826847 47.534612 48.585079 48.593342 49.583956 50.691561
1.355000 47.126686 47.889586 48.929391 48.970414 50.001409 51.264614
1.365000 47.559554 48.261916 49.278180 49.373786 50.497796 51.692538
1.375000 47.934519 48.667414 49.720976 49.795315 50.940081 52.066486
1.385000 48.278202 49.085652 50.157317 50.234035 51.405337 52.443663
1.395000 48.712273 49.508812 50.625279 50.664361 51.849807 52.745982
1.405000 49.059858 49.887766 51.073110 51.096552 52.315271 53.226369
1.415000 49.498378 50.323535 51.556289 51.521851 52.682175 53.577340
1.425000 49.795883 50.702534 52.006125 51.942031 53.103463 53.910025
1.435000 50.143294 51.065721 52.443549 52.336833 53.467028 54.283920
1.445000 50.514319 51.465489 52.863452 52.729514 53.842334 54.625761
1.455000 50.789177 51.743032 53.256550 53.105832 54.241894 54.956649
1.465000 51.215350 52.075515 53.686214 53.488854 54.633569 55.338910
1.475000 51.535344 52.380683 54.118581 53.867895 55.038318 55.673625
1.485000 51.900592 52.719885 54.518842 54.260751 55.392147 56.056891
1.495000 52.155128 53.075935 54.928514 54.637845 55.732843 56.383380
1.505000 52.500735 53.476636 55.309091 55.022126 56.095439 56.793010
1.515000 52.792442 53.914894 55.685573 55.396901 56.488548 57.114591
1.525000 53.119199 54.419681 56.077317 55.792544 56.882885 57.443678
1.535000 53.538908 54.810200 56.458692 56.172028 57.223301 57.771148
1.545000 53.914766 55.264454 56.817627 56.543350 57.545962 58.120626
1.555000 54.313733 55.704634 57.200152 56.914938 57.850289 58.413243
1.565000 54.776911 56.067180 57.561167 57.298352 58.211951 58.700754
1.575000 55.163683 56.631852 57.921285 57.657881 58.509946 59.002838
1.585000 55.545185 57.044415 58.272482 58.017568 58.828669 59.427900
1.595000 55.973530 57.407903 58.614290 58.379838 59.148434 59.868387
1.605000 56.442276 57.883741 58.929502 58.728970 59.444993 60.223729
1.615000 56.866239 58.261010 59.252896 59.070079 59.787065 60.565435
1.625000 57.227201 58.637541 59.532495 59.408938 60.144475 60.917921
1.635000 57.497887 59.006179 59.867398 59.740058 60.476929 61.226014
1.645000 57.977337 59.370902 60.153050 60.092299 60.837438 61.569543
1.655000 58.264939 59.746485 60.488297 60.453371 61.192684 62.007679
1.665000 58.888098 60.180757 60.848396 60.832639 61.588410 62.501181
1.675000 59.413493 60.511113 61.191185 61.189893 61.928885 62.861347
1.685000 59.923353 60.858798 61.535540 61.550613 62.296609 63.255290
1.695000 60.345139 61.230519 61.882394 61.898677 62.612079 63.548690
1.705000 60.751477 61.567687 62.229169 62.238541 62.879414 63.851961
1.715000 61.160297 61.914188 62.564398 62.565460 63.152781 64.213798
1.725000 61.596227 62.262784 62.874756 62.883944 63.439722 64.470013
1.735000 61.892845 62.576925 63.174673 63.189897 63.721365 64.790525
1.745000 62.204756 62.881620 63.510270 63.487453 64.005020 65.079913
1.755000 62.551196 63.204440 63.796808 63.790529 64.322729 65.368623
1.765000 62.871215 63.501888 64.070703 64.089319 64.626198 65.602992
1.775000 63.169326 63.808864 64.371225 64.396286 64.938815 65.842360
1.785000 63.552117 64.130570 64.689301 64.708604 65.246894 66.118142
1.795000 63.901866 64.469730 65.014188 65.038308 65.594189 66.367715
1.805000 64.220615 64.830348 65.340754 65.360025 65.944252 66.616446
1.815000 64.590159 65.133770 65.655195 65.688398 66.254815 66.899826
1.825000 64.931828 65.471723 65.970765 66.016709 66.584325 67.176997
1.835000 65.268713 65.793996 66.317019 66.341727 66.928542 67.477153
1.845000 65.616647 66.142110 66.684215 66.683491 67.269833 67.744931
1.855000 65.974422 66.502716 67.017575 67.042074 67.610415 68.101277
1.865000 66.337061 66.836097 67.374425 67.397408 67.981703 68.448322
1.875000 66.689606 67.197050 67.759788 67.755835 68.299989 68.780689
1.885000 67.017746 67.532500 68.142389 68.108719 68.660105 69.116433
1.895000 67.326082 67.897038 68.495064 68.460163 68.992041 69.468022
1.905000 67.730030 68.252954 68.873966 68.824641 69.361595 69.845748
1.915000 68.091842 68.647804 69.202150 69.177961 69.692176 70.150916
1.925000 68.452119 69.062946 69.588201 69.554745 70.041291 70.497442
1.935000 68.922427 69.469945 69.940794 69.927854 70.397506 70.929279
1.945000 69.316149 69.846409 70.292827 70.289830 70.740143 71.253928
1.955000 69.690800 70.197938 70.594177 70.620844 71.057073 71.691835
1.965000 70.062822 70.509524 70.912944 70.952812 71.392070 72.050700
1.975000 70.420026 70.822284 71.223041 71.279861 71.772319 72.360685
1.985000 70.761266 71.122048 71.548965 71.600407 72.105745 72.633363
1.995000 71.049627 71.402395 71.857297 71.909012 72.427724 73.007736
2.005000 71.316595 71.672397 72.158508 72.202497 72.762306 73.346906
2.015000 71.568913 71.943045 72.461601 72.494088 73.056707 73.648031
2.025000 71.886706 72.220948 72.775228 72.791359 73.336799 73.921356
2.035000 72.125029 72.472788 73.083714 73.085134 73.673496 74.183466
2.045000 72.408899 72.782748 73.408573 73.397963 74.006390 74.482376
2.055000 72.664633 73.087428 73.714293 73.717976 74.336625 74.791916
2.065000 72.911357 73.402065 74.016873 74.041124 74.658986 75.095311
2.075000 73.259701 73.751310 74.354390 74.363511 74.993709 75.415269
2.085000 73.538809 74.058929 74.691689 74.661880 75.285707 75.695322
2.095000 73.840071 74.355199 74.976574 74.967786 75.597679 75.999667
2.105000 74.129381 74.623096 75.265037 75.247608 75.869313 76.267825
2.115000 74.399050 74.901735 75.550339 75.530641 76.145165 76.540784
2.125000 74.674148 75.170879 75.849763 75.805835 76.413174 76.829687
2.135000 74.943027 75.392652 76.137287 76.076628 76.685273 77.119764
2.145000 75.209343 75.634496 76.436707 76.352041 76.984338 77.375165
2.155000 75.440237 75.894507 76.737862 76.625627 77.263553 77.615778
2.165000 75.675893 76.139066 76.989610 76.880983 77.510010 77.859735
2.175000 75.940092 76.385359 77.232526 77.136283 77.758322 78.095288
2.185000 76.203619 76.660169 77.528288 77.405275 78.021340 78.337473
2.195000 76.408997 76.923795 77.790947 77.666128 78.294936 78.576694
2.205000 76.652734 77.199332 78.045065 77.925165 78.555005 78.822017
2.215000 76.931528 77.483557 78.315376 78.184453 78.785425 79.063955
2.225000 77.238701 77.783317 78.557959 78.450463 79.025525 79.317534
2.235000 77.517248 78.058423 78.820650 78.716833 79.269883 79.572563
2.245000 77.775984 78.346489 79.078905 78.969595 79.509899 79.805471
2.255000 78.062808 78.610072 79.341793 79.223427 79.742604 80.026074
2.265000 78.292934 78.893709 79.603953 79.477018 79.975978 80.301872
2.275000 78.529677 79.144203 79.846657 79.728024 80.239081 80.542958
2.285000 78.814174 79.373668 80.068729 79.972705 80.482398 80.844977
2.295000 79.115037 79.645266 80.295299 80.225707 80.731008 81.186804
2.305000 79.426762 79.890877 80.523081 80.472735 80.988054 81.481616
2.315000 79.717463 80.127584 80.760907 80.722813 81.252333 81.723941
2.325000 79.977494 80.379463 80.987832 80.975526 81.539830 82.068736
2.335000 80.229422 80.606226 81.250991 81.236937 81.846371 82.362481
2.345000 80.454824 80.835460 81.513805 81.491958 82.139579 82.697121
2.355000 80.687833 81.055350 81.776110 81.755660 82.442610 83.034340
2.365000 80.925069 81.273469 82.059320 82.020028 82.727936 83.315639
2.375000 81.180993 81.490174 82.323033 82.291036 83.055373 83.590312
2.385000 81.379982 81.702612 82.598297 82.555503 83.379854 83.885090
2.395000 81.588619 81.926689 82.877324 82.824892 83.685876 84.240966
2.405000 81.832881 82.144638 83.139748 83.099260 83.998390 84.590466
2.415000 82.066075 82.368872 83.414181 83.377180 84.338855 84.926367
2.425000 82.315423 82.591560 83.726944 83.657778 84.643899 85.252425
2.435000 82.523393 82.812601 84.009756 83.947741 84.981973 85.609895
2.445000 82.696728 83.057975 84.300792 84.236733 85.342191 85.931804
2.455000 82.914422 83.278652 84.637796 84.530186 85.688476 86.245672
2.465000 83.160823 83.530890 84.972201 84.844276 86.068833 86.619094
2.475000 83.380305 83.790250 85.309383 85.170870 86.409640 86.947938
2.485000 83.604548 84.067639 85.703470 85.489596 86.716279 87.318260
2.495000 83.846804 84.353546 86.051148 85.826551 87.060839 87.638088
2.505000 84.129803 84.673477 86.522499 86.172449 87.386948 87.956188
2.515000 84.415121 84.966203 86.949156 86.522230 87.715885 88.234762
2.525000 84.683205 85.281714 87.324000 86.863716 88.023080 88.531101
2.535000 84.979353 85.576866 87.657959 87.209516 88.324475 88.800377
2.545000 85.264220 85.884906 87.976027 87.534413 88.635328 89.094748
2.555000 85.540737 86.249051 88.309798 87.871959 88.926942 89.402356
2.565000 85.863277 86.619760 88.609684 88.202352 89.204335 89.641903
2.575000 86.183204 87.017819 88.934105 88.539887 89.464846 89.890398
2.585000 86.585866 87.329690 89.262280 88.862258 89.755826 90.121788
2.595000 86.891118 87.733231 89.566243 89.182721 90.020635 90.398007
2.605000 87.155614 88.052144 89.866433 89.487778 90.280782 90.644402
2.615000 87.503936 88.377632 90.149151 89.781314 90.534497 90.888461
2.625000 87.773257 88.723544 90.396500 90.058328 90.786459 91.144961
2.635000 88.081347 88.993496 90.660071 90.331932 91.026676 91.377073
2.645000 88.365233 89.363150 90.900931 90.598139 91.255480 91.601672
2.655000 88.674237 89.747598 91.141074 90.862599 91.487240 91.831594
2.665000 89.005847 90.143266 91.393626 91.128741 91.721247 92.098366
2.675000 89.335367 90.468615 91.621722 91.386343 91.964857 92.367590
2.685000 89.596556 90.923996 91.868470 91.653355 92.203891 92.636054
2.695000 89.932146 91.306244 92.110064 91.921768 92.443628 92.943983
2.705000 90.255316 91.718294 92.338238 92.187551 92.696471 93.210313
2.715000 90.526485 91.967286 92.590524 92.451671 92.944601 93.571087
2.725000 90.784782 92.263148 92.842171 92.708909 93.199253 93.838423
2.735000 91.091655 92.596540 93.084861 92.983110 93.450235 94.191880
2.745000 91.398737 92.849334 93.326822 93.238345 93.703861 94.545671
2.755000 91.698230 93.103695 93.563767 93.495216 93.939799 94.826335
2.765000 91.977299 93.352163 93.822142 93.762983 94.211330 95.095042
2.775000 92.233366 93.607097 94.066007 94.016216 94.455426 95.417058
2.785000 92.556506 93.884237 94.308459 94.286044 94.736219 95.629167
2.795000 92.871813 94.147073 94.547763 94.560507 94.991976 95.974831
2.805000 93.143058 94.409762 94.813537 94.842027 95.293627 96.468009
2.815000 93.508995 94.650289 95.069322 95.125399 95.601858 96.759704
2.825000 93.849865 94.926639 95.330726 95.421523 95.930263 97.085431
2.835000 94.182034 95.204543 95.596559 95.706299 96.191727 97.513127
2.845000 94.481914 95.455478 95.866827 95.984397 96.475105 97.904765
2.855000 94.840331 95.717397 96.149248 96.275194 96.787429 98.349951
2.865000 95.014092 95.962669 96.412392 96.559645 97.068159 98.767206
2.875000 95.378020 96.207452 96.716444 96.846005 97.402246 99.082703
2.885000 95.618071 96.458688 96.974079 97.133941 97.789816 99.370625
2.895000 96.018847 96.715758 97.276192 97.433002 98.146334 99.847410
