depth(m) lower_95(kyr) lower_68(kyr) median(kyr) mean(kyr) upper_68(kyr) upper_95(kyr)
0.030000 0.030205 0.188511 0.611617 0.704791 1.211773 1.932312
0.080000 0.985348 1.524137 2.338580 2.481118 3.471094 4.838149
0.130000 2.077496 2.797049 4.075707 4.161702 5.510890 6.774846
0.180000 3.309047 4.218936 5.700137 5.673280 7.109601 8.110576
0.230000 4.628492 5.737655 7.225915 7.132968 8.456538 9.341148
0.280000 6.104006 7.575590 8.872133 8.746339 9.782509 10.719805
0.330000 7.963214 9.314283 10.318133 10.263346 11.226363 12.156749
0.430000 11.505556 12.504341 13.480910 13.459474 14.394113 15.227739
0.480000 13.637014 14.780691 15.699490 15.792813 16.747024 18.504398
0.530000 15.726180 16.671261 17.929495 18.250892 19.871372 22.686142
0.580000 17.201064 18.311580 19.975750 20.212563 22.082766 24.526153
0.630000 18.551603 19.992252 21.947419 22.061854 24.026514 26.692614
0.730000 21.214541 23.597714 26.003158 26.085580 28.492737 32.020762
0.780000 23.628894 26.116256 28.615962 28.726108 31.425726 34.655899
0.830000 25.686093 28.167417 30.733059 30.911121 33.801484 36.743839
0.880000 27.593746 30.021632 32.600002 32.785731 35.868255 38.605991
0.930000 28.819960 31.535339 34.546464 34.595761 37.690536 40.775137
0.980000 30.345998 33.221885 36.184290 36.388947 39.579083 42.638359
1.030000 31.949849 34.983737 38.185215 38.287403 41.683590 44.601249
1.080000 33.210726 36.565490 39.937449 39.975761 43.502959 47.060197
1.130000 34.993289 38.240041 41.772397 41.751932 45.118041 49.032351
1.180000 36.310234 39.725725 43.432241 43.341725 46.572099 50.923342
1.230000 37.578875 41.113375 45.169782 44.960372 48.260288 52.748997
1.280000 39.247857 42.738264 46.846847 46.591494 49.713843 54.057436
1.330000 40.999962 44.816310 48.481198 48.336221 51.538586 55.363046
1.380000 42.511980 47.285806 50.176770 50.159648 53.534456 57.058870
1.430000 44.549141 49.403295 52.196704 52.186691 55.573712 58.372029
1.480000 46.669903 51.116578 54.106229 54.076824 57.376039 59.678962
1.530000 49.214327 53.061836 55.985019 55.934869 59.111037 60.955783
1.580000 51.118173 54.975775 58.048602 57.769614 60.653554 62.382043
1.630000 53.311913 57.201709 60.159027 59.765373 62.475026 64.044012
1.680000 55.273681 59.424787 62.002614 61.665047 63.947575 65.961245
1.730000 57.829142 61.718880 63.871930 63.582168 65.646955 67.611748
1.780000 59.845952 63.607216 65.493818 65.292269 67.136140 68.848377
1.880000 64.337403 66.691780 68.766443 68.585868 70.521033 72.002980
1.930000 66.404775 68.509856 70.502949 70.401371 72.298609 73.960363
1.980000 70.274896 71.638366 73.056450 73.096424 74.591489 76.026304
2.030000 71.926968 73.341446 74.667593 74.703754 76.119956 77.607764
2.080000 73.240909 74.624532 75.935776 75.949787 77.300557 78.732431
2.130000 74.416824 75.648352 77.061486 77.012471 78.318797 79.674308
2.180000 75.397209 76.652447 78.042340 78.018505 79.317310 80.749540
2.230000 76.376582 77.646655 78.996970 78.981120 80.270584 81.534451
2.280000 77.502125 78.684675 80.043514 79.997202 81.227243 82.640779
2.330000 78.736612 79.871780 81.090911 81.071895 82.192468 83.431124
2.380000 79.827390 81.031008 82.184154 82.169825 83.208965 84.381085
2.430000 81.035076 82.189565 83.253428 83.232823 84.215569 85.303541
2.480000 82.312503 83.438566 84.350323 84.353574 85.262817 86.397885
2.530000 83.576431 84.567338 85.413112 85.456028 86.353473 87.391659
2.580000 84.615183 85.639723 86.445037 86.492888 87.316738 88.527072
2.630000 85.639053 86.631700 87.446567 87.495921 88.313570 89.483339
2.680000 86.729114 87.614365 88.464125 88.504859 89.392304 90.558477
2.730000 87.746490 88.619524 89.452393 89.498546 90.387556 91.532762
2.780000 88.748052 89.563575 90.438083 90.468801 91.374428 92.442057
2.830000 89.672377 90.523957 91.369350 91.449878 92.384158 93.549909
2.880000 90.755466 91.470111 92.359481 92.411065 93.370039 94.555311
2.930000 91.736826 92.514161 93.310187 93.412413 94.344460 95.435266
2.980000 92.626156 93.484128 94.324284 94.422363 95.383566 96.638433
3.030000 93.588068 94.419199 95.271069 95.415149 96.463997 97.802675
3.080000 94.431533 95.388545 96.265810 96.404999 97.481713 99.033938
3.130000 95.480109 96.281831 97.231177 97.395693 98.502921 100.091028
3.180000 96.275430 97.264504 98.224066 98.397084 99.544582 101.201060
3.230000 97.228091 98.206801 99.245700 99.410163 100.649374 102.539877
3.280000 98.089636 99.113128 100.211087 100.394018 101.649770 103.722077
3.330000 98.917884 100.057464 101.192407 101.380253 102.678608 105.191495
3.380000 99.833952 100.986074 102.133236 102.373356 103.729123 106.350887
3.430000 100.827569 101.975801 103.181256 103.464194 104.958921 107.638838
3.480000 101.828075 103.020536 104.325059 104.677915 106.429546 109.341754
3.530000 103.065924 104.205417 105.701769 106.058258 108.013523 110.862617
3.630000 105.596370 107.259966 109.387633 109.377936 111.512507 113.166188
3.680000 107.007723 109.182027 111.580346 111.332613 113.328390 114.664302
3.780000 111.677771 113.527549 115.056462 114.886294 116.174440 117.289679
3.880000 116.098206 117.167323 118.205602 118.327755 119.474888 121.419409
3.930000 117.659510 118.678595 119.854290 120.048611 121.454895 123.430532
3.980000 118.852153 120.187076 121.695029 121.886386 123.721699 125.661867
4.030000 120.408143 121.791360 123.870225 123.844669 125.765127 127.311810
4.080000 122.234833 124.037959 126.358865 126.097164 127.882757 128.991792
4.130000 125.113182 127.451251 128.884611 128.722138 130.061268 131.416358
4.180000 129.672680 130.953525 132.161201 132.258717 133.605666 134.949748
4.230000 133.199599 134.475052 136.384210 136.668234 138.833884 141.713707
4.280000 135.958355 137.438653 139.673413 139.786903 142.132916 144.540008
4.330000 138.106848 140.159179 142.672051 142.729551 145.061989 147.745823
4.380000 140.644699 143.128973 145.645991 145.715374 148.213140 151.450561
4.430000 144.146339 146.559768 149.018874 149.114826 151.442476 154.494497
4.480000 147.002906 149.251635 151.546528 151.783486 154.111444 158.052010
4.530000 149.018294 151.562755 153.967395 154.303726 156.638577 163.740488
4.580000 151.468112 154.273552 156.902058 157.167695 159.511725 166.351262
4.630000 154.221694 157.184981 159.685002 160.325463 163.459409 169.917567
4.730000 160.213112 165.074406 171.367755 170.771293 176.233422 179.914356
4.780000 163.001058 168.126414 174.932245 174.112376 179.840119 182.396118
4.830000 165.619996 171.643418 178.523338 177.398165 182.338304 184.394957
4.930000 174.097712 181.369938 184.755818 183.818379 186.336613 187.726896
4.980000 178.503954 185.223987 187.332158 186.709982 188.668960 190.011779
5.030000 185.132514 188.129660 189.473837 189.265231 190.855979 192.223495
5.080000 187.940097 189.734093 191.055066 190.938242 192.551432 193.938766
5.130000 189.531285 191.254344 192.555391 192.493859 194.101880 195.715783
5.180000 191.130276 192.681622 194.186970 194.140141 195.837730 197.723475
