depth(m) lower_95(kyr) lower_68(kyr) median(kyr) mean(kyr) upper_68(kyr) upper_95(kyr)
0.050000 0.044029 0.209595 0.504032 0.541091 0.863869 1.299009
0.100000 0.271689 0.449583 0.743402 0.782565 1.113268 1.535262
0.150000 0.448959 0.684787 0.978613 1.013144 1.325366 1.839511
0.200000 0.675449 0.912586 1.195717 1.233640 1.540930 2.057739
0.250000 0.868815 1.122195 1.430293 1.460003 1.758654 2.297022
0.300000 1.092020 1.358271 1.651695 1.686427 1.983891 2.570854
0.350000 1.302695 1.569700 1.874838 1.905788 2.206628 2.836718
0.450000 1.741703 1.978338 2.272845 2.324600 2.652672 3.332214
0.500000 1.947439 2.208686 2.497239 2.550324 2.881829 3.517066
0.550000 2.170292 2.422085 2.723401 2.775697 3.120036 3.733950
0.600000 2.376913 2.641072 2.936693 2.999520 3.347635 3.950534
0.650000 2.601425 2.856071 3.169902 3.231225 3.599058 4.182852
0.700000 2.824376 3.077417 3.403217 3.459374 3.843026 4.424921
0.750000 3.026313 3.299746 3.635484 3.686419 4.063871 4.695956
0.800000 3.231292 3.513753 3.863574 3.912369 4.319733 4.920325
0.850000 3.425809 3.720959 4.092179 4.138607 4.548880 5.178894
0.900000 3.651171 3.942898 4.319097 4.367499 4.812967 5.392545
0.950000 3.868896 4.148175 4.550629 4.597257 5.054670 5.602902
1.000000 4.073190 4.374320 4.779793 4.830683 5.347257 5.877578
1.050000 4.269375 4.574176 5.016890 5.063771 5.579208 6.094929
1.100000 4.492360 4.801997 5.271104 5.303285 5.837444 6.305269
1.150000 4.709077 5.024330 5.517804 5.542778 6.089250 6.538332
1.200000 4.905200 5.245478 5.772633 5.784496 6.342046 6.756133
1.250000 5.093797 5.470115 6.034121 6.027239 6.586552 7.022259
1.300000 5.365835 5.702340 6.285789 6.275386 6.823970 7.273218
1.350000 5.566398 5.970959 6.549799 6.521503 7.071798 7.516493
1.400000 5.794112 6.175376 6.786218 6.760251 7.293744 7.736650
1.450000 6.035882 6.421529 7.021570 7.001483 7.536201 7.949766
1.550000 6.385513 6.916017 7.494165 7.455884 7.985829 8.358644
1.600000 6.679411 7.150343 7.751028 7.708748 8.215751 8.614114
1.650000 6.967798 7.408706 8.029346 7.973221 8.480508 8.864634
1.700000 7.223603 7.706451 8.309873 8.260707 8.772813 9.163192
1.750000 7.509268 8.009317 8.591580 8.550474 9.046596 9.457112
1.800000 7.852069 8.400547 8.918332 8.889630 9.369389 9.831963
1.850000 8.211000 8.791140 9.302033 9.271557 9.747915 10.231344
1.900000 8.620455 9.219960 9.705921 9.705498 10.218581 10.696810
1.950000 9.038835 9.609663 10.085161 10.087810 10.581498 11.084446
2.000000 9.538159 10.034909 10.467344 10.493203 10.965341 11.429897
2.050000 9.986717 10.470640 10.903162 10.919162 11.389763 11.897902
2.100000 10.467312 10.843936 11.267482 11.301575 11.777411 12.293885
2.150000 10.751438 11.164511 11.582205 11.611537 12.086602 12.576862
2.200000 11.045584 11.441601 11.864114 11.887555 12.352492 12.827848
2.250000 11.327718 11.691128 12.123125 12.149853 12.630275 13.056843
2.300000 11.589183 11.949896 12.376288 12.407024 12.892618 13.317280
2.350000 11.831345 12.194777 12.631517 12.657340 13.167170 13.559576
2.400000 12.056080 12.462351 12.903913 12.918822 13.415247 13.832340
2.450000 12.291681 12.726192 13.188897 13.199792 13.684854 14.114839
2.500000 12.516908 13.010203 13.469039 13.479068 13.956306 14.388838
2.550000 12.857784 13.330360 13.804842 13.792414 14.253395 14.668959
2.600000 13.281812 13.691694 14.163701 14.158532 14.611467 15.132441
2.650000 13.611646 14.088750 14.562491 14.564242 15.014784 15.564556
2.700000 14.033112 14.520975 15.012834 15.022912 15.504321 16.068313
2.750000 14.544438 15.036921 15.494794 15.531817 16.040224 16.654772
2.800000 15.044353 15.564902 16.073285 16.124940 16.733240 17.406753
2.850000 15.445603 15.979901 16.564786 16.615574 17.246861 18.134939
2.900000 15.781670 16.334686 16.970685 17.044685 17.752599 18.775422
2.950000 16.118438 16.662458 17.361437 17.438689 18.182553 19.286699
3.020000 16.525083 17.142360 17.992021 18.076175 18.999192 20.203024
3.150000 17.334925 18.193340 19.351228 19.375498 20.623899 21.352022
3.200000 17.649848 18.640941 19.851962 19.838689 21.048202 21.744548
3.250000 18.021982 19.057009 20.350622 20.267990 21.442965 22.082665
3.300000 18.407649 19.516094 20.761377 20.678845 21.832013 22.411540
3.350000 18.877426 20.001705 21.169962 21.069312 22.167531 22.663857
3.400000 19.236890 20.404932 21.583574 21.471235 22.505956 22.951579
3.450000 19.835647 20.873651 21.990888 21.850605 22.773835 23.196480
3.500000 20.282983 21.289476 22.348064 22.225994 23.066591 23.518039
3.550000 20.785462 21.726454 22.736601 22.595576 23.353358 23.807826
3.600000 21.140592 22.182954 23.112961 22.952535 23.611334 24.123516
3.650000 21.668722 22.583406 23.510978 23.317028 23.890546 24.466408
3.660000 21.713601 22.669353 23.582176 23.388449 23.958955 24.535432
3.680000 21.860602 22.801895 23.706647 23.521668 24.070181 24.653649
3.720000 22.242334 23.068115 23.954449 23.774992 24.301520 24.869922
3.740000 22.367932 23.192757 24.076967 23.900717 24.426513 25.022055
3.750000 22.442741 23.260525 24.138480 23.966778 24.495028 25.069579
3.800000 22.820352 23.605109 24.394744 24.280631 24.830879 25.423336
3.850000 23.188710 23.916306 24.665675 24.583925 25.172652 25.730868
3.900000 23.406180 24.247360 24.947365 24.884388 25.453774 26.010093
3.950000 23.762618 24.552394 25.223200 25.191061 25.757987 26.368216
4.000000 24.038923 24.896772 25.473063 25.472740 26.057268 26.761816
4.100000 24.744569 25.416863 25.995669 26.012151 26.588092 27.443500
4.150000 25.018450 25.723918 26.273002 26.293352 26.865441 27.799814
4.200000 25.334435 26.023938 26.559293 26.585564 27.126931 28.181966
4.250000 25.636471 26.307540 26.857531 26.887153 27.441858 28.458415
4.300000 25.992296 26.598825 27.171576 27.195578 27.712483 28.858124
4.350000 26.370573 26.916121 27.501756 27.514685 28.048573 29.133052
4.400000 26.620193 27.236361 27.813853 27.841841 28.363395 29.508796
4.450000 26.967123 27.552684 28.116242 28.171518 28.726312 29.774964
4.480000 27.148228 27.766426 28.307838 28.378571 28.925066 29.979554
4.520000 27.450921 28.078797 28.604425 28.667797 29.258237 30.289637
4.550000 27.670845 28.324335 28.835988 28.889644 29.500077 30.480784
4.600000 28.030936 28.662038 29.142328 29.241125 29.891733 30.790427
4.650000 28.443699 28.987705 29.484798 29.570195 30.283476 31.029267
4.700000 28.758028 29.261753 29.759957 29.884709 30.662783 31.358799
4.750000 29.040684 29.531139 30.026694 30.179409 30.978505 31.681565
4.800000 29.284486 29.783461 30.269969 30.451261 31.302240 32.002505
4.850000 29.576833 30.056794 30.532260 30.721821 31.583281 32.322747
4.900000 29.861433 30.280104 30.791757 30.979275 31.876977 32.623645
4.950000 30.112462 30.517553 31.054711 31.239546 32.105656 32.957872
5.000000 30.344420 30.749217 31.300483 31.500267 32.373422 33.230863
5.050000 30.601724 30.978558 31.569316 31.766031 32.662914 33.601698
5.100000 30.796665 31.223155 31.855257 32.038087 32.913789 33.901782
5.150000 31.057853 31.458533 32.120521 32.310334 33.216354 34.161155
5.200000 31.317265 31.707381 32.408655 32.578312 33.463198 34.445316
5.250000 31.506800 31.956177 32.709462 32.851620 33.720198 34.820986
5.300000 31.727557 32.190138 32.997735 33.122838 33.993666 35.142571
5.350000 31.925551 32.444331 33.293683 33.395536 34.252783 35.499383
5.400000 32.133831 32.692710 33.660308 33.678440 34.549232 35.862841
5.450000 32.384589 32.935304 33.996799 33.957801 34.827983 36.098047
5.500000 32.621909 33.167523 34.300863 34.244985 35.116235 36.458305
5.550000 32.873072 33.440735 34.604450 34.532616 35.335278 36.816493
5.600000 33.104947 33.696300 34.872666 34.805909 35.605920 37.106829
5.650000 33.337829 33.933135 35.159242 35.083472 35.871653 37.359960
5.700000 33.580999 34.160845 35.450610 35.358790 36.127984 37.675469
5.750000 33.783587 34.420773 35.714860 35.633853 36.403873 37.973643
5.800000 34.047859 34.646683 35.986455 35.905999 36.724702 38.312374
5.850000 34.306037 34.913701 36.240898 36.184925 37.026711 38.559216
5.900000 34.526554 35.163361 36.502039 36.460120 37.333411 38.855768
5.950000 34.815871 35.442383 36.739325 36.740769 37.689698 39.167212
5.980000 34.980864 35.620172 36.924765 36.920161 37.893403 39.347937
6.030000 35.220678 35.937133 37.218359 37.221715 38.216595 39.664312
6.050000 35.333555 36.022037 37.344790 37.349975 38.401549 39.770856
6.100000 35.598563 36.360577 37.628486 37.642203 38.689209 40.080207
6.150000 35.861672 36.656092 37.931144 37.940926 38.998753 40.374808
6.200000 36.119516 36.984733 38.226397 38.236776 39.432043 40.638826
6.250000 36.425719 37.248077 38.503128 38.537069 39.759326 40.968703
6.300000 36.675484 37.596602 38.827148 38.842667 40.068736 41.309969
6.350000 36.951951 37.908263 39.114873 39.149869 40.405823 41.612366
6.400000 37.244057 38.192323 39.420129 39.467096 40.670684 41.939837
6.450000 37.485182 38.524268 39.752405 39.776916 41.031386 42.174987
6.500000 37.752332 38.891263 40.048768 40.091978 41.364103 42.477884
6.550000 37.973754 39.231091 40.382151 40.426868 41.717283 42.916398
6.600000 38.292778 39.563307 40.707974 40.761676 42.083597 43.218567
6.650000 38.629354 39.939290 41.026351 41.107775 42.431637 43.565982
6.700000 38.929253 40.317614 41.385933 41.445704 42.791944 43.853330
6.750000 39.408231 40.644570 41.731324 41.787752 43.122653 44.197196
6.800000 39.695730 41.014030 42.093750 42.143641 43.508935 44.463487
6.850000 40.012096 41.362173 42.450896 42.507775 43.856462 44.828428
6.900000 40.423694 41.717261 42.806582 42.875885 44.205501 45.111155
6.950000 40.732609 42.105029 43.153067 43.237242 44.620311 45.486411
7.000000 41.127634 42.530481 43.555356 43.610812 44.983943 45.858932
7.050000 41.453175 42.960880 43.960041 44.012810 45.330327 46.177241
7.100000 41.933817 43.370154 44.378220 44.434635 45.661907 46.569211
7.150000 42.557628 43.828263 44.827440 44.855482 45.998636 46.880548
7.200000 43.097452 44.339244 45.301154 45.293614 46.333963 47.196493
7.250000 43.617744 44.853541 45.791381 45.736698 46.683879 47.515549
7.300000 44.118008 45.379525 46.270895 46.196810 47.038594 47.914676
7.350000 44.740530 45.875194 46.735813 46.662597 47.502422 48.338301
7.400000 45.365395 46.369851 47.174576 47.107301 47.902516 48.684143
7.450000 45.781461 46.853212 47.547765 47.518094 48.287385 49.064831
7.480000 46.126803 47.067865 47.785736 47.754287 48.512288 49.220693
7.520000 46.424203 47.423897 48.078880 48.066197 48.827500 49.487634
7.550000 46.645659 47.674791 48.302318 48.312206 49.083137 49.698492
7.600000 47.196164 48.048572 48.766966 48.739426 49.513057 50.060040
7.650000 47.626654 48.486066 49.211362 49.159351 49.919380 50.420257
7.700000 48.038766 48.895038 49.627555 49.566482 50.299896 50.761165
7.750000 48.384827 49.291524 50.021656 49.937186 50.619012 51.049497
7.850000 49.182173 50.038502 50.711036 50.614006 51.214367 51.754866
7.900000 49.665299 50.404138 51.024819 50.952760 51.478557 52.107846
7.950000 50.010875 50.747307 51.350930 51.267074 51.766607 52.399897
8.000000 50.321401 51.080874 51.654619 51.583425 52.045467 52.716930
8.050000 50.573473 51.482955 51.942329 51.890390 52.328466 52.993817
8.100000 50.907827 51.790102 52.221982 52.193654 52.611315 53.356603
8.150000 51.280899 52.080189 52.504044 52.500352 52.942523 53.755222
8.200000 51.582734 52.389260 52.788233 52.798998 53.250558 54.179925
8.250000 51.917048 52.681811 53.064108 53.101618 53.549393 54.585879
8.300000 52.267673 52.972488 53.370714 53.412736 53.866643 54.964446
8.350000 52.635329 53.270296 53.677874 53.735491 54.233336 55.395917
8.400000 52.940898 53.550727 53.999785 54.070164 54.615298 55.936711
8.450000 53.332508 53.832861 54.303708 54.400583 54.979272 56.278681
8.500000 53.685637 54.125705 54.632944 54.739625 55.341656 56.769159
8.550000 54.023139 54.439834 54.966983 55.086820 55.771328 57.184132
8.600000 54.292445 54.723721 55.330142 55.441000 56.175068 57.566017
8.650000 54.572481 55.021228 55.678114 55.805651 56.604868 57.844909
8.700000 54.813661 55.324341 56.029274 56.158961 57.011836 58.240877
8.750000 55.090049 55.702060 56.426016 56.535392 57.482193 58.607135
8.800000 55.420810 56.048824 56.849990 56.919695 57.920011 58.989449
8.850000 55.661715 56.410773 57.222959 57.294695 58.326484 59.348220
8.900000 56.031410 56.756821 57.563455 57.672539 58.701697 59.754299
8.950000 56.371675 57.173658 57.916832 58.047314 59.148945 60.201194
8.980000 56.587188 57.398416 58.138177 58.273754 59.394388 60.451844
9.020000 56.895368 57.725998 58.434079 58.582119 59.692143 60.747721
9.050000 57.144190 57.918690 58.649509 58.802923 59.954449 60.986009
9.100000 57.449248 58.265700 59.006617 59.180366 60.363725 61.429440
9.150000 57.803299 58.614520 59.316443 59.549396 60.778620 61.887738
9.200000 58.055305 58.935657 59.707972 59.933462 61.237453 62.416273
9.250000 58.410010 59.265226 60.051721 60.317670 61.650649 62.993212
9.300000 58.714791 59.594568 60.432283 60.731161 62.195911 63.664989
9.350000 59.007033 59.935119 60.785305 61.143400 62.725423 64.462203
9.400000 59.314640 60.197244 61.175544 61.553702 63.234171 65.143225
9.450000 59.733979 60.498522 61.564633 61.983407 63.742565 65.897829
9.500000 60.118110 60.773842 61.911736 62.379008 64.388553 66.498613
9.550000 60.485961 61.058643 62.235782 62.783106 65.082226 67.018806
9.600000 60.793856 61.331830 62.584032 63.192922 65.605915 67.433590
9.650000 61.101324 61.626566 62.961384 63.620875 66.267894 67.890470
9.700000 61.380929 61.910527 63.333140 64.012952 66.785330 68.230731
9.750000 61.665562 62.193440 63.679621 64.396561 67.244123 68.560783
9.800000 61.906090 62.481705 64.025097 64.790252 67.793755 68.896100
9.850000 62.150789 62.793528 64.500466 65.182526 68.321449 69.254775
9.900000 62.472012 63.190479 64.985464 65.592213 68.687266 69.573976
9.950000 62.827395 63.675376 65.618418 66.053959 68.978217 69.820142
10.000000 63.230032 64.159884 66.220254 66.526408 69.237291 70.074026
10.050000 63.698367 64.785193 66.724427 67.018272 69.525873 70.389348
10.100000 64.047336 65.407653 67.250597 67.474899 69.824007 70.673196
10.150000 64.545229 65.972105 67.845669 67.954157 70.106576 70.984638
10.250000 66.038055 67.494661 68.861915 68.959976 70.689006 71.630254
10.300000 66.957662 68.055598 69.323704 69.447132 70.991599 71.946790
10.350000 67.570773 68.563962 69.753265 69.883417 71.319948 72.283158
10.400000 68.133971 69.149614 70.184572 70.331798 71.637062 72.757654
10.450000 68.751744 69.630312 70.701049 70.794857 72.045111 73.138440
10.480000 69.055907 69.944228 70.997726 71.095016 72.329736 73.600983
10.520000 69.580148 70.331763 71.389866 71.518219 72.713960 74.182464
10.550000 69.982636 70.676128 71.751267 71.880663 73.072476 74.524027
10.600000 70.707390 71.460714 72.651548 72.712447 73.932068 75.334438
10.650000 71.386159 72.320817 73.521486 73.617827 74.893054 76.417532
10.750000 75.319983 76.866859 78.127068 78.072837 79.260991 80.420030
10.800000 76.366908 78.123399 79.321765 79.295161 80.485167 81.550705
10.850000 77.562994 79.088401 80.338741 80.271805 81.472788 82.553455
10.900000 78.461812 79.859428 81.137348 81.070254 82.282354 83.306127
10.950000 79.020246 80.602759 81.925671 81.836949 83.120256 83.922779
11.000000 79.901900 81.308049 82.745985 82.602460 83.844810 84.423823
11.050000 80.548892 82.228255 83.614932 83.343903 84.420207 84.857589
11.100000 81.401731 83.154453 84.301543 84.039226 84.922242 85.289732
11.150000 82.455431 84.067302 84.823856 84.649635 85.304974 85.671379
11.200000 83.409559 84.667023 85.257026 85.138441 85.662707 86.007714
11.250000 84.398041 85.149891 85.620644 85.554096 85.997755 86.326399
11.300000 84.935751 85.560648 85.961923 85.925243 86.308532 86.663522
11.350000 85.277339 85.900537 86.265162 86.240089 86.607363 86.922907
11.400000 85.688124 86.184882 86.563543 86.534722 86.896394 87.208722
11.450000 86.075344 86.497162 86.848872 86.833536 87.172584 87.489379
11.500000 86.431555 86.805601 87.127520 87.128928 87.467386 87.788919
11.550000 86.715088 87.087553 87.422232 87.422469 87.747322 88.059613
11.600000 86.994282 87.355582 87.717312 87.704942 88.037891 88.341132
11.650000 87.331050 87.645501 87.994692 87.985310 88.322172 88.646776
11.700000 87.620306 87.939233 88.267936 88.266519 88.607323 88.910483
11.750000 87.907772 88.219777 88.557613 88.552545 88.882250 89.164970
11.800000 88.189107 88.510423 88.836610 88.839943 89.159792 89.438026
11.850000 88.489830 88.796972 89.124599 89.129536 89.454044 89.728335
11.900000 88.783644 89.100478 89.428045 89.417843 89.740845 90.028218
11.950000 89.040078 89.376688 89.719686 89.704652 90.019104 90.385282
11.980000 89.211848 89.557927 89.898357 89.890594 90.219122 90.570047
12.020000 89.479804 89.791652 90.137453 90.141742 90.481785 90.856318
12.050000 89.691114 89.981655 90.343009 90.346257 90.692026 91.092618
12.100000 89.965396 90.285651 90.667693 90.677868 91.074801 91.537581
12.150000 90.226759 90.606490 90.980995 91.014291 91.434613 92.016560
12.200000 90.570353 90.920091 91.338641 91.383441 91.839880 92.528036
12.250000 90.842190 91.247142 91.711089 91.765890 92.262622 93.073168
12.300000 91.193007 91.629016 92.117937 92.204601 92.792841 93.581815
12.350000 91.581869 92.050086 92.575007 92.703247 93.405434 94.318890
12.400000 92.030363 92.521666 93.254610 93.349155 94.198813 95.158494
12.450000 92.462016 93.080815 93.975816 94.057952 95.006280 96.182740
12.500000 93.111566 93.912675 94.929729 95.013233 96.116657 97.294422
12.550000 94.059839 95.126757 96.266461 96.302733 97.505755 98.683178
12.600000 95.129482 96.278764 97.454640 97.540439 98.886508 100.318871
12.650000 96.075067 97.360958 98.757116 98.765623 100.159858 101.395668
12.700000 97.160224 98.544765 100.066957 99.997437 101.309126 102.583503
12.750000 98.522480 99.938982 101.361353 101.291464 102.659854 103.796881
12.800000 99.895439 101.279759 102.778558 102.680651 103.990585 105.225105
12.850000 101.254606 102.661302 104.041502 103.960157 105.209536 106.375546
12.900000 102.520021 103.876994 105.096199 105.080775 106.375935 107.309409
12.950000 103.584081 104.765228 106.002160 105.946155 107.149667 108.118725
13.000000 104.154851 105.428217 106.755355 106.660359 107.855646 108.700835
13.050000 104.737317 106.044991 107.441316 107.312920 108.452728 109.249872
13.100000 105.315226 106.760274 108.067900 107.929419 109.090477 109.807226
13.150000 105.766513 107.306548 108.691094 108.503384 109.621453 110.277277
13.200000 106.218202 107.941551 109.262086 109.068764 110.147386 110.761196
13.250000 106.785723 108.632108 109.859586 109.638322 110.600861 111.278322
13.300000 107.303985 109.265442 110.403109 110.182284 111.103980 111.783744
13.350000 107.895618 109.959970 110.880191 110.691332 111.537288 112.203416
13.400000 108.541898 110.553416 111.325360 111.179077 111.936356 112.536260
13.450000 109.227040 111.049156 111.724240 111.611705 112.305650 112.914525
13.480000 109.523950 111.335965 111.954888 111.865461 112.519223 113.160440
13.520000 109.968318 111.704254 112.250465 112.182312 112.823324 113.429132
13.550000 110.245237 111.910495 112.483413 112.411185 113.030345 113.641806
13.600000 110.853514 112.265988 112.834901 112.777831 113.392714 114.004366
13.650000 111.402655 112.642850 113.170551 113.145110 113.741538 114.330482
13.700000 111.955942 113.009142 113.540333 113.505057 114.071550 114.701856
13.750000 112.237109 113.359663 113.871290 113.849729 114.386383 115.018567
13.800000 112.764271 113.710921 114.237629 114.219150 114.767784 115.386213
13.850000 113.194747 114.065748 114.576287 114.579592 115.155256 115.754454
13.900000 113.711840 114.432076 114.978217 114.986529 115.604673 116.244421
13.950000 114.330352 114.877399 115.465329 115.478795 116.112137 116.825135
14.000000 114.728808 115.368024 115.997186 116.047005 116.744824 117.587070
14.050000 115.211622 115.816985 116.546130 116.581170 117.348275 118.211275
14.100000 115.703542 116.435713 117.244133 117.277587 118.107040 119.137062
14.150000 116.662883 117.518910 118.414128 118.431384 119.322221 120.342031
14.200000 117.795727 118.521087 119.500127 119.517926 120.489053 121.352061
14.250000 118.489990 119.393965 120.300353 120.345920 121.379811 122.221602
