depth(m) lower_95(kyr) lower_68(kyr) median(kyr) mean(kyr) upper_68(kyr) upper_95(kyr)
11.300000 300.609470 301.425079 302.383464 302.427058 303.315292 304.470602
11.330000 301.161399 301.893358 302.881450 302.916352 303.771526 305.006178
11.350000 301.546394 302.226225 303.216196 303.244421 304.077769 305.226189
11.380000 301.959779 302.697084 303.697426 303.716380 304.504738 305.961414
11.400000 302.242659 303.029297 304.017441 304.047084 304.855211 306.495350
11.430000 302.660951 303.509625 304.480769 304.533642 305.356007 306.934744
11.450000 303.009639 303.846353 304.822504 304.862784 305.656050 307.403099
11.480000 303.405678 304.363502 305.318991 305.382965 306.248139 307.893220
11.500000 303.730947 304.727850 305.687245 305.755205 306.682407 308.281016
11.530000 304.243428 305.303414 306.236774 306.345967 307.362836 308.865101
11.550000 304.552223 305.684065 306.629735 306.742546 307.814798 309.382390
11.580000 305.160008 306.292332 307.247068 307.362765 308.484197 309.920765
11.600000 305.544964 306.720157 307.723585 307.779632 308.875190 310.347688
11.630000 306.264993 307.328757 308.374352 308.434301 309.515425 311.102344
11.650000 306.802025 307.772483 308.854302 308.904058 309.945337 311.460666
11.680000 307.369513 308.491275 309.542291 309.575671 310.612781 312.157231
11.700000 307.811244 308.902135 309.980611 310.019900 311.059486 312.639987
11.730000 308.445544 309.614038 310.668494 310.730099 311.877051 313.378458
11.750000 308.943454 310.018325 311.131215 311.199510 312.324239 314.156409
11.780000 309.568809 310.671976 311.753982 311.893540 313.142130 314.978668
11.800000 310.038719 311.096952 312.160047 312.344628 313.656539 315.512024
11.830000 310.644332 311.712226 312.769326 313.033998 314.538764 316.447860
11.850000 311.135068 312.113250 313.209665 313.496072 315.054935 317.039340
11.880000 311.726040 312.679151 313.914999 314.219276 315.885567 317.940338
11.900000 312.057256 313.144616 314.400016 314.703140 316.472660 318.507917
11.930000 312.644769 313.668769 315.206893 315.451163 317.302982 319.624741
11.980000 313.546354 314.644670 316.450360 316.759730 318.898357 321.581319
12.010000 314.128801 315.277183 317.193833 317.529556 319.856853 322.363683
12.141429 316.373408 318.383938 321.875878 322.429528 326.367610 331.879041
12.272857 318.908504 322.490135 327.055400 327.781099 333.336350 339.071192
12.404286 322.374616 327.138755 332.805561 333.084786 339.388811 345.127672
12.535714 326.952995 332.382546 338.378295 338.505165 344.758463 350.025015
12.667143 332.376224 338.309848 344.052696 343.963769 350.083462 354.736099
12.798571 338.231943 344.089484 348.955296 349.178428 354.802563 357.948609
12.930000 346.520474 349.413879 354.727635 354.168272 358.546738 360.483306
12.950000 347.169899 349.860676 355.342223 354.647133 359.045000 361.114706
12.970000 347.846686 350.320329 355.865998 355.084648 359.469677 361.490872
12.990000 348.141811 350.760839 356.304060 355.486190 359.880449 361.793165
13.010000 348.518143 351.140336 356.792802 355.867751 360.293456 362.198834
13.030000 348.877239 351.469608 357.119246 356.210174 360.600569 362.561134
13.050000 349.326528 351.832552 357.507561 356.559842 360.953368 362.936013
13.090000 349.995224 352.517955 358.093219 357.202588 361.590777 363.489791
13.140000 350.585178 353.246705 358.809117 358.006556 362.425651 364.329452
13.268571 352.249435 355.062667 360.481835 359.775379 363.890873 365.848276
13.397143 353.893793 356.961737 362.329229 361.556271 365.596204 367.631660
13.525714 355.631003 358.911770 364.025908 363.346223 367.203300 369.375283
13.654286 357.523893 360.709331 365.845539 365.137113 368.872654 370.779490
13.782857 359.332572 362.726222 367.569487 366.937957 370.519133 372.317119
13.911429 361.619558 364.724103 369.236176 368.677662 372.039932 373.744817
14.040000 363.488518 366.780227 371.011632 370.435698 373.665367 375.081177
14.140000 364.753459 368.362999 372.499578 371.825948 374.964614 376.268814
14.200000 365.745454 369.180798 373.341714 372.683973 375.798714 377.032027
14.220000 366.097312 369.530467 373.622773 372.977985 376.056472 377.271345
14.260000 366.837355 370.120083 374.229455 373.552119 376.582991 377.755320
14.370000 368.623798 371.660622 375.439421 374.901625 377.707523 378.965331
14.480000 370.578757 373.375705 376.693248 376.247837 378.831560 380.061312
14.590000 372.282216 374.973869 378.067657 377.570417 379.981024 381.130870
14.700000 373.989163 376.497750 379.318483 378.903842 381.097905 382.154180
14.720000 374.512013 376.770169 379.594686 379.185330 381.331086 382.429512
14.740000 374.874887 377.092699 379.914365 379.463239 381.595292 382.694043
14.780000 375.435021 377.578743 380.475319 379.987482 382.070840 383.118137
14.820000 376.150330 378.164936 381.044769 380.492321 382.507345 383.584582
14.880000 376.739770 378.971945 381.680375 381.190136 383.174161 384.200240
15.025000 378.216144 380.777706 383.127304 382.758299 384.623960 385.518987
15.170000 379.453733 382.434445 384.590773 384.281404 386.081489 386.820699
15.180000 379.571627 382.610457 384.737085 384.412027 386.218978 386.938678
15.200000 379.817074 382.844571 384.994232 384.667933 386.437769 387.158502
15.280000 380.778948 383.843306 385.914293 385.576503 387.235511 387.998558
15.425000 382.182314 385.591974 387.467057 387.063998 388.448923 389.217042
15.570000 383.850864 387.477653 389.035448 388.607916 389.807676 390.475823
15.590000 384.169840 387.872954 389.313779 388.876033 390.062329 390.687727
15.600000 384.268776 388.045896 389.469578 389.024527 390.203401 390.805211
15.620000 384.539272 388.394910 389.758272 389.327025 390.500420 391.071576
15.630000 384.677403 388.579621 389.920343 389.482745 390.628680 391.269185
15.640000 384.932278 388.753366 390.070705 389.644946 390.794604 391.370817
15.720000 386.603573 389.981684 391.131384 390.810483 391.880889 392.635955
15.850000 389.545690 391.862310 392.798093 392.640087 393.554086 394.227957
15.980000 392.971703 393.848190 394.526030 394.493318 395.173443 395.836284
16.000000 393.365509 394.172704 394.819375 394.799538 395.441574 396.100363
16.020000 393.731520 394.480784 395.088377 395.089469 395.723824 396.406396
16.060000 394.268393 394.971671 395.572531 395.592607 396.226365 396.928934
16.100000 394.721444 395.469064 396.069202 396.102054 396.764244 397.569243
16.160000 395.372209 396.130306 396.805834 396.819467 397.506573 398.387998
16.280000 396.559665 397.394344 398.113019 398.162629 398.925214 400.110673
16.400000 397.607578 398.565069 399.422606 399.471038 400.397441 401.463972
16.520000 398.870945 399.744004 400.715754 400.768616 401.842773 402.921951
16.640000 400.041836 400.991826 402.046356 402.069042 403.161251 404.321063
16.753333 401.116193 402.213051 403.376383 403.351195 404.462308 405.445623
16.866667 402.252964 403.551558 404.761457 404.674065 405.765754 406.785863
16.980000 403.571282 404.948056 406.119582 406.063136 407.182081 408.024688
17.000000 403.938871 405.251864 406.398969 406.361812 407.451813 408.286308
17.020000 404.199521 405.606936 406.725751 406.683407 407.778359 408.568588
17.040000 404.667867 405.963283 407.074424 407.005334 408.095967 408.841458
17.100000 405.850090 406.994727 407.988718 407.916509 408.892972 409.574255
17.120000 406.208780 407.376121 408.296407 408.246000 409.198981 409.843622
17.130000 406.328417 407.564827 408.489490 408.412974 409.335007 410.059801
17.160000 406.841819 408.045018 408.979352 408.905565 409.750229 410.457077
17.180000 407.281268 408.404981 409.340518 409.245398 410.086033 410.794625
17.200000 407.600306 408.756203 409.654286 409.576837 410.436875 411.128817
17.220000 408.059449 409.088686 409.995315 409.919457 410.758537 411.409358
17.270000 409.044261 409.998916 410.801957 410.746303 411.482607 412.138098
17.300000 409.735573 410.587351 411.327881 411.314989 412.091143 412.638637
17.320000 410.156261 410.988804 411.750521 411.716647 412.445711 412.969897
17.340000 410.686086 411.485675 412.224161 412.174111 412.879698 413.482620
17.350000 410.854489 411.694742 412.413086 412.380492 413.102239 413.677162
17.370000 411.344007 412.111828 412.862831 412.825213 413.556493 413.996813
17.380000 411.553856 412.319103 413.073059 413.032007 413.763052 414.183688
17.390000 411.883516 412.543497 413.287335 413.233079 413.956730 414.380077
17.410000 412.188903 412.863363 413.625521 413.578819 414.279555 414.614768
17.430000 412.533954 413.223161 413.943933 413.901460 414.574890 414.894288
17.450000 412.939125 413.572779 414.294245 414.221585 414.858936 415.177907
17.460000 413.101902 413.728420 414.464303 414.389273 415.031673 415.355251
17.470000 413.217711 413.909733 414.636469 414.561443 415.175943 415.535946
17.480000 413.439362 414.081855 414.819670 414.723021 415.318964 415.701170
17.500000 413.743764 414.389833 415.171476 415.036434 415.602591 416.015194
17.520000 414.062817 414.690988 415.457827 415.329132 415.870684 416.356133
17.540000 414.400426 414.994336 415.725604 415.623311 416.135600 416.617075
17.560000 414.735449 415.290592 415.996169 415.908797 416.424235 416.842432
17.570000 414.890359 415.485088 416.135636 416.058801 416.556133 417.031052
17.580000 415.034927 415.658352 416.273501 416.211863 416.692241 417.140278
17.620000 415.605278 416.281362 416.809086 416.761214 417.215386 417.682376
17.640000 415.903686 416.576681 417.104253 417.056007 417.500102 417.990058
17.650000 416.041214 416.743346 417.254831 417.216362 417.657906 418.203323
17.660000 416.200809 416.937753 417.407922 417.378783 417.813155 418.374135
17.670000 416.382359 417.116773 417.571235 417.547524 417.994097 418.512283
17.680000 416.579184 417.289257 417.731440 417.720159 418.165182 418.689557
17.690000 416.823530 417.468820 417.899126 417.897906 418.359242 418.871187
17.720000 417.528342 417.990184 418.379682 418.424873 418.850347 419.620825
17.730000 417.769726 418.146491 418.533215 418.602406 419.055747 419.822376
17.740000 417.927510 418.318129 418.727879 418.781847 419.244458 419.989906
17.750000 418.169613 418.477345 418.919930 418.962352 419.435856 420.211752
17.760000 418.366500 418.648587 419.102401 419.140883 419.621014 420.404760
17.770000 418.526581 418.819269 419.290616 419.325339 419.799635 420.587736
17.780000 418.692842 418.996307 419.456024 419.514468 419.988496 420.775091
17.790000 418.849376 419.195210 419.678671 419.713792 420.176806 420.959096
17.800000 419.025849 419.389013 419.887409 419.914982 420.389141 421.078753
17.810000 419.201646 419.612812 420.111252 420.116850 420.595523 421.242173
17.820000 419.341872 419.798724 420.306250 420.301787 420.771144 421.384961
17.830000 419.487566 419.983060 420.493481 420.484265 420.946854 421.529180
17.840000 419.640179 420.200451 420.688324 420.678086 421.119786 421.653939
17.850000 419.824038 420.402904 420.882916 420.868019 421.305983 421.784924
17.870000 420.168399 420.815569 421.242606 421.234187 421.662152 422.130840
17.880000 420.339325 421.000941 421.429524 421.413831 421.836352 422.309496
17.890000 420.559069 421.202855 421.608519 421.598348 422.022529 422.490886
17.900000 420.754210 421.428642 421.795150 421.788388 422.199728 422.636450
17.920000 421.357156 421.812956 422.161979 422.165397 422.554819 423.031961
17.930000 421.565837 422.003359 422.350535 422.355208 422.740374 423.202478
17.940000 421.754486 422.174640 422.535901 422.547404 422.950282 423.385057
17.950000 421.961748 422.347980 422.732205 422.741730 423.153444 423.533299
17.960000 422.155472 422.541443 422.936896 422.936038 423.343406 423.711719
17.970000 422.371597 422.740052 423.165169 423.145245 423.552776 423.920705
17.990000 422.774134 423.146285 423.581358 423.569082 423.989164 424.365746
18.000000 422.940450 423.389877 423.801288 423.790123 424.195215 424.589985
18.010000 423.156923 423.604730 424.028584 424.032039 424.456775 424.877475
18.020000 423.473827 423.855684 424.312913 424.314154 424.761613 425.200294
18.030000 423.741860 424.184401 424.650533 424.666513 425.172708 425.597283
18.050000 424.390004 424.895375 425.449131 425.464426 426.037806 426.596348
18.060000 424.682903 425.212339 425.785546 425.801758 426.413270 426.996012
18.110000 430.106209 430.848724 431.506768 431.508055 432.187614 432.817588
18.180000 438.195691 438.906955 439.583317 439.583469 440.292992 440.974308
18.260000 447.276773 448.016804 448.702721 448.680343 449.357380 450.002637
18.270000 447.587729 448.393343 449.096730 449.083574 449.818241 450.384931
18.310000 451.714284 452.604181 453.313685 453.296228 454.013317 454.682811
18.320000 452.030511 452.975993 453.685170 453.669259 454.365642 455.092590
18.330000 452.453203 453.337169 454.029510 454.010122 454.729160 455.413151
18.340000 452.805973 453.683768 454.371373 454.337554 455.017817 455.620045
18.350000 453.212098 454.046593 454.700883 454.666103 455.313927 455.922099
18.360000 453.497339 454.327795 455.015912 454.974984 455.624837 456.125231
18.370000 453.823290 454.660325 455.340188 455.290070 455.931898 456.456353
18.380000 454.093754 454.996946 455.632668 455.592273 456.228611 456.733609
18.390000 454.375847 455.337228 455.927764 455.891990 456.474191 457.003629
18.400000 454.790252 455.630497 456.242369 456.198566 456.796036 457.398733
18.410000 455.029512 455.945318 456.533607 456.499807 457.055421 457.704079
18.420000 455.448240 456.285816 456.840288 456.809492 457.367627 457.998758
18.430000 455.836034 456.607703 457.147299 457.123498 457.657289 458.228610
18.440000 456.271393 456.910113 457.470438 457.439493 457.960581 458.515337
18.450000 456.599087 457.200181 457.771815 457.736920 458.275382 458.813039
18.460000 456.845749 457.506343 458.083429 458.042096 458.557410 459.068207
18.470000 457.154012 457.823157 458.360297 458.331040 458.849083 459.395238
18.480000 457.449164 458.130882 458.624676 458.621457 459.137443 459.761151
18.490000 457.816472 458.419527 458.898176 458.926580 459.452896 460.106562
18.500000 458.169002 458.684255 459.210257 459.225537 459.757825 460.425501
18.510000 458.439269 458.985446 459.516624 459.525515 460.065539 460.680031
18.520000 458.755959 459.286779 459.830655 459.840122 460.368521 461.039056
18.530000 459.046216 459.591972 460.157532 460.161468 460.691526 461.325830
18.540000 459.353978 459.885548 460.471273 460.475511 461.049461 461.577947
18.550000 459.607709 460.189784 460.793017 460.788034 461.365771 461.997872
18.560000 459.875967 460.513559 461.105582 461.110190 461.695623 462.368130
18.570000 460.218123 460.855452 461.433390 461.449634 462.068434 462.722163
18.580000 460.477531 461.192612 461.774388 461.782713 462.402706 463.058997
18.590000 460.784776 461.493260 462.143895 462.134932 462.752349 463.433766
18.600000 461.017406 461.830409 462.494214 462.493352 463.155112 463.895088
18.610000 461.434841 462.224519 462.841460 462.871907 463.543308 464.247186
18.620000 461.807467 462.562120 463.266173 463.280528 464.012023 464.734788
18.630000 462.264020 462.990156 463.701429 463.704692 464.467724 465.231388
18.640000 462.638725 463.342111 464.109537 464.117756 464.921894 465.743731
18.650000 462.952129 463.738458 464.532581 464.534650 465.324490 466.255761
18.660000 463.320783 464.130603 464.930413 464.932072 465.725970 466.643808
18.670000 463.734243 464.469718 465.376958 465.376173 466.227398 467.204428
18.680000 464.090452 464.922072 465.767494 465.782418 466.649426 467.596326
18.690000 464.481388 465.316612 466.101601 466.153457 467.027433 467.930074
18.700000 464.812765 465.702324 466.497122 466.535376 467.449207 468.313948
18.710000 465.226297 466.089973 466.876062 466.934252 467.821754 468.676895
18.720000 465.675205 466.472007 467.288224 467.330150 468.218294 469.128877
18.730000 465.974791 466.819550 467.628519 467.681858 468.633294 469.472254
18.740000 466.271407 467.178468 467.931180 468.004296 468.999031 469.782308
18.750000 466.587303 467.470282 468.239211 468.305048 469.271915 470.088035
18.760000 466.863656 467.738843 468.550958 468.595942 469.517658 470.335368
18.780000 467.835275 468.542673 469.416659 469.459534 470.428484 471.218715
18.790000 468.163962 468.805520 469.677747 469.750320 470.727497 471.521239
18.800000 468.439548 469.100546 469.997909 470.032821 470.987679 471.743442
18.810000 468.690843 469.396810 470.227318 470.304722 471.275900 472.012461
18.820000 468.926135 469.670816 470.500683 470.561509 471.552928 472.222464
18.830000 469.210494 469.938180 470.788678 470.823361 471.816819 472.403221
18.840000 469.407540 470.195249 471.046411 471.082580 472.047406 472.668379
18.850000 469.585676 470.495909 471.305139 471.343768 472.278689 472.866555
18.860000 469.838304 470.794692 471.577124 471.595996 472.524334 473.070601
18.870000 470.064914 471.025696 471.831212 471.845360 472.738529 473.248132
18.880000 470.236905 471.279181 472.135459 472.087837 472.965628 473.435316
18.890000 470.440707 471.541448 472.373335 472.337282 473.186110 473.594640
18.900000 470.589993 471.800827 472.632100 472.575026 473.368982 473.810042
18.910000 470.819026 472.086631 472.899449 472.813713 473.588214 474.029076
18.920000 471.076662 472.345305 473.127693 473.039213 473.766155 474.289866
18.930000 471.299598 472.585389 473.386781 473.281780 473.985090 474.466562
18.940000 471.631166 472.819409 473.626921 473.508018 474.200688 474.680937
18.950000 471.775444 473.055994 473.863081 473.733595 474.403477 474.901801
18.960000 471.994217 473.264624 474.113277 473.978172 474.677850 475.132595
18.970000 472.276092 473.531571 474.351688 474.216721 474.893060 475.392606
18.980000 472.478412 473.768132 474.583880 474.454815 475.115320 475.597174
18.990000 472.791599 473.976506 474.823834 474.692266 475.377845 475.842938
19.000000 472.991205 474.220653 475.077386 474.932158 475.613491 476.100093
19.010000 473.200465 474.464983 475.309534 475.151959 475.823552 476.321399
19.020000 473.369630 474.634945 475.514031 475.362462 476.037451 476.517548
19.030000 473.599011 474.829665 475.735554 475.566642 476.234236 476.683560
19.040000 473.818531 475.040712 475.928504 475.766504 476.420149 476.875843
19.050000 474.030241 475.230237 476.089135 475.962858 476.639764 477.095542
19.060000 474.310599 475.438192 476.281021 476.164169 476.839732 477.289660
19.080000 474.851213 475.930045 476.669162 476.563360 477.222616 477.628183
19.100000 475.332624 476.338966 477.011363 476.939646 477.583124 477.963120
19.120000 475.674484 476.716987 477.369433 477.283090 477.888180 478.275249
19.140000 476.083457 477.061497 477.690055 477.595939 478.167193 478.534804
19.160000 476.424996 477.377061 477.995958 477.902035 478.442617 478.793585
19.180000 476.719673 477.666104 478.274439 478.183786 478.717470 479.044392
19.200000 477.039005 477.965618 478.509054 478.440660 478.934585 479.264818
19.220000 477.373477 478.226355 478.744238 478.691106 479.174503 479.482351
19.260000 478.045742 478.735191 479.201491 479.142156 479.580720 479.879224
19.320000 478.944128 479.406836 479.812467 479.771128 480.126471 480.345173
19.350000 479.380990 479.763747 480.153646 480.102821 480.424645 480.630539
19.370000 479.614965 479.991989 480.377814 480.329705 480.629547 480.819626
19.380000 479.788517 480.139979 480.497186 480.448388 480.737533 480.929577
19.420000 480.213924 480.582103 480.913444 480.866650 481.130574 481.271634
19.430000 480.346532 480.715531 481.029688 480.984170 481.241656 481.382891
19.450000 480.624294 480.965510 481.255897 481.213145 481.446958 481.594629
19.460000 480.792623 481.112073 481.372060 481.337531 481.561266 481.702040
19.470000 480.942141 481.233736 481.490787 481.460918 481.673357 481.821742
19.480000 481.083341 481.383100 481.612068 481.586073 481.785160 481.948175
19.500000 481.367240 481.635433 481.839497 481.818588 482.000072 482.147089
19.510000 481.512495 481.760792 481.957793 481.941300 482.121445 482.260528
19.520000 481.648450 481.895798 482.075914 482.063688 482.234643 482.377515
19.530000 481.811685 482.017219 482.198766 482.190240 482.348840 482.514728
19.540000 481.947186 482.157557 482.321098 482.314033 482.467392 482.629090
19.550000 482.099327 482.287963 482.446825 482.442483 482.593725 482.769619
