depth(m) lower_95(kyr) lower_68(kyr) median(kyr) mean(kyr) upper_68(kyr) upper_95(kyr)
0.000000 1.571696 2.182235 2.637658 2.579803 2.939340 3.458245
0.020000 1.821445 2.440289 2.862622 2.817061 3.148046 3.660326
0.040000 2.079007 2.699967 3.084781 3.047014 3.360555 3.902977
0.060000 2.320553 2.936678 3.309230 3.270477 3.570109 4.156089
0.080000 2.586812 3.186233 3.512361 3.487122 3.784888 4.399046
0.100000 2.781361 3.399626 3.710191 3.703588 4.009825 4.610117
0.120000 2.993435 3.618519 3.917064 3.913959 4.213486 4.853757
0.140000 3.240300 3.833299 4.122462 4.126957 4.431277 5.091408
0.160000 3.470937 4.047298 4.332894 4.339538 4.630929 5.307087
0.180000 3.650775 4.249388 4.534745 4.555170 4.857290 5.551189
0.200000 3.919179 4.463109 4.744847 4.771635 5.075524 5.727576
0.220000 4.263840 4.676044 4.964344 4.992470 5.299501 5.957950
0.240000 4.490738 4.887050 5.182094 5.215802 5.565694 6.155366
0.260000 4.733745 5.106432 5.407675 5.442732 5.809949 6.372186
0.280000 4.959031 5.309283 5.615679 5.665663 6.052817 6.629827
0.300000 5.161520 5.525284 5.843292 5.900830 6.329039 6.830811
0.320000 5.408958 5.739174 6.078348 6.139376 6.622482 7.062170
0.340000 5.638034 5.975397 6.343914 6.393775 6.885951 7.298704
0.360000 5.874790 6.197823 6.609831 6.649755 7.157587 7.543646
0.380000 6.117749 6.450794 6.895659 6.926760 7.441720 7.795234
0.400000 6.360951 6.738781 7.199542 7.210406 7.707974 8.059982
0.440000 6.872751 7.301047 7.783150 7.749127 8.189511 8.470168
0.460000 7.153063 7.594151 8.052401 8.010783 8.419147 8.711406
0.480000 7.409742 7.848257 8.315899 8.259453 8.647296 8.906794
0.500000 7.661059 8.131711 8.557458 8.505174 8.864307 9.145292
0.520000 7.906033 8.411339 8.798578 8.752361 9.088734 9.356836
0.540000 8.134751 8.679388 9.026777 8.986252 9.311118 9.561336
0.560000 8.405640 8.931758 9.262394 9.222318 9.522112 9.785024
0.580000 8.651669 9.173949 9.481746 9.446078 9.730454 9.990888
0.600000 8.909847 9.400156 9.690916 9.666878 9.941810 10.203001
0.620000 9.197961 9.604265 9.894806 9.878897 10.157156 10.435344
0.640000 9.442686 9.824377 10.100869 10.084715 10.356151 10.636770
0.660000 9.661104 10.021612 10.292505 10.278553 10.545394 10.806579
0.680000 9.886101 10.236719 10.480099 10.474969 10.738952 11.046239
0.700000 10.072490 10.425844 10.685417 10.675256 10.937311 11.239149
0.720000 10.288699 10.633525 10.887009 10.882002 11.144745 11.456312
0.740000 10.501979 10.844955 11.089242 11.089570 11.340471 11.687128
0.760000 10.703093 11.038733 11.291481 11.292805 11.552069 11.909703
0.780000 10.912729 11.234304 11.504002 11.504320 11.763677 12.160191
0.800000 11.136987 11.449716 11.705541 11.721912 11.990973 12.424430
0.820000 11.338081 11.649446 11.920663 11.940130 12.227250 12.665053
0.840000 11.574089 11.871794 12.149577 12.168103 12.479849 12.895718
0.860000 11.791128 12.092372 12.369335 12.398429 12.721023 13.124373
0.880000 12.008704 12.298191 12.598404 12.623653 12.962277 13.392984
0.900000 12.215463 12.526994 12.816404 12.848080 13.185030 13.595982
0.920000 12.455670 12.747755 13.047464 13.084282 13.454020 13.871073
0.940000 12.661441 12.984995 13.308507 13.334671 13.704447 14.095889
0.960000 12.916405 13.234304 13.582935 13.605162 13.987525 14.382161
0.980000 13.220253 13.487081 13.888884 13.900709 14.298693 14.752068
1.000000 13.455785 13.765349 14.186561 14.212132 14.658587 15.102582
1.020000 13.736964 14.106543 14.564373 14.593400 15.084854 15.513238
1.040000 14.188069 14.595169 15.107942 15.125923 15.641022 16.190739
1.060000 14.536304 15.034516 15.515702 15.533419 16.033570 16.611600
1.080000 14.851976 15.392170 15.888765 15.895359 16.407810 16.957079
1.100000 15.247808 15.704583 16.197814 16.218205 16.732137 17.289118
1.120000 15.562278 16.023862 16.544764 16.565434 17.101612 17.673106
1.140000 15.861486 16.370619 16.865803 16.902897 17.467898 18.036550
1.160000 16.193479 16.745743 17.268009 17.290401 17.872090 18.426365
1.180000 16.532441 17.086176 17.638923 17.644746 18.217643 18.791470
1.200000 16.900150 17.423092 18.015966 18.011884 18.578193 19.053337
1.220000 17.236115 17.771496 18.373344 18.353913 18.917373 19.360696
1.240000 17.543747 18.118354 18.689491 18.661983 19.202112 19.608232
1.260000 17.841655 18.423898 18.979773 18.944796 19.486768 19.864217
1.280000 18.093325 18.702083 19.251366 19.218669 19.743003 20.157983
1.300000 18.446978 18.934985 19.517965 19.490039 20.032826 20.414537
1.320000 18.721220 19.222557 19.759663 19.748418 20.270232 20.657751
1.340000 18.989335 19.502524 20.026487 20.011606 20.525914 20.928064
1.360000 19.230715 19.781446 20.261739 20.262154 20.769085 21.156153
1.380000 19.500361 20.024327 20.526128 20.513777 21.015082 21.399485
1.400000 19.766510 20.226699 20.808985 20.767101 21.265946 21.656272
1.420000 20.006235 20.457489 21.045890 21.014443 21.532642 21.918173
1.440000 20.249055 20.691797 21.294763 21.262017 21.790477 22.243097
1.460000 20.565955 20.961548 21.530825 21.505186 22.009018 22.499059
1.500000 21.037773 21.443270 21.986860 21.986767 22.493785 23.044085
1.520000 21.222891 21.688482 22.243049 22.242140 22.748089 23.316799
1.540000 21.497810 21.975843 22.509294 22.522827 23.040870 23.717986
1.560000 21.753991 22.237722 22.776767 22.796985 23.330337 24.088507
1.580000 22.002464 22.533477 23.054661 23.098569 23.655681 24.490214
1.600000 22.330139 22.824509 23.367250 23.422822 24.072244 24.937008
1.620000 22.608769 23.123386 23.650119 23.743181 24.429626 25.231778
1.640000 22.890206 23.398340 24.002969 24.084781 24.787291 25.679907
1.660000 23.183007 23.693300 24.357406 24.427925 25.164636 26.002968
1.680000 23.493668 24.023157 24.719795 24.795259 25.620668 26.363739
1.700000 23.820444 24.362801 25.122385 25.199169 26.103100 26.880733
1.720000 24.103141 24.730505 25.537612 25.596593 26.482500 27.318718
1.740000 24.509359 25.110247 26.016204 26.038371 26.948842 27.706178
1.760000 24.842086 25.475702 26.504316 26.482545 27.411089 28.106499
1.780000 25.290223 25.978270 26.962409 26.920642 27.872590 28.452429
1.800000 25.625830 26.415863 27.381609 27.321371 28.232840 28.827806
1.820000 25.958044 26.837637 27.746752 27.716886 28.609302 29.108430
1.840000 26.364092 27.229856 28.126192 28.079825 28.923229 29.432911
1.860000 26.828577 27.631717 28.554264 28.462750 29.271580 29.773335
1.880000 27.220523 28.003984 28.888612 28.821275 29.577636 30.048361
1.900000 27.665002 28.407927 29.250541 29.176628 29.882557 30.409757
1.920000 28.071588 28.799821 29.572733 29.516148 30.178591 30.727855
1.940000 28.503046 29.158267 29.924533 29.855706 30.470389 31.206471
1.960000 28.890161 29.487521 30.256712 30.199761 30.801898 31.643094
1.980000 29.236716 29.874052 30.570296 30.544139 31.164523 31.882053
2.000000 29.590323 30.228867 30.890290 30.890547 31.496721 32.415036
2.020000 29.916592 30.560200 31.221617 31.235444 31.854477 32.835779
2.040000 30.252804 30.912971 31.514483 31.572630 32.204497 33.266265
2.060000 30.565187 31.298236 31.849963 31.926532 32.550009 33.860476
2.080000 30.899201 31.646073 32.258192 32.309759 32.957392 34.181750
2.100000 31.335920 31.962374 32.618296 32.689342 33.385393 34.492062
2.120000 31.654499 32.307254 32.969721 33.067875 33.823576 34.904186
2.140000 32.011947 32.693704 33.392008 33.467351 34.215374 35.459276
2.160000 32.427011 33.077383 33.788168 33.881711 34.715510 35.949687
2.180000 32.655659 33.439092 34.164765 34.274860 35.177260 36.318828
2.200000 33.013359 33.829413 34.598668 34.702194 35.672200 36.749244
2.220000 33.416320 34.215929 35.035034 35.134395 36.161770 37.128879
2.240000 33.824645 34.656536 35.508226 35.588058 36.633226 37.526005
2.260000 34.185252 35.010886 35.951567 36.017788 37.120100 37.937819
2.280000 34.484624 35.407635 36.403622 36.440473 37.647026 38.397471
2.300000 34.751131 35.786189 36.798796 36.854992 38.063127 38.810719
2.320000 35.129416 36.189634 37.208100 37.258367 38.473855 39.162370
2.340000 35.499083 36.547811 37.629947 37.650047 38.824581 39.515588
2.360000 35.798412 36.915438 38.041081 38.016413 39.193866 39.852966
2.380000 36.068293 37.257684 38.519846 38.374765 39.496014 40.198683
2.400000 36.404847 37.590643 38.905317 38.720318 39.799726 40.507288
2.420000 36.794897 37.895979 39.264576 39.054031 40.068009 40.872303
2.440000 37.126357 38.210856 39.627321 39.392386 40.350195 41.301648
2.460000 37.396120 38.547105 39.960572 39.730940 40.685045 41.708613
2.480000 37.674534 38.862289 40.259892 40.046837 40.991758 41.962487
2.500000 38.101887 39.221891 40.575328 40.362812 41.291183 42.249082
2.520000 38.465538 39.583040 40.847453 40.677907 41.596421 42.532153
2.540000 38.905492 39.928584 41.129192 41.001048 41.899985 42.775772
2.560000 39.268106 40.373537 41.430757 41.337283 42.261869 42.983877
2.580000 39.769707 40.781314 41.740114 41.667625 42.583426 43.217874
2.600000 40.106011 41.132795 42.051778 41.992084 42.893010 43.499825
2.620000 40.355313 41.517644 42.390383 42.325775 43.193953 43.755380
2.640000 40.808521 41.884259 42.697632 42.648644 43.507374 44.024207
2.660000 41.199558 42.259387 42.990708 42.968267 43.798535 44.272781
2.680000 41.655728 42.581015 43.332647 43.285650 44.078916 44.501039
2.700000 41.978456 42.886827 43.641127 43.587753 44.350272 44.691712
2.720000 42.402236 43.191784 43.968693 43.887697 44.573424 44.930470
2.740000 42.743774 43.479415 44.254455 44.171848 44.833262 45.156020
2.760000 43.043733 43.803705 44.554074 44.451445 45.088104 45.400794
2.780000 43.335381 44.081445 44.842561 44.719584 45.326976 45.594911
2.800000 43.687677 44.399974 45.079534 44.990486 45.559330 45.833380
2.820000 44.026739 44.689497 45.361484 45.259067 45.803287 46.056602
2.840000 44.348676 44.978002 45.634316 45.527074 46.025846 46.332391
2.860000 44.591347 45.284604 45.885681 45.792870 46.258015 46.559022
2.880000 44.935413 45.585077 46.148150 46.062766 46.493260 46.790633
2.900000 45.189937 45.894344 46.414355 46.330904 46.722922 47.036020
2.920000 45.478070 46.233128 46.664265 46.593869 46.967030 47.269790
2.940000 45.843979 46.498689 46.910577 46.855520 47.196864 47.530680
2.960000 46.187457 46.772379 47.148082 47.106231 47.438130 47.749173
2.980000 46.493373 47.042190 47.382361 47.357209 47.666196 48.026883
3.000000 46.791945 47.311189 47.623212 47.608868 47.914243 48.281033
3.020000 47.041051 47.553423 47.853989 47.856185 48.154902 48.558032
3.040000 47.351440 47.783796 48.087485 48.097509 48.396095 48.851720
3.060000 47.631169 48.015887 48.318817 48.341657 48.643120 49.239266
3.080000 47.883431 48.248731 48.549540 48.596128 48.906587 49.522223
3.100000 48.150668 48.495510 48.785440 48.845196 49.176116 49.858522
3.120000 48.439739 48.722300 49.030475 49.106641 49.453770 50.176343
3.140000 48.698134 48.978547 49.288449 49.368800 49.719987 50.573327
3.160000 48.905982 49.219118 49.558390 49.647783 50.024256 50.999371
3.180000 49.135437 49.466030 49.838620 49.927146 50.335934 51.478405
3.200000 49.399276 49.731693 50.150421 50.246826 50.717252 51.986623
3.220000 49.655915 50.002720 50.456570 50.572150 51.099269 52.413618
3.240000 49.883700 50.288242 50.752546 50.903680 51.455681 52.872164
3.260000 50.150969 50.574541 51.075897 51.263755 51.938030 53.370044
3.280000 50.451257 50.860747 51.445110 51.644407 52.444132 53.815802
3.300000 50.769538 51.199178 51.797325 52.022999 52.940648 54.210002
3.320000 51.048230 51.532383 52.209969 52.402523 53.388604 54.618011
3.340000 51.313808 51.887566 52.647239 52.801425 53.751805 54.991003
3.360000 51.640540 52.249960 53.033186 53.194579 54.166761 55.547053
3.380000 51.988852 52.582007 53.443015 53.569305 54.564081 55.883694
3.400000 52.314663 52.955234 53.849020 53.946692 54.954373 56.297595
3.420000 52.595288 53.317134 54.211336 54.315041 55.402692 56.687994
3.440000 52.940185 53.662802 54.545299 54.677531 55.796019 57.087279
3.460000 53.172658 53.980900 54.903570 55.037850 56.149794 57.402404
3.480000 53.464643 54.345888 55.273823 55.393791 56.474277 57.695805
3.500000 53.805333 54.674502 55.656427 55.746028 56.841572 58.088788
3.550000 54.483576 55.535087 56.554172 56.642363 57.834649 58.890183
3.600000 55.335234 56.314396 57.481228 57.511957 58.671689 59.882025
3.650000 56.036490 57.109685 58.378386 58.355453 59.521965 60.768776
3.700000 56.827202 57.938088 59.283515 59.212550 60.419692 61.517404
3.750000 57.569437 58.867515 60.170345 60.080916 61.271725 62.328166
3.800000 58.465564 59.787111 61.013869 60.947783 62.096014 62.977358
3.850000 59.433080 60.738937 61.938944 61.869187 62.966302 63.913213
3.900000 60.634236 61.825554 62.939579 62.863209 63.852113 64.818285
3.950000 61.703996 62.753620 63.723871 63.706026 64.612694 65.620011
4.000000 62.660118 63.593745 64.455782 64.466693 65.336614 66.262997
4.050000 63.461982 64.259794 65.167958 65.165619 66.064314 67.007140
4.100000 64.128796 64.919176 65.838810 65.845170 66.783773 67.667259
4.150000 64.744037 65.533426 66.485113 66.504660 67.466484 68.300372
4.200000 65.392805 66.213200 67.171293 67.176852 68.149726 68.936739
4.250000 66.095964 66.960860 67.866265 67.893815 68.896654 69.733955
4.300000 66.891378 67.722653 68.742805 68.720532 69.641013 70.641839
4.350000 67.663418 68.604498 69.620949 69.637580 70.635350 71.898743
4.400000 68.469932 69.538416 70.608120 70.622192 71.674465 72.935033
4.500000 70.636506 71.677041 72.874019 72.975900 74.276395 75.972121
4.550000 71.466453 72.691755 74.069568 74.103282 75.481355 77.179116
4.600000 72.427696 73.824201 75.274356 75.272263 76.688181 78.339411
4.650000 73.437450 74.805481 76.179300 76.251751 77.710942 79.203990
4.700000 74.358459 75.844396 77.206231 77.234442 78.717257 80.052199
4.750000 75.277391 76.807268 78.142110 78.175150 79.547754 80.886038
4.800000 76.624741 77.962076 79.277146 79.268947 80.639058 81.943663
4.850000 78.074051 79.232373 80.454524 80.474888 81.728576 82.808772
4.900000 79.178989 80.315572 81.479666 81.482481 82.639134 83.557920
4.950000 80.210157 81.362318 82.489361 82.446685 83.491459 84.385084
5.000000 81.217592 82.338408 83.457222 83.429055 84.501298 85.439441
5.050000 82.321809 83.476727 84.489805 84.510018 85.585818 86.876086
5.100000 83.621525 84.674623 85.726174 85.765535 86.877499 88.054156
5.150000 84.511925 85.580857 86.728472 86.735405 87.890290 89.062816
5.200000 85.259913 86.283496 87.658888 87.589615 88.804231 89.965544
5.250000 85.760578 87.042290 88.511858 88.394546 89.716970 90.586613
5.300000 86.314894 87.763729 89.290856 89.148085 90.426236 91.343590
5.350000 86.968209 88.658020 90.088108 89.921590 91.203708 92.124287
5.400000 87.655751 89.504757 90.794255 90.659504 91.864414 92.878290
5.450000 88.366558 90.311286 91.537550 91.445397 92.591504 93.737162
5.500000 89.232245 91.198612 92.274615 92.201888 93.263621 94.516718
5.550000 90.234532 91.917264 93.022383 92.999538 94.174419 95.444818
5.600000 91.066526 92.628994 93.738342 93.774556 94.993452 96.430813
5.650000 91.754232 93.297696 94.435762 94.566038 95.903627 97.658625
5.700000 92.686929 93.960880 95.131726 95.322758 96.660919 99.050228
5.750000 93.610926 94.604300 95.856084 96.069674 97.473692 99.909430
5.800000 94.241785 95.266485 96.582909 96.814854 98.245201 100.833303
5.850000 94.793657 95.949012 97.367456 97.582677 99.111185 101.529370
5.900000 95.558020 96.664826 98.141540 98.368680 99.946062 102.463439
5.950000 96.322009 97.465548 98.931534 99.175332 100.873218 103.335896
5.990000 96.845844 98.065851 99.594152 99.839069 101.595415 103.992165
6.000000 97.049594 98.240239 99.802977 100.018112 101.748779 104.157067
6.100000 98.339613 99.825863 101.451666 102.039756 104.107560 110.920675
6.200000 99.884170 101.359354 103.400032 104.605292 108.525185 113.685279
6.300000 101.468161 103.549423 108.522043 108.440588 113.149932 115.195883
6.400000 103.411723 108.782129 113.632213 112.516334 115.400317 116.956177
6.500000 109.748934 114.226380 115.989331 115.657272 117.369170 118.669728
6.600000 116.451557 117.640753 118.925510 118.918932 120.115230 121.612277
6.700000 118.542047 119.580195 120.959002 120.965966 122.343203 123.631276
6.800000 120.098239 121.204488 122.542392 122.566037 123.974393 125.088307
6.900000 121.682058 122.804101 124.116646 124.112463 125.381236 126.475820
7.000000 123.224963 124.346867 125.700012 125.585396 126.748513 127.674513
7.100000 124.567094 125.941400 127.203455 127.058124 128.126608 128.940240
7.200000 126.722449 127.921013 128.833338 128.793682 129.691937 130.476527
7.300000 128.741528 129.705889 130.570663 130.597362 131.497452 132.520892
7.400000 130.494363 131.495544 132.488944 132.543869 133.568893 134.874817
7.500000 132.688155 133.952794 135.473313 135.558794 137.142011 139.254971
7.600000 134.726121 136.045663 137.796211 137.893113 139.669760 141.608557
7.700000 136.350323 137.872510 139.733772 139.851750 141.898439 143.994971
7.800000 137.993656 139.676820 141.531379 141.696696 143.887113 146.245681
7.900000 139.902103 141.726042 143.675619 143.874432 146.083828 148.720612
8.000000 142.620175 144.398338 146.635547 146.623982 148.619319 151.279902
8.100000 144.831636 146.531013 148.840882 148.878860 151.075055 153.385277
8.200000 146.643134 148.450531 150.855628 150.838176 153.035854 155.794060
8.300000 148.104637 150.315249 152.702783 152.679948 154.849463 157.806729
8.400000 149.835179 152.025459 154.534812 154.517803 156.851900 159.356604
8.500000 151.732629 153.721883 156.234471 156.303979 158.761299 161.041704
8.600000 153.701093 155.886576 158.175800 158.204436 160.506348 162.924573
8.700000 155.556901 157.978379 160.099741 160.198761 162.196251 165.409175
8.800000 157.985477 160.374872 162.418360 162.445689 164.320107 168.739871
8.900000 160.015074 162.415110 164.204118 164.330023 165.936968 171.329922
9.000000 162.045683 164.368747 165.816023 166.118751 167.405545 173.609393
9.100000 165.121093 166.483267 167.530823 168.075118 168.782542 175.677513
9.105000 165.263038 166.608176 167.673805 168.190254 168.840745 175.824962
9.140000 166.082290 167.654765 168.666432 169.138721 169.585855 176.700472
9.165000 166.578241 168.499633 169.362613 169.814086 170.031933 177.156987
9.185000 167.315492 169.256280 169.902844 170.359985 170.379386 177.499618
9.200000 167.674753 169.787286 170.279915 170.747599 170.667857 177.881908
9.204000 167.770704 169.881738 170.365030 170.830191 170.742579 178.074671
9.227000 168.273977 170.362656 170.749986 171.265390 171.081700 178.672000
9.235000 168.505404 170.528896 170.883761 171.416696 171.208803 178.915757
9.252500 169.475371 170.872428 171.165974 171.738465 171.479290 179.410024
9.267500 170.092340 171.156432 171.414646 172.023913 171.759179 179.868693
9.275000 170.276261 171.294165 171.551691 172.169541 171.895346 180.032644
9.280000 170.342315 171.396914 171.645033 172.272376 172.015273 180.202556
9.285000 170.414289 171.488980 171.740685 172.376584 172.142197 180.260162
9.300000 170.743412 171.750150 172.067437 172.721501 172.669035 180.653689
9.360000 171.871601 172.565828 173.386946 174.139855 175.238926 181.946810
9.400000 172.546302 173.195391 174.312482 175.079367 176.679459 182.665466
9.500000 173.904063 174.918239 177.122380 177.598739 180.530630 184.114123
9.600000 175.450264 177.137620 180.200118 180.391674 183.630794 185.997495
9.700000 177.236796 179.952766 183.738097 183.274507 186.166791 187.895477
9.800000 179.240451 183.462317 186.734149 186.005641 188.250820 189.917303
9.900000 182.870822 186.717219 188.571462 188.279924 189.953096 191.654296
10.000000 186.929978 188.814691 190.170923 190.282161 191.878234 194.123558
10.100000 189.239277 190.415702 191.811790 192.099496 193.998541 196.593816
10.200000 190.815588 192.033798 193.409574 194.133652 196.816107 200.185352
10.300000 192.201449 193.448971 194.954614 195.862227 199.070898 202.905666
10.400000 193.766852 194.910742 196.353159 197.523849 201.383071 205.105210
10.500000 195.157503 196.351474 198.029315 199.331311 203.672324 207.421466
10.600000 196.923208 198.212072 200.337160 201.458707 205.581798 209.344158
10.700000 198.816252 200.307108 202.960192 203.745047 207.612172 211.526859
10.800000 200.728380 202.683231 206.038667 206.264311 209.596440 213.262002
