depth(m) lower_95(kyr) lower_68(kyr) median(kyr) mean(kyr) upper_68(kyr) upper_95(kyr)
0.040000 0.003457 0.028197 0.116564 0.185439 0.349869 0.778267
0.120000 0.141701 0.235170 0.366383 0.425849 0.609127 1.072160
0.200000 0.333022 0.447335 0.615250 0.664480 0.879702 1.369347
0.300000 0.550613 0.700609 0.892651 0.950620 1.192541 1.701671
0.400000 0.787653 0.949315 1.186054 1.233465 1.497143 2.060390
0.500000 1.012290 1.223176 1.454588 1.515875 1.812644 2.352673
0.600000 1.263042 1.480786 1.747961 1.799838 2.128940 2.641862
0.733333 1.529549 1.797973 2.091565 2.149868 2.512262 3.098072
0.866667 1.867752 2.113757 2.442555 2.500746 2.898347 3.498320
1.000000 2.176473 2.442075 2.771699 2.851745 3.292927 3.888568
1.100000 2.440280 2.731114 3.059467 3.140742 3.598195 4.230473
1.200000 2.752132 3.015471 3.349142 3.433760 3.912648 4.517053
1.300000 3.019162 3.283590 3.640931 3.720099 4.205398 4.851394
1.400000 3.295017 3.546647 3.940500 4.011478 4.517926 5.119820
1.500000 3.548380 3.844903 4.223368 4.303923 4.815111 5.442315
1.600000 3.831524 4.112073 4.519793 4.598233 5.113260 5.723993
1.700000 4.084433 4.422781 4.822660 4.894006 5.417195 6.017838
1.800000 4.392053 4.717826 5.122156 5.195070 5.719731 6.323811
1.900000 4.678625 5.020918 5.397122 5.492231 6.010829 6.616006
2.000000 4.960317 5.324130 5.708183 5.792626 6.300189 6.913777
2.100000 5.287255 5.645210 6.021867 6.097291 6.611644 7.195110
2.200000 5.581566 5.943869 6.342207 6.398767 6.906954 7.493748
2.300000 5.868239 6.249978 6.637704 6.702464 7.196458 7.746505
2.400000 6.173209 6.551690 6.962371 7.009878 7.518537 8.015004
2.500000 6.510422 6.868776 7.270220 7.324936 7.809425 8.308994
2.600000 6.820485 7.201387 7.596810 7.638041 8.115958 8.609689
2.700000 7.167224 7.526952 7.915382 7.954346 8.408312 8.880788
2.800000 7.508024 7.861138 8.235670 8.265457 8.688441 9.130137
2.900000 7.858436 8.191170 8.540026 8.575321 8.964098 9.395257
3.000000 8.210574 8.519874 8.862040 8.884090 9.258930 9.658506
3.100000 8.568497 8.862295 9.179118 9.202275 9.550437 9.919152
3.200000 8.901741 9.196496 9.514295 9.517321 9.846967 10.167628
3.300000 9.238882 9.524653 9.835591 9.832986 10.138063 10.465706
3.400000 9.566795 9.836641 10.134723 10.135196 10.423294 10.690299
3.500000 9.883360 10.157031 10.443999 10.437549 10.708687 10.971085
3.600000 10.204636 10.486200 10.761017 10.752255 11.004910 11.228315
3.700000 10.526222 10.810953 11.066590 11.059852 11.314555 11.529167
3.800000 10.882873 11.137231 11.379302 11.369224 11.598552 11.809906
3.900000 11.222477 11.454896 11.676433 11.671904 11.882309 12.089809
4.000000 11.526274 11.767211 11.974278 11.965883 12.163274 12.372410
4.040000 11.684371 11.912795 12.109237 12.107361 12.295504 12.515378
4.080000 11.833991 12.063788 12.262230 12.251523 12.427729 12.638898
4.100000 11.921626 12.153075 12.342130 12.332943 12.503777 12.716815
4.120000 12.043534 12.236840 12.420049 12.413624 12.580593 12.789038
4.160000 12.204309 12.392070 12.564656 12.565041 12.743652 12.933967
4.200000 12.357790 12.542439 12.711021 12.714063 12.880265 13.078750
4.240000 12.493828 12.699985 12.866935 12.863667 13.028309 13.220180
4.280000 12.654746 12.858682 13.021024 13.018972 13.180183 13.368564
4.300000 12.740779 12.956579 13.102967 13.105610 13.268286 13.439267
4.320000 12.828639 13.039398 13.187147 13.189913 13.352462 13.515365
4.360000 13.014150 13.199140 13.345763 13.349254 13.504347 13.676662
4.400000 13.197627 13.357485 13.501022 13.505284 13.654318 13.825330
4.440000 13.346159 13.513027 13.653064 13.657604 13.805111 13.957997
4.480000 13.501085 13.662697 13.809862 13.811358 13.954844 14.093990
4.500000 13.602385 13.745720 13.891074 13.892560 14.033671 14.189504
4.520000 13.694261 13.823814 13.968166 13.975481 14.117230 14.273827
4.560000 13.851379 13.978912 14.120509 14.127319 14.267440 14.435694
4.600000 13.994183 14.132639 14.265448 14.276341 14.417751 14.611988
4.640000 14.147042 14.280506 14.416518 14.428365 14.565126 14.783502
4.680000 14.326558 14.436330 14.574852 14.585621 14.726159 14.959021
4.700000 14.402716 14.521322 14.655321 14.668794 14.810830 15.063977
4.720000 14.489474 14.601379 14.737146 14.754256 14.899323 15.178309
4.760000 14.620480 14.753155 14.885436 14.911566 15.073023 15.396033
4.800000 14.765784 14.896399 15.032414 15.066347 15.234992 15.546549
4.840000 14.898745 15.036992 15.175136 15.213895 15.404398 15.719092
4.880000 15.049243 15.181469 15.325465 15.364945 15.553019 15.883064
4.900000 15.129005 15.258536 15.409037 15.446663 15.644935 15.959514
4.920000 15.217914 15.335124 15.490724 15.530772 15.733889 16.041489
4.960000 15.358977 15.485590 15.652261 15.689146 15.905304 16.193178
5.000000 15.500984 15.626116 15.803861 15.848297 16.082882 16.371055
5.040000 15.640094 15.766814 15.974699 16.009282 16.257459 16.574021
5.080000 15.785086 15.911470 16.141118 16.173716 16.444357 16.745995
5.100000 15.856304 15.988165 16.223946 16.262687 16.532941 16.847732
5.120000 15.939242 16.075583 16.313589 16.349819 16.626375 16.930260
5.160000 16.068481 16.235161 16.489899 16.516480 16.802718 17.073075
5.200000 16.218650 16.387388 16.681905 16.686205 16.981050 17.220277
5.240000 16.369719 16.541506 16.869094 16.863539 17.169388 17.405914
5.280000 16.529219 16.712539 17.050757 17.047759 17.358726 17.586584
5.300000 16.609586 16.816064 17.155722 17.151763 17.466337 17.672862
5.320000 16.709099 16.924079 17.273334 17.258993 17.568996 17.779605
5.360000 16.869405 17.154642 17.485058 17.461680 17.760503 17.963909
5.400000 17.071562 17.382729 17.687009 17.667972 17.950052 18.153640
5.440000 17.265974 17.608058 17.911693 17.879403 18.147604 18.305192
5.480000 17.532125 17.858956 18.134470 18.102112 18.344812 18.508580
5.500000 17.681673 17.971423 18.246130 18.215008 18.446635 18.603724
5.520000 17.772745 18.085635 18.355112 18.316560 18.531943 18.689027
5.560000 18.024803 18.297046 18.542634 18.507271 18.713865 18.847280
5.600000 18.221133 18.487899 18.719084 18.689384 18.885710 19.047543
5.640000 18.411772 18.692475 18.885999 18.863848 19.042166 19.202419
5.680000 18.580365 18.869158 19.050603 19.035136 19.201890 19.380618
5.700000 18.710114 18.964771 19.138133 19.125115 19.283525 19.455748
5.720000 18.800601 19.047445 19.222812 19.210643 19.379713 19.530224
5.760000 19.021271 19.203538 19.379214 19.372332 19.532244 19.708304
5.800000 19.161276 19.373988 19.525355 19.525335 19.679902 19.859970
5.840000 19.325869 19.531075 19.679918 19.678542 19.824962 20.002437
5.880000 19.486430 19.690592 19.841048 19.834292 19.975386 20.163397
5.900000 19.560512 19.774696 19.916500 19.918675 20.064082 20.262060
5.920000 19.654438 19.856030 20.004686 20.005996 20.151668 20.353668
5.960000 19.824210 20.013105 20.157866 20.160572 20.315537 20.510828
6.000000 20.006359 20.158977 20.305852 20.309555 20.463760 20.678552
6.040000 20.156614 20.297956 20.458666 20.459817 20.612741 20.841466
6.080000 20.287593 20.450717 20.604462 20.608923 20.759287 20.967115
6.120000 20.435319 20.596948 20.752368 20.759925 20.907246 21.162373
6.160000 20.602796 20.742840 20.902575 20.911066 21.054706 21.364116
6.200000 20.743625 20.899077 21.050565 21.062008 21.211000 21.550884
6.240000 20.889239 21.041990 21.196656 21.210113 21.361193 21.712373
6.280000 21.030423 21.189215 21.347545 21.358602 21.497856 21.888557
6.320000 21.183227 21.336785 21.489244 21.504923 21.645844 22.044616
6.360000 21.350835 21.478183 21.634643 21.656317 21.801543 22.217604
6.400000 21.493932 21.621367 21.776022 21.801115 21.941587 22.413840
6.440000 21.659754 21.771119 21.918264 21.947418 22.071228 22.600814
6.480000 21.805601 21.917764 22.063674 22.094249 22.218798 22.745909
6.520000 21.946338 22.062629 22.204163 22.239874 22.362389 22.939548
6.560000 22.099876 22.211910 22.350261 22.385847 22.501604 23.124815
6.600000 22.233617 22.350244 22.491321 22.528574 22.649695 23.261063
6.640000 22.359334 22.492135 22.633356 22.671574 22.796114 23.411342
6.680000 22.508214 22.625720 22.768888 22.812461 22.927115 23.564051
6.720000 22.655710 22.774441 22.905842 22.955914 23.080399 23.735679
6.760000 22.785799 22.916414 23.049507 23.097590 23.212240 23.883721
6.810000 22.962171 23.096766 23.220334 23.273845 23.390883 24.055167
6.840000 23.066102 23.206554 23.337036 23.387128 23.514736 24.175534
6.880000 23.204228 23.346753 23.476039 23.534645 23.661893 24.350280
6.920000 23.338995 23.489467 23.622721 23.679179 23.803023 24.495080
6.960000 23.483313 23.626497 23.773232 23.826902 23.965893 24.639609
7.000000 23.625263 23.768819 23.917295 23.974650 24.121646 24.797863
7.040000 23.783538 23.907693 24.062189 24.123925 24.267650 24.964263
7.080000 23.907209 24.057792 24.203867 24.276131 24.450150 25.123580
7.120000 24.054886 24.197707 24.350238 24.428432 24.613060 25.304575
7.160000 24.192888 24.338636 24.501176 24.582801 24.783207 25.440296
7.200000 24.332385 24.492823 24.651380 24.741727 24.990486 25.626853
7.240000 24.469202 24.634139 24.802726 24.903116 25.190205 25.803955
7.280000 24.624143 24.782748 24.961681 25.066600 25.395574 25.992486
7.320000 24.758989 24.931801 25.125207 25.228379 25.577030 26.155213
7.360000 24.917496 25.091374 25.283908 25.396408 25.820946 26.345797
7.400000 25.090557 25.238023 25.444028 25.566885 26.026571 26.607634
7.440000 25.242269 25.396310 25.616208 25.739342 26.237782 26.823798
7.480000 25.396899 25.562084 25.780376 25.918751 26.419119 27.037723
7.520000 25.551429 25.719965 25.963005 26.094821 26.600055 27.265528
7.560000 25.706243 25.884737 26.142281 26.279404 26.765085 27.467421
7.600000 25.864779 26.063913 26.332282 26.472802 26.974156 27.864412
7.640000 26.039225 26.232373 26.514698 26.664311 27.159269 28.186407
7.680000 26.211286 26.414736 26.706531 26.862000 27.352233 28.490601
7.720000 26.373213 26.609370 26.898207 27.053946 27.512588 28.684772
7.760000 26.536038 26.793058 27.094678 27.244227 27.714716 28.907333
7.840000 26.896737 27.143002 27.467993 27.613934 28.048954 29.268638
7.880000 27.079288 27.331108 27.697338 27.819785 28.233948 29.504720
7.900000 27.177097 27.446974 27.826464 27.935634 28.342125 29.618013
7.920000 27.276996 27.564847 27.957315 28.052728 28.450465 29.756094
7.960000 27.536875 27.803187 28.209636 28.291091 28.646973 29.972282
8.040000 27.960002 28.273795 28.676063 28.736746 29.042453 30.344228
8.080000 28.159299 28.523374 28.895589 28.965909 29.255515 30.520967
8.100000 28.276742 28.652850 29.028191 29.083468 29.359767 30.634010
8.120000 28.401148 28.780151 29.141604 29.198100 29.466878 30.744711
8.160000 28.597601 29.026959 29.343806 29.410129 29.678339 30.906018
8.200000 28.865961 29.219805 29.536811 29.618575 29.866776 31.165146
8.240000 29.095452 29.429869 29.722321 29.820940 30.071202 31.404304
8.280000 29.302191 29.621124 29.905668 30.016995 30.250045 31.645878
8.320000 29.526125 29.806711 30.084916 30.216435 30.472650 31.858352
8.360000 29.714434 29.999247 30.260932 30.406526 30.689802 32.107956
8.440000 30.050099 30.337373 30.583112 30.761128 31.048987 32.538601
8.480000 30.253831 30.512813 30.754983 30.951752 31.288319 32.860768
8.520000 30.457898 30.679696 30.930092 31.147913 31.555172 33.138721
8.560000 30.618383 30.881290 31.110670 31.349519 31.792319 33.444294
8.600000 30.799845 31.055365 31.295298 31.549595 32.024153 33.602629
8.640000 30.994808 31.233045 31.495026 31.755078 32.332212 33.844642
8.680000 31.172838 31.421158 31.703764 31.966793 32.539194 34.231724
8.720000 31.364059 31.601741 31.919022 32.184475 32.746049 34.628637
8.760000 31.541704 31.797874 32.145334 32.417984 33.038068 34.877626
8.840000 31.881457 32.156446 32.589998 32.878270 33.615215 35.493728
8.880000 32.088669 32.371995 32.857781 33.132843 33.878627 35.786863
8.920000 32.301154 32.594745 33.116442 33.398369 34.163566 36.115993
8.960000 32.487125 32.824631 33.394160 33.669334 34.513102 36.423248
9.000000 32.684198 33.060216 33.703384 33.955452 34.854229 36.636532
9.040000 32.865664 33.305177 34.044003 34.248079 35.196433 36.867936
9.080000 33.082222 33.576959 34.352013 34.553141 35.530799 37.161251
9.120000 33.323259 33.823207 34.737705 34.872690 35.918672 37.422527
9.160000 33.569540 34.062491 35.127983 35.222099 36.336613 37.663646
9.240000 33.993417 34.686113 36.078614 36.057471 37.202509 38.480051
9.280000 34.207602 34.982821 36.473581 36.392933 37.552103 38.814500
9.320000 34.478008 35.278228 36.845975 36.736293 37.857865 39.160690
9.360000 34.683248 35.648678 37.208005 37.072901 38.171782 39.469716
9.400000 34.988455 35.951831 37.626742 37.409177 38.479505 39.642153
9.440000 35.301160 36.261957 37.945509 37.751770 38.853195 39.982581
9.480000 35.592616 36.619856 38.261658 38.079300 39.157909 40.457012
9.520000 35.891804 36.964968 38.621356 38.420610 39.517723 40.924576
9.560000 36.350031 37.382067 38.940424 38.758848 39.839120 41.192887
9.600000 36.690216 37.794028 39.268179 39.112369 40.179463 41.516298
9.640000 37.052580 38.116921 39.579259 39.450841 40.503121 41.870525
9.680000 37.406118 38.481836 39.914735 39.792272 40.831612 42.156094
9.720000 37.767866 38.878566 40.214809 40.145139 41.160364 42.648805
9.760000 38.104236 39.245975 40.541606 40.507885 41.574346 43.091962
9.800000 38.447021 39.712363 40.913354 40.897355 41.951519 43.497853
9.840000 38.871052 40.153886 41.319221 41.351301 42.504946 44.163458
9.960000 40.826524 43.292955 45.018444 44.777182 46.300204 47.524144
10.000000 41.173108 43.849833 45.501380 45.248837 46.671962 47.978244
10.040000 41.562893 44.473347 45.967013 45.708202 47.105907 48.604765
10.080000 41.848507 45.007221 46.369880 46.142056 47.459262 48.949203
10.120000 42.168255 45.548183 46.764981 46.563771 47.883850 49.350685
10.160000 42.502679 45.999124 47.150465 46.985692 48.345366 49.738720
10.200000 42.798010 46.406621 47.579816 47.424237 48.793517 50.320503
10.240000 43.241295 46.858481 47.979370 47.870661 49.333909 50.814331
10.280000 44.051633 47.227458 48.482401 48.360390 49.809332 51.447435
10.360000 45.512183 48.300158 50.077468 49.955884 51.796820 53.289033
10.400000 46.128438 48.782938 50.551575 50.470611 52.396785 53.771281
10.440000 46.726215 49.235467 51.093835 50.983089 52.927957 54.239076
10.480000 47.160394 49.646396 51.605263 51.513957 53.382266 54.747040
10.520000 47.707383 50.194010 52.207206 52.025801 53.837834 55.091061
10.560000 48.210679 50.715517 52.755498 52.538473 54.303266 55.447824
10.600000 48.665737 51.366563 53.316747 53.073766 54.821267 55.948151
10.640000 49.347959 52.000179 53.863959 53.607521 55.261140 56.415151
10.680000 49.899140 52.594541 54.403919 54.128452 55.730722 56.930508
10.720000 50.239019 53.226681 54.912720 54.647837 56.178030 57.471588
10.760000 50.928201 53.816504 55.377715 55.180436 56.679334 57.926881
10.800000 51.499094 54.319555 55.957946 55.700611 57.166577 58.390492
10.840000 51.907958 54.865779 56.480827 56.213397 57.597961 58.687179
10.880000 52.347132 55.448300 56.983462 56.729232 58.079319 59.157441
10.920000 52.983048 55.988246 57.504725 57.241902 58.563484 59.501750
10.960000 54.372268 56.580870 58.002645 57.742106 59.016435 59.899574
11.000000 54.701874 57.263252 58.472981 58.238271 59.473526 60.233972
11.040000 55.156793 57.808059 58.954102 58.731342 59.908901 60.659174
11.080000 55.806310 58.306133 59.445314 59.228595 60.373710 61.021483
11.120000 56.408365 58.815708 59.947941 59.709519 60.791452 61.451479
11.160000 56.891839 59.317576 60.470367 60.170880 61.161561 61.801640
11.200000 57.223079 59.821929 60.881590 60.612937 61.533696 62.174493
11.240000 57.864557 60.373055 61.271066 61.028623 61.855776 62.488028
11.280000 58.223430 60.880864 61.649465 61.418462 62.158146 62.895203
11.320000 58.909085 61.328397 61.990721 61.801175 62.456923 63.266863
11.360000 59.661530 61.757732 62.290642 62.148802 62.746919 63.587307
11.400000 60.153190 62.106344 62.549712 62.471960 63.012546 63.982827
11.440000 60.615220 62.397293 62.813697 62.763076 63.257812 64.272494
11.480000 61.218825 62.672881 63.058354 63.032534 63.500287 64.600452
11.520000 61.801201 62.931884 63.290311 63.296780 63.778362 64.910912
11.560000 62.140012 63.186919 63.528116 63.549153 64.014682 65.227104
11.600000 62.522240 63.439811 63.753139 63.803723 64.279880 65.626792
11.640000 62.728454 63.669251 63.970391 64.045507 64.534157 65.921242
11.680000 63.019304 63.882038 64.183726 64.287925 64.820884 66.278434
11.720000 63.365855 64.097213 64.405258 64.545381 65.085224 66.708993
11.760000 63.743946 64.323932 64.630118 64.804388 65.376317 67.039613
11.800000 64.141646 64.545215 64.896879 65.067152 65.639764 67.318402
11.840000 64.419599 64.775200 65.157883 65.346087 65.948485 67.618749
11.880000 64.690303 65.030393 65.412110 65.632284 66.319454 67.854894
11.920000 64.950874 65.295369 65.713553 65.932850 66.658882 68.091838
11.960000 65.160870 65.562961 66.053767 66.250092 67.081902 68.351663
12.000000 65.417305 65.833605 66.342463 66.558472 67.400798 68.577518
12.040000 65.719757 66.116278 66.702923 66.884746 67.725969 68.812034
12.080000 66.000564 66.413964 67.077195 67.237199 68.147968 69.088733
12.120000 66.293758 66.774745 67.442071 67.587963 68.507557 69.314530
12.160000 66.602597 67.102807 67.816414 67.935054 68.875329 69.645948
12.200000 66.929926 67.465226 68.193564 68.291317 69.210632 69.919175
12.240000 67.271204 67.796902 68.564583 68.642889 69.566653 70.226467
12.280000 67.590643 68.163556 68.952625 69.008950 69.917393 70.593209
12.320000 67.905675 68.462294 69.316280 69.343024 70.242618 70.943349
12.360000 68.228042 68.797890 69.697283 69.699200 70.583583 71.339824
12.400000 68.560499 69.147117 70.054734 70.072417 70.904795 71.824413
12.440000 68.899115 69.548572 70.485038 70.478966 71.301049 72.238354
12.480000 69.220716 70.006966 70.964186 70.958523 71.876228 72.831203
12.500000 69.417963 70.259643 71.192047 71.200272 72.110408 73.098516
12.520000 69.570881 70.480162 71.442428 71.450553 72.367351 73.282742
12.560000 70.063646 70.990001 72.111600 72.083165 73.074423 74.121196
12.600000 70.606344 71.714394 72.895896 72.926410 74.058773 75.209088
12.640000 71.292761 72.643038 73.953285 73.936257 75.136583 76.595283
12.680000 71.971172 73.618549 75.074267 75.030396 76.404173 77.759112
12.700000 72.336049 73.966171 75.416904 75.384693 76.803314 78.153166
12.720000 72.589943 74.285809 75.763375 75.746317 77.188435 78.548525
12.760000 73.549864 75.397602 77.175213 77.123882 78.844193 80.711814
12.800000 74.704927 76.672594 78.646680 78.650646 80.706948 82.514020
12.840000 75.892791 77.987247 80.415325 80.372958 82.664554 84.739515
12.880000 77.338725 79.559577 82.398775 82.185229 84.643574 86.304584
12.920000 78.565932 81.513195 84.350371 83.915840 85.994453 87.501070
12.960000 80.477575 83.459457 85.751112 85.399136 87.162505 88.720979
13.000000 82.126451 85.125907 86.776228 86.645755 88.160448 89.891456
13.040000 83.947145 86.261059 87.763070 87.745109 89.333812 91.102353
13.080000 85.455298 87.217459 88.621459 88.749242 90.193725 92.609935
13.120000 86.669143 88.140544 89.588902 89.801555 91.281453 93.933117
13.160000 87.522967 89.122344 90.549288 90.928721 92.590067 96.237241
13.200000 88.669693 90.086977 91.686976 92.279325 94.539336 98.980966
13.240000 89.728627 91.029484 93.076794 93.854491 96.989935 101.811217
13.280000 90.649700 92.346997 95.118741 95.805290 99.540256 104.091183
13.320000 91.644264 94.086295 97.540740 98.028179 102.310376 106.274899
13.360000 93.019169 96.097899 100.210461 100.377197 104.684068 107.783951
13.400000 95.081070 98.747146 102.737235 102.706260 106.781510 109.393125
13.440000 97.505217 101.376432 105.077522 104.966392 108.719098 111.640250
13.480000 100.295992 103.702527 106.878045 107.038504 110.549298 113.583143
13.520000 102.802746 105.686147 108.876581 109.122513 112.612293 116.892617
13.560000 104.727687 107.644879 110.656010 111.333998 115.011832 120.811339
13.600000 106.750758 109.162917 113.052490 113.872648 118.765442 125.072258
13.640000 108.736651 110.940039 115.859875 116.846009 122.984351 129.561545
13.680000 110.187321 113.274350 119.619792 120.164674 127.199322 131.677072
13.720000 112.506972 116.589715 123.874466 123.597062 130.738801 132.782613
