depth(m) lower_95(kyr) lower_68(kyr) median(kyr) mean(kyr) upper_68(kyr) upper_95(kyr)
0.050000 3.904760 4.487030 5.186110 5.165322 5.819715 6.309859
0.150000 4.313422 4.947573 5.617139 5.590681 6.206235 6.752081
0.250000 4.745699 5.367900 6.050727 6.005575 6.596598 7.164478
0.350000 5.164321 5.792447 6.461140 6.414485 7.004646 7.572135
0.400000 5.367135 6.040432 6.687219 6.648033 7.230425 7.757434
0.500000 5.787939 6.520458 7.119633 7.084502 7.658703 8.195430
0.600000 6.293270 6.994418 7.574076 7.540197 8.102822 8.654617
0.700000 6.811614 7.479359 8.057108 8.021966 8.572904 9.101590
0.800000 7.343766 7.986805 8.544296 8.524466 9.069692 9.613777
0.900000 7.898396 8.506295 9.048054 9.036175 9.570552 10.147677
1.000000 8.446821 9.031624 9.582612 9.577376 10.128580 10.644556
1.100000 9.107102 9.618770 10.110760 10.139665 10.673853 11.312404
1.200000 9.653820 10.133070 10.626458 10.687015 11.268272 11.999396
1.300000 10.122700 10.682021 11.212733 11.277659 11.906310 12.640040
1.400000 10.634818 11.220416 11.841635 11.894574 12.569807 13.330374
1.500000 11.162887 11.839255 12.545060 12.537020 13.251926 13.961858
1.600000 11.906313 12.611326 13.409095 13.348188 14.093373 14.626298
1.700000 12.631458 13.457908 14.161077 14.114745 14.785912 15.312875
1.800000 13.517991 14.258380 14.865402 14.854284 15.421622 16.000679
1.900000 14.586775 15.086547 15.610786 15.634766 16.182160 16.825358
2.000000 15.294660 15.784903 16.338796 16.355924 16.902383 17.544444
2.100000 15.914939 16.441178 17.002127 17.028073 17.630391 18.360252
2.200000 16.363239 16.961749 17.565961 17.605473 18.247307 19.088351
2.300000 16.925171 17.463254 18.085814 18.129220 18.798285 19.656517
2.400000 17.432058 17.906656 18.564018 18.605909 19.283505 20.180215
2.500000 17.779262 18.341056 19.003105 19.067577 19.789529 20.760996
2.600000 18.175629 18.769793 19.465858 19.533485 20.282576 21.195321
2.700000 18.566289 19.257976 19.915901 19.998170 20.762607 21.736369
2.800000 18.939744 19.752013 20.380968 20.456386 21.233669 22.248765
2.900000 19.346226 20.167221 20.825358 20.922116 21.765368 22.781669
3.000000 19.799679 20.622077 21.261413 21.393785 22.254231 23.272990
3.100000 20.200486 21.045726 21.781804 21.900768 22.808921 23.800960
3.200000 20.637305 21.499100 22.277471 22.407017 23.377839 24.407797
3.300000 21.104003 21.930418 22.778572 22.923824 24.015388 25.067231
3.400000 21.529405 22.335532 23.234445 23.409805 24.588007 25.725656
3.500000 21.929287 22.741324 23.668131 23.855997 25.069256 26.273255
3.600000 22.427535 23.185129 24.159873 24.306015 25.547269 26.708798
3.700000 22.825760 23.606175 24.639256 24.769228 25.998523 27.126018
3.800000 23.329024 24.045284 25.171467 25.239301 26.439817 27.549127
3.900000 23.734573 24.476598 25.620926 25.713093 26.966277 28.134332
4.000000 24.205453 24.860815 26.121196 26.171820 27.409161 28.585119
4.100000 24.573078 25.305721 26.629782 26.638620 27.909257 29.069107
4.200000 24.983782 25.749889 27.122271 27.124392 28.430542 29.685934
4.300000 25.453116 26.190099 27.611660 27.649220 29.017297 30.431737
4.400000 25.934071 26.691726 28.176233 28.198962 29.602990 31.051952
4.500000 26.397770 27.224219 28.782995 28.792627 30.144895 31.701272
4.600000 26.935303 27.868936 29.431882 29.465595 30.838932 32.689749
4.700000 27.493554 28.529908 30.071269 30.129527 31.596187 33.276859
4.800000 28.028965 29.228215 30.749649 30.806407 32.305447 34.294626
4.900000 28.576311 29.939617 31.427438 31.559545 33.106550 35.479323
5.000000 29.143312 30.606479 32.156252 32.337044 34.014954 36.642701
5.100000 29.694765 31.367342 32.911162 33.126523 34.903107 37.647873
5.200000 30.257197 32.020313 33.692327 33.927866 35.775954 38.817074
5.300000 30.780778 32.674085 34.505371 34.731498 36.754889 39.928327
5.400000 31.390925 33.385238 35.338438 35.568724 37.853315 40.871466
5.500000 32.307713 34.030436 36.170215 36.350557 38.836322 41.835903
5.600000 32.822935 34.627187 36.906531 37.100514 39.570636 42.521342
5.700000 33.479254 35.218275 37.652712 37.829435 40.434013 43.379241
5.800000 33.924200 35.799356 38.363972 38.552733 41.217231 44.187974
5.900000 34.364702 36.387373 39.150334 39.275821 42.065995 44.973991
6.000000 34.897129 37.088890 39.947709 40.036860 43.034569 45.650830
6.100000 35.492414 37.720863 40.659974 40.774517 44.058786 46.251101
6.200000 36.123142 38.441953 41.375902 41.462687 44.702803 46.824579
6.300000 36.569115 39.084428 42.138543 42.136776 45.434104 47.278874
6.380000 37.094841 39.584851 42.735358 42.699826 45.989684 47.815492
6.460000 37.542131 40.081986 43.373203 43.218247 46.469115 48.384802
6.500000 37.734821 40.354829 43.674296 43.484365 46.758959 48.537808
6.600000 38.300305 40.836151 44.382922 44.105470 47.235420 49.014221
6.700000 38.957587 41.311803 45.104011 44.714432 47.776704 49.493091
6.800000 39.581293 41.897821 45.726504 45.304846 48.309569 49.876745
6.900000 40.177185 42.466880 46.335246 45.877211 48.813591 50.260945
7.033333 40.971624 43.276435 47.348893 46.655566 49.415685 50.749670
7.166667 41.685073 43.887936 48.167650 47.375899 50.083387 51.320385
7.300000 42.353250 44.480732 48.913607 48.058022 50.628842 51.908642
7.400000 42.905105 44.954119 49.446685 48.549419 51.108781 52.315438
7.500000 43.378228 45.461562 49.878339 49.016577 51.497866 52.728910
7.645455 44.225288 46.279027 50.489281 49.657442 52.056031 53.345076
7.790909 44.795122 47.126125 51.110248 50.285183 52.583612 53.798195
7.936364 45.462545 47.759738 51.685341 50.905844 53.126725 54.332756
8.081818 46.051883 48.373248 52.282488 51.503566 53.694489 54.846456
8.227273 46.655184 49.248017 52.856550 52.107133 54.242600 55.266780
8.372727 47.250606 49.945678 53.436480 52.715686 54.808627 55.923112
8.518182 47.895282 50.728135 54.061509 53.325671 55.360749 56.409418
8.663636 48.493130 51.451269 54.603024 53.926562 55.902450 56.974834
8.809091 49.112585 52.186765 55.184611 54.544333 56.477091 57.473413
8.954545 49.757904 52.987333 55.799946 55.185414 57.051995 58.085698
9.100000 50.529116 53.800602 56.376514 55.807175 57.584492 58.620076
9.200000 51.120638 54.281690 56.808331 56.264715 58.007082 58.980157
9.330000 51.972899 54.911697 57.361246 56.853976 58.566639 59.460242
9.460000 52.691102 55.618862 57.880057 57.457969 59.132649 59.947755
9.590000 53.414389 56.382288 58.479071 58.076646 59.641384 60.491010
9.720000 54.386064 57.153724 59.052728 58.695186 60.134905 60.980339
9.820000 55.034919 57.736243 59.538039 59.209478 60.589087 61.439219
9.920000 55.811829 58.363543 60.015987 59.736378 61.071883 61.931950
10.020000 56.719132 58.924715 60.555689 60.284476 61.532406 62.362598
10.120000 57.638626 59.671179 61.065051 60.856131 62.035967 62.948092
10.220000 58.497365 60.397082 61.645689 61.448234 62.588043 63.419732
10.320000 59.227060 61.075589 62.197536 62.074834 63.151929 64.032526
10.420000 59.968917 61.716421 62.768608 62.696733 63.726829 64.580744
10.520000 60.906663 62.372103 63.411295 63.349147 64.363016 65.295930
10.620000 61.681523 63.060473 64.067039 63.993278 64.962115 65.818660
10.720000 62.457947 63.675061 64.702707 64.616899 65.586377 66.497568
10.820000 62.947202 64.274086 65.269961 65.224207 66.187752 67.176757
10.920000 63.528206 64.843759 65.825986 65.811453 66.780959 67.770063
11.020000 64.042738 65.414421 66.417579 66.410264 67.430511 68.363824
11.120000 64.579318 65.964048 67.012600 67.027942 68.083771 69.124571
11.220000 65.073198 66.562627 67.668506 67.652023 68.717464 69.927167
11.320000 65.755563 67.171361 68.212795 68.227008 69.275949 70.600868
11.420000 66.548843 67.725338 68.808455 68.836378 69.865150 71.319216
11.520000 67.362944 68.366077 69.441195 69.516239 70.624678 72.077563
11.620000 68.142896 69.136942 70.232557 70.398221 71.611379 73.250544
11.720000 69.078311 70.229531 71.433799 71.595034 73.042071 74.594486
11.820000 70.280384 71.445261 72.809498 72.914065 74.334602 76.034374
11.920000 71.504581 72.894965 74.472344 74.475624 75.878816 77.803527
12.020000 72.770604 74.272792 75.644082 75.641379 77.012366 78.657534
12.120000 73.880346 75.433556 76.758710 76.787241 78.138975 79.803007
12.220000 75.092112 76.620262 77.893298 77.977285 79.343544 81.220855
12.320000 76.483092 77.834107 79.233889 79.328332 80.835443 82.612227
12.420000 77.794996 79.031637 80.445083 80.613619 82.231702 84.177830
12.520000 78.745561 80.125447 81.730261 81.840180 83.554592 85.519687
12.620000 79.913979 81.406112 83.122525 83.176658 84.805717 87.216651
12.720000 81.144722 82.854655 84.497843 84.653810 86.277855 89.123304
12.820000 83.258252 84.949671 86.512226 86.736992 88.816934 90.976069
12.920000 84.867141 86.440990 88.465852 88.523612 90.479099 92.396918
13.020000 86.350323 88.248663 90.536682 90.361470 92.342786 94.041135
13.120000 87.934770 89.968617 92.152118 92.001743 93.897945 95.891860
13.220000 89.492619 91.525130 93.443313 93.551814 95.482646 98.443662
13.320000 91.139214 93.049091 94.868066 95.104652 97.181562 100.455434
13.420000 93.285791 95.052051 96.805462 97.120291 99.357831 102.222026
13.520000 95.491126 97.053927 98.998517 99.159035 101.422306 103.784940
13.620000 97.389535 99.049460 101.272513 101.244734 103.318480 105.627775
13.720000 99.600048 101.593415 103.834335 103.725170 105.674464 107.956499
13.820000 101.933162 103.942399 105.745877 105.778687 107.734670 109.866457
13.920000 103.651127 105.722478 107.567699 107.569296 109.532790 111.172776
14.020000 105.652362 107.512553 109.539439 109.409041 111.208331 112.698595
14.120000 107.688207 109.539037 111.394715 111.283346 112.938273 114.138772
14.220000 110.304487 111.880186 113.536037 113.397483 114.820306 115.925877
14.320000 113.516259 115.256279 116.575270 116.592924 117.882018 119.527228
14.420000 116.501063 117.828121 119.035527 119.214450 120.630191 122.931287
14.520000 118.193627 119.442171 120.937386 121.224910 123.165679 125.487387
14.620000 119.581170 121.137914 123.280286 123.380086 125.800153 127.546195
14.720000 121.180468 123.406852 126.051907 125.689042 127.735497 128.905983
14.820000 123.862746 126.325084 128.141937 127.867279 129.360433 130.198060
14.920000 128.386401 129.241530 130.178843 130.145893 131.033137 131.834963
15.020000 129.868747 130.645751 131.451375 131.436971 132.209964 132.997800
15.120000 131.009359 131.776621 132.553803 132.570451 133.397149 134.155475
15.220000 131.949463 132.704407 133.527752 133.590571 134.479869 135.491073
15.320000 132.688264 133.551646 134.465860 134.572514 135.509231 137.075957
15.420000 133.561016 134.388949 135.502839 135.782641 136.967151 139.892891
15.520000 134.525690 135.523453 137.388459 137.758823 139.943439 143.345545
15.620000 135.346662 136.821534 140.017043 139.995255 142.924886 145.777067
15.720000 136.216930 138.315159 142.879017 142.389871 145.732364 148.252234
15.820000 137.548576 140.566089 144.829285 144.354445 147.600299 149.976472
15.920000 139.421331 143.080081 146.728509 146.209731 149.109974 151.124821
16.020000 141.716768 145.227868 148.437668 147.992153 150.527911 152.335863
16.120000 143.564471 146.841983 149.718024 149.352095 151.699011 153.291057
16.220000 144.719648 148.240887 150.871562 150.483007 152.746713 154.235569
16.320000 145.846629 149.362381 152.008420 151.563196 153.755697 155.272617
16.420000 146.549821 150.475261 153.186018 152.624952 154.690718 156.117490
16.520000 147.599960 151.560467 154.169442 153.621358 155.641933 156.910197
16.620000 148.205628 152.715084 155.105725 154.586397 156.505024 157.830163
16.720000 149.504530 153.782153 156.005218 155.530837 157.357957 158.608929
16.820000 150.541847 154.837108 156.888762 156.467746 158.216953 159.500819
16.920000 151.915659 155.899259 157.710870 157.369170 159.080847 160.554066
17.020000 152.914499 156.734246 158.518945 158.246799 159.892398 161.463076
17.120000 154.193492 157.588722 159.363934 159.096653 160.763614 162.263358
17.220000 155.078053 158.406450 160.242260 159.976058 161.691289 163.127681
17.320000 156.191901 159.334055 161.078386 160.872128 162.616155 164.139615
17.420000 157.088723 160.214695 162.013163 161.819728 163.554428 165.262717
17.520000 157.879119 161.098996 162.902010 162.807616 164.542800 166.563910
17.620000 159.094071 162.069996 163.846200 163.874094 165.707795 168.295241
17.720000 160.037515 162.986194 164.852910 164.954108 167.058391 169.832877
17.820000 161.220231 163.926525 165.912108 166.186681 168.649166 171.735096
17.920000 162.337270 164.989940 167.074346 167.473879 170.277449 174.001931
18.020000 163.529996 166.061216 168.328758 168.902165 172.156992 175.763806
18.120000 165.040013 167.176129 169.659272 170.269416 173.779692 177.451152
18.220000 166.296192 168.157610 171.001275 171.674286 175.590825 178.883486
18.320000 167.124237 169.149156 172.081645 173.032740 177.632037 181.582661
18.420000 168.111637 170.016912 173.282699 174.325911 179.269962 182.934690
18.520000 168.975908 170.986976 174.531435 175.584142 180.959961 184.424572
18.620000 170.188607 172.085500 176.001353 176.854830 182.225116 185.573170
18.720000 171.361078 173.342875 177.283796 178.086341 183.582085 186.997718
18.820000 172.607537 174.692218 178.709782 179.353323 184.571532 187.992412
18.920000 173.422397 176.223496 180.358678 180.704210 185.783875 188.827744
19.057500 174.970602 178.025650 182.533131 182.570287 187.236798 190.142733
19.195000 176.641307 180.087979 184.536526 184.390449 188.752762 191.339139
19.332500 178.507606 181.969311 186.402467 186.181408 190.161576 192.407953
19.470000 180.388539 184.359863 188.327435 187.987214 191.685339 193.517004
19.607500 182.902421 186.668292 190.201311 189.811490 193.051152 194.920978
19.745000 185.525633 189.029819 191.940812 191.673433 194.390952 195.972372
19.882500 188.552620 191.375033 193.745227 193.528826 195.690768 197.315516
20.020000 191.182853 193.554156 195.435181 195.270631 196.917806 198.531586
20.120000 193.125398 195.054220 196.677766 196.589265 198.017311 199.590012
20.220000 194.625553 196.346428 197.812386 197.796268 199.233982 200.947889
20.320000 195.813093 197.390779 198.892109 198.906152 200.371844 202.460203
20.420000 196.872590 198.286500 199.768312 199.905624 201.438174 203.743145
20.520000 197.904098 199.358373 200.886933 201.004030 202.666104 204.928973
