depth(m) lower_95(kyr) lower_68(kyr) median(kyr) mean(kyr) upper_68(kyr) upper_95(kyr)
32.800000 398.453944 399.534815 400.370629 400.287433 401.043622 401.736049
32.840000 399.139745 399.997295 400.789180 400.727563 401.452387 402.069690
32.880000 399.661082 400.434747 401.168000 401.138861 401.829251 402.408790
32.920000 400.182778 400.859244 401.576669 401.531898 402.190917 402.763074
32.960000 400.596256 401.197631 401.943271 401.910452 402.583755 403.100374
33.000000 400.956887 401.605562 402.320251 402.287318 402.944660 403.419448
33.040000 401.378157 401.997383 402.710368 402.671508 403.333712 403.832040
33.080000 401.729661 402.379964 403.085301 403.042917 403.679418 404.173496
33.120000 402.086307 402.753562 403.460135 403.410726 404.041909 404.519037
33.160000 402.517834 403.093892 403.830674 403.778007 404.408238 404.891643
33.200000 402.829430 403.439567 404.212328 404.135951 404.761264 405.292698
33.240000 403.140432 403.839186 404.580179 404.506916 405.124861 405.638901
33.280000 403.476162 404.213022 404.935720 404.868654 405.463912 405.986941
33.320000 403.874153 404.589778 405.319528 405.241927 405.812471 406.382249
33.360000 404.210359 404.976859 405.656748 405.600044 406.177374 406.719464
33.400000 404.630288 405.336932 406.001889 405.947718 406.529775 407.063143
33.440000 405.007582 405.694972 406.359109 406.296059 406.863743 407.379114
33.480000 405.403971 406.055702 406.717136 406.651551 407.200736 407.724382
33.520000 405.807122 406.424292 407.066754 407.013864 407.568793 408.083883
33.560000 406.175614 406.755842 407.424604 407.371160 407.917865 408.496414
33.600000 406.538631 407.135072 407.780757 407.741218 408.292559 408.859356
33.640000 406.863704 407.513887 408.136799 408.093351 408.632264 409.259950
33.680000 407.155449 407.849977 408.468996 408.440874 408.996175 409.638109
33.720000 407.469397 408.181736 408.834461 408.784109 409.334349 409.955147
33.760000 407.804830 408.530193 409.167452 409.140683 409.724296 410.307314
33.800000 408.157638 408.890473 409.523441 409.498432 410.083245 410.662897
33.840000 408.526721 409.195522 409.839448 409.831636 410.426749 411.008538
33.880000 408.882867 409.563006 410.186553 410.164775 410.756595 411.328426
33.920000 409.280160 409.894389 410.509134 410.500635 411.104779 411.647225
33.960000 409.652743 410.219075 410.834325 410.826915 411.453990 411.978219
34.000000 409.995476 410.526686 411.152998 411.150910 411.791401 412.263676
34.040000 410.261875 410.837645 411.483714 411.472565 412.131688 412.583555
34.080000 410.583286 411.150412 411.808239 411.800684 412.459203 412.936153
34.120000 410.886632 411.452562 412.088099 412.112958 412.784135 413.264117
34.160000 411.176837 411.769818 412.408533 412.428682 413.109483 413.596242
34.200000 411.489992 412.068461 412.720914 412.754016 413.462817 413.915846
34.240000 411.813955 412.383748 413.042644 413.075684 413.807377 414.281859
34.280000 412.148126 412.715722 413.379263 413.403683 414.132196 414.657534
34.300000 412.318764 412.886498 413.555686 413.583225 414.326024 414.855425
34.340000 412.609028 413.200500 413.873793 413.901960 414.644402 415.169115
34.380000 412.903129 413.498568 414.182280 414.218621 414.962549 415.495915
34.420000 413.191020 413.818876 414.519575 414.539463 415.301991 415.832613
34.460000 413.498914 414.108709 414.835952 414.869727 415.662625 416.207336
34.500000 413.828429 414.427053 415.189838 415.198126 416.002596 416.539391
34.540000 414.146676 414.718245 415.528671 415.532779 416.360822 416.957143
34.580000 414.430948 415.047221 415.903752 415.867208 416.672164 417.281780
34.620000 414.739281 415.343216 416.205906 416.192724 416.991982 417.692363
34.660000 415.041820 415.670679 416.547329 416.516253 417.329574 418.048447
34.700000 415.305427 415.970044 416.914515 416.838113 417.654222 418.375420
34.740000 415.676329 416.293783 417.214973 417.159889 417.974345 418.638787
34.780000 415.990555 416.586542 417.551862 417.489803 418.297720 419.020686
34.820000 416.273502 416.912226 417.883575 417.830496 418.674467 419.388515
34.860000 416.575817 417.253731 418.227258 418.173797 419.037196 419.733642
34.900000 416.901860 417.601468 418.580425 418.525051 419.382547 420.130949
34.940000 417.271479 417.955412 418.958507 418.886915 419.750673 420.518292
34.980000 417.606150 418.301671 419.331506 419.256161 420.142118 421.055762
35.020000 417.955177 418.647386 419.711216 419.646389 420.535630 421.489847
35.060000 418.388263 419.142027 420.121864 420.081113 420.967243 421.965748
35.100000 418.788145 419.587054 420.564959 420.541783 421.422500 422.334489
35.140000 419.212072 420.107221 421.070272 421.039832 421.949771 422.857677
35.180000 419.722559 420.618254 421.603866 421.579319 422.483988 423.317537
35.220000 420.502613 421.327544 422.243350 422.228409 423.154978 423.920777
35.260000 421.175863 422.131720 423.019071 422.977578 423.795983 424.621859
35.300000 422.054805 423.005974 423.924505 423.876472 424.722830 425.412044
35.340000 423.394943 424.394242 425.134390 425.107674 425.864779 426.453612
35.380000 424.658599 425.501110 426.240032 426.196171 426.859262 427.480683
35.420000 426.183175 426.942279 427.550269 427.567347 428.239055 428.936493
35.460000 427.141349 427.802880 428.465070 428.529492 429.250718 430.165619
35.500000 427.860964 428.572588 429.451268 429.597951 430.614356 432.232616
35.540000 429.349689 430.438440 431.515792 431.598827 432.791863 434.156265
35.580000 430.883560 431.927022 433.334833 433.351172 434.761188 436.172532
35.620000 432.161295 433.523714 435.047067 435.004961 436.463687 437.929750
35.660000 433.664134 435.128004 436.688738 436.657697 438.146634 439.630906
35.700000 435.310525 436.830286 438.392980 438.338596 439.815141 441.247235
35.740000 436.836624 438.307167 439.915600 439.862536 441.393816 442.571642
35.780000 438.062453 439.582155 441.232689 441.113731 442.581338 443.756482
35.790000 438.188860 439.798521 441.416058 441.306463 442.720384 444.018082
35.830000 439.510165 440.889437 442.372606 442.280393 443.561604 444.749705
35.870000 440.579799 441.953772 443.302024 443.264250 444.489485 445.863008
35.910000 441.480795 442.900385 444.157824 444.170692 445.396252 446.901346
35.950000 442.487573 443.756847 445.046107 445.065384 446.348809 447.867550
35.990000 443.308888 444.542326 445.851652 445.943866 447.371693 449.153302
36.030000 444.014180 445.266818 446.743048 446.817167 448.302500 450.293681
36.070000 444.783218 446.042838 447.547485 447.655838 449.250362 451.363439
36.110000 445.587031 446.877493 448.430622 448.573999 450.274222 452.453380
36.150000 446.102498 447.722479 449.334687 449.468437 451.284201 453.350137
36.190000 446.833416 448.507003 450.244015 450.362622 452.187240 454.270230
36.230000 447.590919 449.305895 451.255136 451.275455 453.081637 455.638651
36.270000 448.420956 450.267245 452.176276 452.169252 453.926521 456.495363
36.310000 449.155166 451.286866 453.069971 453.091131 454.814449 457.481550
36.350000 449.982613 452.310337 453.896613 453.985804 455.718521 458.387363
36.390000 450.422229 453.314141 454.818790 454.916807 456.861778 459.337038
36.407000 450.792773 453.607413 455.122565 455.235031 457.154076 459.726326
36.430000 451.124532 454.058581 455.527679 455.670045 457.544960 460.318995
36.450000 451.642539 454.418881 455.923698 456.053876 457.933755 460.704324
36.490000 452.840902 455.342122 456.914884 457.039110 458.994323 461.596359
36.530000 454.330725 456.221265 457.900152 458.049028 459.927066 462.355241
36.570000 455.078104 457.088463 458.997222 459.003769 460.823768 463.023686
36.610000 456.102808 457.988611 460.020589 459.932314 461.728569 463.664684
36.650000 457.224601 459.007621 460.954112 460.902880 462.718190 464.466843
36.690000 458.212506 460.163424 461.940075 461.835684 463.553858 465.038714
36.730000 459.255435 461.075396 462.863692 462.772064 464.450947 465.857125
36.770000 460.340420 462.090180 463.721452 463.689046 465.272691 466.643924
36.810000 461.547897 463.225582 464.753717 464.679504 466.187504 467.398698
36.850000 462.723031 464.233562 465.680159 465.675829 467.118141 468.364041
36.890000 463.782134 465.357273 466.687752 466.645793 467.976799 469.281775
36.930000 464.819616 466.231029 467.579627 467.529882 468.842803 470.199090
36.970000 465.547019 466.969454 468.310909 468.300650 469.645563 470.956227
37.010000 466.380869 467.714078 469.015876 469.040728 470.363922 471.792827
37.050000 467.140157 468.404712 469.754895 469.720815 471.027542 472.435209
37.130000 468.491832 469.726110 471.048252 471.045554 472.294227 473.717069
37.170000 469.047159 470.319873 471.644140 471.653939 473.016748 474.394006
37.210000 469.594381 470.906229 472.207489 472.227462 473.632978 474.822711
37.250000 470.156290 471.491318 472.792746 472.802287 474.163014 475.500741
37.290000 470.637303 472.025418 473.379629 473.362715 474.676135 475.992721
37.330000 471.205251 472.648590 473.981272 473.936606 475.204115 476.440246
37.370000 471.766266 473.331555 474.618625 474.536290 475.798196 476.853873
37.410000 472.371080 473.935574 475.283499 475.161576 476.348381 477.385873
37.450000 473.053135 474.612564 475.907504 475.775119 476.904000 477.940509
37.490000 473.726717 475.182365 476.465241 476.347177 477.385655 478.370183
37.530000 474.366201 475.826088 477.019645 476.910172 477.952647 478.833543
37.570000 475.034051 476.378791 477.527547 477.446113 478.498909 479.277575
37.610000 475.555898 477.010318 478.006651 477.960406 478.989055 479.822622
37.650000 476.200386 477.597747 478.531548 478.498012 479.472435 480.257795
37.690000 476.799030 478.120067 479.015708 478.996015 479.920827 480.872986
37.730000 477.490396 478.602443 479.449873 479.478099 480.413904 481.322222
37.770000 478.062725 479.069482 479.901809 479.932267 480.905286 481.760697
37.810000 478.431851 479.525882 480.373181 480.386006 481.351444 482.244337
37.850000 478.866750 479.908956 480.840424 480.838302 481.836331 482.646167
37.890000 479.259160 480.360372 481.302872 481.268688 482.278212 483.035210
37.930000 479.672658 480.778688 481.778042 481.723144 482.695434 483.424801
37.950000 479.891161 481.004808 482.000919 481.963889 482.932596 483.646445
37.990000 480.506685 481.478327 482.521462 482.438049 483.372076 484.176827
38.030000 480.955596 481.946641 482.976799 482.922445 483.867888 484.803500
38.070000 481.454451 482.415460 483.467794 483.400094 484.295981 485.318551
38.110000 481.948701 482.906569 483.874802 483.845458 484.733945 485.671424
38.150000 482.384733 483.322376 484.295088 484.288623 485.224860 486.303161
38.190000 482.939741 483.761197 484.713392 484.716993 485.619033 486.644385
38.230000 483.354524 484.226400 485.123253 485.164190 486.088990 487.129034
38.270000 483.742592 484.686289 485.586578 485.617901 486.571178 487.654496
38.310000 484.261683 485.150269 486.052614 486.098909 487.069265 488.162386
38.350000 484.631810 485.579748 486.475868 486.552133 487.563375 488.578950
38.390000 485.100865 486.011251 486.977585 487.012147 488.069546 489.132823
38.430000 485.501160 486.362083 487.443051 487.463290 488.556731 489.646770
38.470000 485.909496 486.763748 487.850886 487.905387 489.087570 490.132068
38.510000 486.335587 487.159742 488.286420 488.340082 489.514995 490.636482
38.550000 486.740246 487.617199 488.770224 488.787510 489.957509 491.235967
38.590000 487.240721 488.026345 489.212276 489.230948 490.393299 491.671378
38.630000 487.588754 488.450971 489.666577 489.672697 490.769653 492.228422
38.670000 487.993751 488.881239 490.147924 490.108019 491.153022 492.720781
38.710000 488.386462 489.319668 490.582491 490.552672 491.602265 493.194413
38.750000 488.769482 489.790293 490.991362 490.989655 492.059470 493.600241
38.790000 489.173337 490.227665 491.446077 491.442318 492.552725 493.930467
38.830000 489.630747 490.733373 491.923477 491.922199 493.074859 494.269370
38.870000 490.023772 491.187044 492.376743 492.403000 493.607581 494.712060
38.910000 490.367688 491.678831 492.860768 492.882620 494.068111 495.051770
38.950000 490.859894 492.263473 493.369828 493.359901 494.519713 495.509524
38.990000 491.242518 492.678036 493.854278 493.826690 494.960436 495.952737
39.030000 491.797874 493.184772 494.330274 494.291042 495.410297 496.328271
39.070000 492.266833 493.654605 494.845692 494.746694 495.824449 496.706707
39.110000 492.804136 494.107114 495.278761 495.189612 496.261873 497.182823
39.150000 493.260705 494.628727 495.706908 495.635406 496.692059 497.554433
39.190000 493.598139 495.104747 496.224619 496.094472 497.104415 497.939854
39.230000 494.040667 495.557422 496.699177 496.539295 497.489974 498.442221
39.270000 494.531439 495.966074 497.130163 496.964532 497.866757 498.781837
39.310000 494.920476 496.431106 497.535987 497.394199 498.254092 499.218984
39.350000 495.384592 496.942623 497.969189 497.830238 498.680308 499.629504
39.390000 495.801468 497.415810 498.349099 498.252215 499.048791 499.964657
39.430000 496.521390 497.965782 498.749253 498.673159 499.444862 500.318916
39.450000 496.740228 498.211632 498.963026 498.887725 499.634362 500.673396
39.490000 497.161800 498.578786 499.329959 499.275456 500.025368 501.096158
39.530000 497.712718 498.988512 499.694446 499.680050 500.424778 501.613119
39.570000 498.254346 499.396405 500.047754 500.089862 500.814760 502.038386
39.610000 498.740087 499.791682 500.437947 500.480640 501.210253 502.484588
39.650000 499.119102 500.160674 500.795838 500.861158 501.617467 502.849047
39.690000 499.615906 500.554717 501.144480 501.235718 501.939247 503.274783
39.730000 500.052065 500.916189 501.513034 501.616556 502.306682 503.685122
39.770000 500.491270 501.270258 501.889497 501.992491 502.675489 504.024702
39.810000 500.998283 501.644946 502.232177 502.370539 503.122193 504.361884
39.850000 501.437987 501.981910 502.612783 502.752678 503.590724 504.642624
39.890000 501.805945 502.378206 502.970054 503.135216 503.984160 505.004041
39.930000 502.216561 502.748874 503.369763 503.528311 504.410461 505.451219
39.970000 502.534528 503.105199 503.807089 503.926624 504.859674 505.850470
40.010000 502.921588 503.481274 504.195236 504.316728 505.233467 506.222753
40.050000 503.304656 503.863443 504.588621 504.717006 505.691745 506.586211
40.090000 503.722571 504.254430 505.026911 505.125603 506.094833 506.966554
40.130000 504.122165 504.677436 505.428854 505.546530 506.529396 507.336815
40.170000 504.468788 505.074418 505.857948 505.970426 506.969923 507.845013
40.210000 504.898410 505.543187 506.302183 506.424476 507.390308 508.287027
40.250000 505.349231 506.002597 506.778029 506.917074 507.838178 508.986399
40.290000 505.769396 506.446737 507.336289 507.432933 508.395431 509.535094
40.330000 506.266531 506.910162 507.905716 507.974945 508.969158 510.323481
40.370000 506.702291 507.425580 508.422383 508.519409 509.612166 510.871770
40.410000 507.165351 507.928078 509.000018 509.099692 510.260357 511.618800
40.450000 507.578584 508.387008 509.534732 509.642743 510.905075 512.284940
40.530000 508.337771 509.279788 510.666840 510.737110 512.226329 513.355689
40.570000 508.712925 509.757552 511.324059 511.304759 512.771204 513.812080
40.610000 509.176202 510.297308 511.951245 511.860835 513.356246 514.306585
40.650000 509.717505 510.833596 512.562446 512.410161 513.826048 514.737616
40.690000 510.233465 511.267976 513.110655 512.929800 514.332872 515.048304
40.730000 510.710919 511.859171 513.709627 513.475474 514.814687 515.472288
40.770000 511.206196 512.517424 514.230387 513.971119 515.261354 515.873347
40.810000 511.707970 513.121440 514.725651 514.458362 515.695929 516.264120
40.850000 512.140578 513.641773 515.197400 514.924525 516.066781 516.597905
40.890000 512.600335 514.108021 515.651088 515.364911 516.490101 516.959314
40.930000 513.046081 514.638211 516.086460 515.807635 516.845816 517.277015
40.950000 513.275015 514.943170 516.298289 516.026210 517.040507 517.456943
40.990000 513.634991 515.433563 516.694485 516.410151 517.323449 517.770895
41.030000 514.164453 515.855327 517.026029 516.783841 517.649510 518.164389
41.070000 514.575510 516.318570 517.368758 517.154413 517.966091 518.502344
41.110000 515.028130 516.714173 517.717585 517.516527 518.312597 518.861582
41.150000 515.569470 517.089537 518.072214 517.875310 518.636639 519.132891
41.190000 515.988705 517.456318 518.379180 518.218007 518.955337 519.471414
41.230000 516.440288 517.811313 518.710880 518.570109 519.300443 519.817896
41.270000 516.886628 518.166415 519.034522 518.913610 519.630830 520.151006
41.310000 517.453104 518.535051 519.366664 519.262503 519.935019 520.517670
41.350000 517.871516 518.922882 519.697328 519.624340 520.280050 520.914660
41.390000 518.375092 519.322481 520.044228 519.989888 520.627470 521.356623
41.430000 518.848358 519.678417 520.366135 520.352914 520.999364 521.677233
41.470000 519.316207 520.043937 520.718486 520.721853 521.369884 522.044063
41.510000 519.768690 520.416275 521.069943 521.084029 521.738227 522.397302
41.550000 520.161275 520.733234 521.403790 521.433072 522.114067 522.777293
41.590000 520.541012 521.058604 521.757175 521.785869 522.450540 523.241425
41.630000 520.891689 521.393010 522.092394 522.140787 522.834540 523.635535
41.670000 521.193075 521.704183 522.444710 522.484392 523.187649 523.984936
41.710000 521.536313 522.040663 522.807841 522.840320 523.574655 524.416808
41.750000 521.889123 522.373057 523.181429 523.199939 523.927971 524.994801
41.790000 522.171934 522.714299 523.542383 523.557613 524.303732 525.443189
41.830000 522.488241 523.065701 523.916160 523.921957 524.679203 525.859237
41.870000 522.826216 523.405362 524.293034 524.289160 525.043091 526.217538
41.910000 523.148788 523.741512 524.677894 524.662202 525.393518 526.771009
41.950000 523.485383 524.120327 525.029945 525.032517 525.810266 527.282905
41.990000 523.808456 524.484443 525.400276 525.404672 526.204971 527.629609
42.030000 524.119803 524.827423 525.771324 525.785529 526.572192 528.121296
42.070000 524.483936 525.202543 526.129234 526.173343 526.974633 528.562451
42.110000 524.826110 525.647263 526.537040 526.583320 527.428692 529.020413
42.150000 525.233285 526.099984 526.938472 527.034236 527.920404 529.392326
42.190000 525.609650 526.620414 527.405980 527.501984 528.471956 529.763680
42.230000 526.066682 527.005732 527.860992 527.964932 529.022883 530.159438
42.270000 526.508404 527.505434 528.320994 528.441948 529.516228 530.571100
42.310000 526.892238 527.921720 528.789081 528.910810 530.092412 531.020224
42.350000 527.345330 528.360155 529.297061 529.393861 530.583905 531.412508
42.390000 527.838880 528.799312 529.812961 529.876281 531.078779 531.750219
42.430000 528.270503 529.299910 530.278373 530.330529 531.466728 532.117839
42.450000 528.482556 529.527629 530.548384 530.556209 531.669893 532.280954
42.490000 528.836296 529.944530 531.021234 530.978489 532.053783 532.660842
42.530000 529.165594 530.379039 531.452325 531.388230 532.440802 532.996462
42.570000 529.650849 530.762073 531.894225 531.804417 532.797261 533.400235
42.610000 529.995311 531.162696 532.327362 532.191964 533.172987 533.757977
42.650000 530.435932 531.588752 532.736117 532.589251 533.507074 534.030416
42.690000 530.964945 532.049031 533.133088 533.001624 533.881870 534.375285
42.730000 531.446895 532.503569 533.581484 533.421399 534.266600 534.788089
42.770000 531.936593 532.959209 533.998107 533.834534 534.629271 535.126753
42.810000 532.432915 533.489343 534.389610 534.278454 535.010825 535.610941
42.850000 533.053581 534.048439 534.853224 534.762027 535.465148 536.070774
42.890000 533.728592 534.623122 535.334781 535.295939 535.974244 536.590122
42.930000 534.425430 535.261791 535.931742 535.912765 536.538223 537.217588
42.970000 535.248189 535.999130 536.641683 536.649871 537.349127 537.960916
43.010000 536.062621 536.727989 537.376985 537.392570 538.086449 538.682230
43.050000 536.768050 537.479465 538.086102 538.097812 538.725562 539.361309
43.090000 537.540250 538.023803 538.648921 538.670482 539.290074 540.059145
43.130000 538.015551 538.524518 539.108871 539.145201 539.797628 540.520622
