depth(m) lower_95(kyr) lower_68(kyr) median(kyr) mean(kyr) upper_68(kyr) upper_95(kyr)
3.230000 95.727953 98.222194 101.342965 101.106818 103.682830 105.674222
3.320000 97.764075 100.506905 103.726970 103.310290 105.758972 107.557870
3.380000 98.989561 101.958596 105.247793 104.813253 107.318863 108.809854
3.510000 101.776529 105.197426 108.116290 107.625962 109.884752 111.245049
3.640000 104.970916 108.577795 110.914110 110.462143 112.251750 113.274550
3.770000 108.928115 112.148436 113.567307 113.236375 114.440568 115.351105
3.800000 109.904400 113.001325 114.186985 113.925409 114.994312 115.914800
3.890000 113.881419 114.955387 115.862528 115.787078 116.624146 117.336414
3.950000 115.524572 116.309017 117.077634 117.063132 117.836302 118.466987
3.980000 116.206763 116.953809 117.680072 117.677145 118.436655 119.049929
4.050000 117.545950 118.276394 118.989610 118.969631 119.666368 120.337451
4.110000 118.658390 119.356584 120.014683 120.031997 120.699852 121.442563
4.140000 119.319471 119.942908 120.579566 120.613715 121.277413 122.048725
4.170000 119.885089 120.511445 121.160545 121.200942 121.894429 122.725682
4.200000 120.495228 121.100690 121.781337 121.811309 122.512808 123.349460
4.230000 120.999039 121.677889 122.369218 122.414136 123.160936 123.921460
4.260000 121.558727 122.240072 122.935751 122.986598 123.772614 124.610483
4.290000 122.100062 122.766740 123.496356 123.553549 124.389450 125.301100
4.320000 122.648429 123.300772 124.018808 124.098362 124.919449 125.860583
4.350000 123.202885 123.861413 124.560860 124.646511 125.482661 126.375027
4.380000 123.773726 124.439689 125.095068 125.214476 126.035228 126.901345
4.410000 124.400455 125.044839 125.763534 125.850312 126.677106 127.562059
4.440000 125.025182 125.703694 126.585012 126.603123 127.503766 128.392689
4.470000 125.757916 126.564771 127.559969 127.557920 128.517435 129.568772
4.500000 126.933326 127.799910 128.788460 128.833031 129.878291 130.943882
4.530000 128.101979 128.949672 129.998302 130.042657 131.173714 132.220088
4.560000 129.035696 129.981213 130.987696 131.039133 132.198371 133.035800
4.590000 129.912010 130.875086 131.974907 131.954251 133.057012 133.843410
4.620000 130.664388 131.662742 132.773977 132.720367 133.780545 134.514289
4.650000 131.408221 132.362799 133.465421 133.392485 134.393064 135.167438
4.680000 132.040219 133.056911 134.104842 134.021162 134.945760 135.721432
4.710000 132.611763 133.707035 134.662254 134.603405 135.515014 136.215620
4.740000 133.556913 134.445692 135.304841 135.290797 136.156409 137.003308
4.800000 134.747076 135.689374 136.531560 136.564555 137.409577 138.693672
4.830000 135.492558 136.404067 137.269774 137.326238 138.207475 139.722030
4.920000 137.250893 138.308383 139.221140 139.378532 140.523967 142.266834
5.010000 139.053807 140.131028 141.362635 141.621788 143.032367 145.980783
5.070000 140.540341 141.557681 143.085493 143.497632 145.313094 148.991819
5.100000 141.178433 142.359510 144.121064 144.480820 146.453782 150.180917
5.160000 142.705347 144.207530 146.646872 146.897567 149.626929 152.598378
5.250000 144.875978 148.296303 151.480202 151.048622 153.632288 155.519870
5.280000 145.656940 149.764194 152.894188 152.348901 154.772238 156.543037
5.310000 146.451398 151.082610 154.059373 153.507851 155.855131 157.582506
5.311000 146.475248 151.120772 154.118931 153.543367 155.887499 157.607811
5.340000 147.679347 152.439199 155.026594 154.600141 156.736937 158.600742
5.370000 148.662906 153.747498 156.109050 155.700404 157.683849 159.265632
5.400000 149.765752 155.156675 157.130089 156.799608 158.773952 160.266364
5.430000 151.386753 156.249419 158.140076 157.835250 159.832860 161.131942
5.460000 152.398285 157.242340 159.162337 158.867003 160.752089 162.392936
5.490000 154.021712 158.341985 160.207116 159.963284 161.893003 163.422430
5.520000 155.252721 159.302442 161.131279 160.950018 162.784888 164.558831
5.550000 156.414661 160.327229 162.078514 161.901066 163.736872 165.667386
5.610000 159.865689 161.916068 163.615871 163.658827 165.426449 167.570941
5.640000 160.926887 162.823346 164.527684 164.575336 166.343637 168.822739
5.670000 161.787012 163.667536 165.399143 165.463369 167.159385 170.090357
5.730000 163.684855 165.205985 167.038930 167.222590 168.944954 173.667677
5.760000 164.364609 165.962233 168.010498 168.202354 169.859030 175.425297
5.790000 165.144448 166.855964 168.955425 169.255135 170.980535 176.823392
5.820000 166.198543 167.937411 170.090651 170.480086 172.811505 178.006603
5.850000 167.123642 169.076269 171.216906 171.755017 174.578485 178.985701
5.880000 168.145919 170.643753 172.783230 173.216221 176.235477 179.994708
5.910000 169.226994 172.201877 174.619725 174.769385 177.504819 181.009320
5.940000 170.258907 173.683757 176.537346 176.394991 179.127226 182.153056
5.970000 171.494934 175.170645 178.022005 177.844871 180.519656 183.369429
6.000000 172.958728 176.597411 179.352651 179.232708 181.813466 184.218890
6.030000 174.225553 177.857247 180.819423 180.586157 183.244420 185.249588
6.060000 176.551497 179.385887 182.208202 182.006047 184.617965 186.380232
6.090000 178.011970 180.826977 183.830082 183.422395 185.764532 187.352105
6.120000 179.523155 182.972966 185.471206 185.014401 187.031699 188.522758
6.150000 180.839571 185.008416 186.933450 186.607495 188.353956 189.775098
6.180000 182.927093 186.947961 188.688704 188.428465 190.065634 191.561885
6.210000 184.736767 189.466113 191.186625 190.972958 192.722767 194.782452
6.300000 193.275468 194.971831 197.479487 197.520942 200.036180 202.581122
6.360000 196.240980 197.876577 200.125236 200.429839 203.283720 205.467014
6.390000 197.747507 199.280998 201.565213 201.853681 204.635223 206.572379
6.420000 199.074644 200.612712 203.002236 203.240058 205.905281 207.868728
6.450000 200.521315 202.205835 204.643563 204.660088 207.084197 208.764544
6.510000 202.798608 205.192184 207.596775 207.314664 209.258875 210.536837
6.540000 204.130540 206.826176 208.892616 208.635360 210.352365 211.676562
6.570000 205.247089 208.297251 210.154108 209.875572 211.471927 212.698073
6.630000 207.652161 210.534875 212.003150 211.815611 213.251034 214.378545
6.720000 211.186679 213.238801 214.684043 214.483357 215.730208 216.644970
6.750000 212.479148 214.440032 215.677864 215.540943 216.721998 217.615260
6.780000 213.700331 215.588944 216.831195 216.775396 218.007344 219.356890
6.810000 215.285634 216.873646 218.147524 218.186965 219.531465 221.223580
6.870000 222.389237 229.731428 232.228718 231.554112 233.583635 234.351785
6.900000 228.269319 232.047242 233.746432 233.230216 234.679195 235.405472
6.930000 230.665643 233.560446 234.689775 234.421197 235.492554 236.247473
6.960000 233.635296 234.865361 235.643499 235.563448 236.406606 237.133637
7.000000 235.297207 236.057927 236.788384 236.788569 237.479448 238.348655
7.030000 236.172917 236.898705 237.589510 237.609807 238.295377 239.243727
7.060000 237.040059 237.660696 238.375318 238.407627 239.141350 240.079813
7.090000 237.754259 238.430237 239.155119 239.197237 239.934425 240.888569
7.120000 238.447970 239.159131 240.004540 240.015691 240.821111 241.780938
7.150000 239.209441 240.000384 240.849039 240.856716 241.697472 242.704194
7.180000 240.048921 240.821896 241.741232 241.753432 242.679978 243.568803
7.210000 240.871389 241.774465 242.767008 242.883067 244.036939 245.298130
7.335000 243.725711 244.932776 247.084470 248.007823 251.320621 256.846799
7.460000 246.728470 248.346651 252.314845 253.182463 258.637334 262.619434
7.580000 249.190151 251.672125 258.219283 257.738747 263.384740 266.141793
7.700000 252.259821 255.283115 263.881822 262.324396 267.690786 269.933428
7.790000 254.529918 258.008966 267.565237 265.707362 270.552578 272.359444
7.820000 255.478336 259.364743 268.882757 266.839453 271.664551 273.377302
7.850000 256.623127 260.952389 270.120310 268.018226 272.689783 274.354949
7.880000 257.750387 262.356506 271.199289 269.245983 273.747391 275.553227
8.000000 263.858262 271.344369 275.085803 274.275446 277.449871 279.057606
8.075000 269.533099 275.330912 278.026993 277.560158 280.094792 281.887628
8.150000 276.097998 278.629217 280.897042 280.681564 282.758612 284.416132
8.255000 279.415542 281.484582 283.481174 283.540423 285.130803 288.780046
8.360000 282.710761 284.157825 286.093409 286.425827 287.489809 299.026761
8.390000 283.667312 285.147163 287.065851 287.396184 288.412260 300.547972
