depth(m) lower_95(kyr) lower_68(kyr) median(kyr) mean(kyr) upper_68(kyr) upper_95(kyr)
4.390000 96.007511 98.714824 101.004006 100.868504 102.996429 104.771985
4.490000 98.265168 101.433567 103.684119 103.499224 105.677937 107.579395
4.585000 100.970043 103.590512 105.931199 105.864159 108.233738 110.209460
4.680000 103.537499 105.801834 108.124492 108.159870 110.559857 112.203417
4.780000 106.234031 108.361988 110.912180 110.690341 112.812144 114.283505
4.880000 108.529823 111.437415 113.618819 113.297649 115.080395 116.467586
4.970000 111.609194 113.924247 115.726299 115.680739 117.152413 120.185562
5.060000 115.622959 116.639667 117.933081 118.286136 119.372270 126.722002
5.170000 117.901642 119.398073 121.600840 122.142737 124.613927 129.990155
5.280000 120.314137 123.150100 126.271914 126.326764 129.442600 132.629503
5.380000 129.375730 131.072736 133.239525 133.124923 134.984812 136.541893
5.480000 132.863572 134.109794 135.566913 135.521514 136.792011 138.108690
5.580000 134.786751 135.971832 137.241451 137.265377 138.468510 139.635271
5.680000 136.376097 137.533237 138.767669 138.784488 139.986484 141.214914
5.780000 137.939325 139.071055 140.245010 140.316311 141.548336 143.083793
5.880000 139.331515 140.583204 141.795234 141.928983 143.216091 145.347789
5.980000 141.025473 142.295196 143.620743 143.941645 145.473007 148.799186
6.080000 142.659999 144.030372 145.825467 146.429635 148.948558 153.100630
6.170000 143.989923 145.676841 148.206447 148.727592 152.167792 155.404433
6.270000 145.565892 147.646124 151.289584 151.340754 155.124357 157.554574
6.370000 147.543061 150.256537 154.449414 153.972682 157.277434 159.594451
6.470000 149.702663 152.934621 156.933433 156.460937 159.450513 161.693942
6.570000 152.589927 156.281771 159.293962 158.984547 161.573065 163.636654
6.670000 156.130494 159.310730 161.645237 161.517236 163.786001 165.881342
6.770000 159.535985 162.059155 164.156011 164.166720 166.280345 168.681296
6.840000 162.002265 163.801105 165.805516 165.959690 168.114568 170.729672
6.870000 162.681902 164.474095 166.643991 166.694029 168.943269 171.397470
6.955000 164.240570 166.230471 168.482498 168.523196 170.830212 173.418387
7.040000 165.972753 168.062506 170.255354 170.318591 172.575016 175.204540
7.070000 166.493609 168.708468 170.881523 171.011824 173.382170 175.857312
7.140000 167.634249 170.173675 172.500290 172.570074 175.130294 177.125156
7.170000 168.368026 170.852494 173.234567 173.279919 175.929984 177.783049
7.240000 169.954456 172.191251 174.915316 174.788547 177.421886 179.152996
7.270000 170.504690 172.890772 175.520052 175.444894 177.978861 179.740347
7.340000 172.308217 174.777843 177.003033 176.959791 179.221101 181.102087
7.370000 173.128591 175.552281 177.621905 177.634741 179.791802 181.642464
7.440000 175.235217 177.264629 179.083402 179.080258 181.082901 182.788840
7.470000 176.038049 177.937908 179.662324 179.701662 181.629433 183.330308
7.540000 177.453724 179.278565 181.136295 181.079323 182.896456 184.425936
7.570000 178.151056 179.914045 181.764994 181.702244 183.468646 184.972337
7.640000 179.543245 181.509566 183.311628 183.138949 184.726788 186.279986
7.740000 181.389125 183.641969 185.358874 185.132495 186.528686 187.738336
7.760000 181.899573 184.118048 185.776890 185.574464 186.938193 188.161089
7.840000 184.377236 186.074948 187.425360 187.269844 188.421883 189.395122
7.860000 185.006750 186.571932 187.912134 187.769621 188.924275 189.779194
7.940000 187.823373 188.939285 189.837913 189.839309 190.790685 191.710354
7.960000 188.360371 189.389734 190.294963 190.323389 191.346475 192.261076
8.040000 189.979669 190.884335 191.871585 191.916325 192.933036 194.057531
8.060000 190.364144 191.333426 192.320975 192.358559 193.492545 194.627727
8.140000 191.619011 192.650073 193.778580 193.856556 195.105444 196.346810
8.240000 193.014367 194.328162 195.687882 195.674878 196.849424 198.399137
8.340000 195.142654 196.532679 197.837794 198.004610 199.222260 202.464988
8.440000 197.400024 198.644244 199.989855 200.411556 202.139963 205.637649
8.540000 198.841116 200.268079 202.512027 203.041353 206.272557 209.127614
8.640000 200.455066 201.908251 205.232495 205.487164 209.318318 211.137125
8.740000 201.861974 203.849379 208.446568 207.917078 211.367175 212.784283
8.840000 203.555532 206.888982 211.029680 210.275567 212.901649 214.327103
8.940000 205.468264 210.197168 213.006390 212.379296 214.596514 215.764490
9.040000 207.557858 212.756931 214.791748 214.312278 216.153858 217.306651
9.140000 210.124218 214.762282 216.686712 216.224804 217.934991 219.217472
9.240000 213.682089 216.866946 218.534493 218.327780 219.969647 221.639127
9.340000 218.914017 220.024687 221.479557 221.732829 223.539662 226.018043
9.440000 221.008375 222.276711 224.175968 224.379837 226.526820 229.147217
9.540000 222.867025 224.576429 226.824032 227.031131 229.665058 231.686839
9.640000 224.988808 227.172508 230.017302 229.943681 232.644930 234.383256
9.740000 227.861781 230.658174 233.308594 232.987877 235.093639 236.315297
9.840000 232.870261 234.907979 236.110215 235.974058 236.997644 238.186077
9.940000 236.736518 237.602309 238.346785 238.359917 239.142951 239.926375
9.960000 237.330243 238.076358 238.811957 238.825632 239.590312 240.337874
10.040000 238.724282 239.504234 240.272824 240.328983 241.138880 241.971662
10.060000 239.219999 240.029501 240.872248 240.899094 241.802872 242.725950
10.160000 241.884821 243.200539 244.753311 244.944949 246.696266 248.936802
10.260000 244.131546 245.760760 247.665982 247.845485 249.913588 252.375466
10.360000 246.191623 247.844158 249.671771 250.063587 252.404687 255.270590
10.450000 248.301544 249.904082 251.833737 252.184169 254.664810 257.543087
10.550000 250.182130 252.017870 254.063059 254.309805 256.681406 259.403184
10.650000 251.870647 254.256187 256.326335 256.455685 258.742737 261.211421
10.750000 254.028124 256.024945 258.393861 258.441144 260.685285 263.471796
10.850000 255.738732 257.757732 260.323352 260.282863 262.699427 265.355977
10.950000 257.433170 259.464016 262.067748 262.136499 264.689466 267.304171
11.050000 259.001877 261.344682 264.115170 264.095486 266.768416 269.329405
11.150000 260.803143 263.360206 266.147873 266.123796 268.627560 271.504189
11.250000 263.038257 265.708870 268.372502 268.325266 270.846714 273.158449
11.350000 265.202815 268.040412 270.563581 270.507888 272.871639 275.185366
11.450000 267.622830 270.707517 273.053307 272.873183 275.111847 277.167744
11.550000 271.011174 273.322918 275.799335 275.624065 277.831590 279.148360
11.650000 275.688667 278.055246 279.770489 279.513122 280.927438 281.983294
11.750000 280.409779 282.172020 283.598291 283.554083 285.005073 286.111776
11.850000 282.990905 284.675480 286.208544 286.037534 287.297296 288.206709
11.940000 285.383134 287.088166 288.170576 288.130186 289.250898 290.273924
12.040000 288.249429 289.221756 290.226994 290.277601 291.259064 292.805148
12.140000 289.912039 290.887063 291.962137 292.063458 293.274295 294.824743
12.240000 291.452610 292.409052 293.664823 293.759963 295.076345 296.725381
12.340000 292.989587 293.989268 295.331243 295.507781 296.969163 299.231272
12.440000 294.537790 295.766685 297.236080 297.552467 299.280954 302.078935
