depth(m) lower_95(kyr) lower_68(kyr) median(kyr) mean(kyr) upper_68(kyr) upper_95(kyr)
10.890000 99.177906 101.038099 102.450006 102.345700 103.590392 104.809634
10.950000 99.812857 101.525325 102.894738 102.779867 103.995435 105.129912
11.055000 100.739185 102.372561 103.585180 103.487800 104.631146 105.681293
11.160000 101.631869 103.186736 104.248790 104.197049 105.257369 106.342196
11.250000 102.431998 103.811528 104.837216 104.819633 105.898852 106.973871
11.280000 102.695043 104.015708 105.050761 105.026458 106.115443 107.193994
11.370000 103.364731 104.567516 105.592010 105.607262 106.740451 107.629524
11.430000 103.818534 104.913869 105.946648 106.007453 107.162024 108.035528
11.530000 104.681405 105.557843 106.600720 106.690817 107.882774 108.637125
11.550000 104.822392 105.701354 106.739995 106.834414 108.076042 108.760466
11.580000 105.031242 105.941386 106.983594 107.048597 108.291346 108.956123
11.640000 105.401239 106.318370 107.467985 107.481024 108.677547 109.242764
11.730000 105.912873 106.902287 108.174899 108.095791 109.259448 109.798538
11.760000 106.110858 107.118097 108.374524 108.305797 109.448787 109.985401
11.820000 106.498774 107.581187 108.822023 108.714482 109.834117 110.340725
11.850000 106.715642 107.792712 109.022722 108.922909 110.007849 110.569634
11.880000 106.891074 108.024066 109.219787 109.123527 110.179541 110.704031
11.970000 107.484719 108.685256 109.857287 109.702542 110.682724 111.193488
12.045000 108.184870 109.204701 110.403186 110.214247 111.133968 111.665213
12.120000 108.786582 109.854422 110.927007 110.742952 111.567569 112.073793
12.150000 109.060940 110.061515 111.135395 110.956576 111.755039 112.265790
12.180000 109.297253 110.279930 111.325059 111.163109 111.946030 112.462434
12.240000 109.863414 110.760667 111.740343 111.577915 112.317813 112.793617
12.340000 110.660742 111.575998 112.400668 112.293013 112.979038 113.370831
12.400000 111.138806 112.085837 112.817840 112.750919 113.410628 113.821377
12.460000 111.596502 112.636770 113.288845 113.231750 113.856620 114.334155
12.490000 111.884129 112.891327 113.520869 113.453671 114.052618 114.570007
12.550000 112.570630 113.393792 113.968873 113.918258 114.476702 115.013605
12.670000 113.564996 114.297168 114.771804 114.758436 115.269052 115.801574
12.760000 114.410143 114.885271 115.325188 115.350397 115.818358 116.351909
12.850000 115.105861 115.437798 115.894291 115.912009 116.380797 116.969764
12.880000 115.253189 115.638206 116.054073 116.101948 116.583559 117.177111
12.910000 115.423201 115.794918 116.230362 116.273052 116.750517 117.378665
12.940000 115.544071 115.952676 116.390738 116.430206 116.920893 117.519070
13.075000 116.005732 116.449554 116.896068 116.938330 117.423710 118.105010
13.210000 116.534133 116.956869 117.425334 117.458724 117.961905 118.555174
13.346667 116.973494 117.466768 117.929681 117.957638 118.475222 119.138415
13.483333 117.481943 117.944737 118.408095 118.462084 118.975593 119.727398
13.620000 118.009271 118.437373 118.932009 118.972240 119.528565 120.215052
13.740000 118.485969 118.897163 119.372144 119.425009 119.962026 120.720556
13.770000 118.617413 119.022997 119.492479 119.560699 120.098118 120.855388
13.890000 119.012006 119.430565 119.878331 119.957931 120.517039 121.312071
13.950000 119.278125 119.672672 120.121989 120.201556 120.777963 121.529920
14.010000 119.536305 119.921023 120.350670 120.450823 121.037331 121.813962
14.040000 119.654875 120.051245 120.484969 120.585195 121.156618 121.949526
14.143333 119.974138 120.397028 120.820147 120.939769 121.582115 122.348597
14.246667 120.353352 120.718800 121.180997 121.287475 121.936689 122.749596
14.350000 120.655312 121.055876 121.529465 121.638760 122.348020 123.106728
14.470000 121.046458 121.419164 121.919613 122.020848 122.729243 123.480948
14.590000 121.373045 121.771397 122.281184 122.399322 123.218242 123.925845
14.620000 121.524761 121.902373 122.411729 122.533780 123.364571 124.073427
14.710000 121.846067 122.228281 122.740378 122.870673 123.731748 124.407881
14.800000 122.150213 122.571201 123.080815 123.208309 124.076780 124.757365
14.830000 122.296526 122.714957 123.227943 123.348080 124.218698 124.889232
14.860000 122.441201 122.872341 123.364775 123.494082 124.389127 125.045240
14.950000 122.808753 123.273857 123.730626 123.872041 124.748472 125.441964
14.980000 122.917155 123.418666 123.887300 124.019353 124.876637 125.594117
15.010000 123.081371 123.582739 124.032566 124.168881 125.023435 125.729209
15.070000 123.375143 123.890952 124.303072 124.455144 125.314221 125.999181
15.100000 123.539043 124.068663 124.460043 124.614412 125.465714 126.164867
15.130000 123.746913 124.230998 124.622327 124.776586 125.576188 126.309199
15.160000 123.935443 124.422212 124.779244 124.944359 125.748357 126.446771
15.190000 124.112786 124.606664 124.952375 125.117513 125.890553 126.576805
15.220000 124.298668 124.805426 125.122280 125.298392 126.057255 126.788401
15.250000 124.489816 124.977325 125.301167 125.477360 126.229400 126.972621
15.280000 124.678227 125.161169 125.497200 125.667204 126.397109 127.152705
15.310000 124.857402 125.341076 125.702722 125.862980 126.584654 127.344432
15.340000 125.066359 125.540026 125.896352 126.065898 126.796623 127.530927
15.370000 125.230869 125.738759 126.111950 126.275315 126.999887 127.714045
15.400000 125.426038 125.931878 126.320589 126.484457 127.214714 127.898960
15.460000 125.819360 126.270755 126.725916 126.865653 127.620267 128.250504
15.490000 126.025103 126.468645 126.944643 127.080208 127.820152 128.470851
15.550000 126.456102 126.855661 127.409101 127.526070 128.278117 129.040919
15.580000 126.680012 127.091365 127.678360 127.790317 128.547655 129.301037
15.640000 127.147021 127.671627 128.355170 128.456089 129.203535 130.397742
15.670000 127.400680 128.009585 128.719196 128.809902 129.595035 130.838167
15.700000 127.691425 128.341268 129.099267 129.185427 130.028563 131.325702
15.730000 128.010391 128.705654 129.450385 129.541515 130.401802 131.613314
15.760000 128.375479 129.049969 129.831912 129.939498 130.855831 132.075023
15.790000 128.716946 129.483764 130.290025 130.396018 131.406117 132.536554
15.850000 130.330943 131.532250 132.602078 132.519677 133.419507 134.359217
15.880000 130.795783 132.148998 133.070511 132.995051 133.896709 134.744646
15.910000 131.178797 132.558239 133.444393 133.416272 134.324761 135.071996
15.940000 131.768730 133.034733 134.075189 133.987375 134.890354 135.653597
15.970000 132.166126 133.506462 134.584088 134.456505 135.380222 136.044839
16.000000 132.610168 133.949187 135.019441 134.878153 135.807512 136.390824
16.090000 134.845196 135.602319 136.272090 136.247693 136.903616 137.581322
16.120000 135.258347 135.955901 136.585560 136.586112 137.221785 137.894097
16.150000 135.634911 136.316876 136.872871 136.889460 137.494574 138.081556
16.180000 135.999105 136.601205 137.161772 137.172281 137.760647 138.301009
16.240000 136.534587 137.121454 137.657464 137.666751 138.220257 138.750862
16.270000 136.812804 137.350288 137.903438 137.914218 138.470390 139.076061
16.300000 137.012833 137.568384 138.157292 138.151875 138.710858 139.344557
16.330000 137.277525 137.826683 138.388306 138.383583 138.934686 139.580075
16.360000 137.467154 138.030847 138.603730 138.606520 139.175486 139.794533
16.420000 137.911102 138.444253 138.994506 139.025758 139.612567 140.220436
16.450000 138.156467 138.651537 139.205943 139.242514 139.822260 140.463001
16.480000 138.378179 138.858620 139.447069 139.467401 140.038285 140.761972
16.510000 138.626590 139.081948 139.683082 139.690548 140.267360 140.950109
16.540000 138.824883 139.315206 139.904147 139.913462 140.492808 141.194760
16.570000 139.035330 139.529973 140.129509 140.135432 140.687881 141.473439
16.600000 139.272051 139.741780 140.378592 140.376269 140.952422 141.754473
16.630000 139.481680 139.983937 140.619583 140.635336 141.214772 142.023754
16.660000 139.733845 140.233675 140.907685 140.912632 141.548948 142.271209
16.740000 140.251736 140.898595 141.618063 141.716579 142.535615 143.749649
16.770000 140.518674 141.170359 141.902915 142.037285 142.912828 144.082892
16.800000 140.771684 141.508040 142.264583 142.390372 143.310496 144.512542
16.830000 141.114233 141.867345 142.678781 142.801209 143.765575 144.875426
16.860000 141.440927 142.240371 143.189051 143.246104 144.294109 145.274071
16.890000 141.822163 142.666757 143.663188 143.714319 144.773464 145.756000
16.920000 142.242040 143.127310 144.195553 144.218430 145.256566 146.455566
16.950000 142.731907 143.668087 144.756570 144.776102 145.890102 146.971829
16.980000 143.062547 144.135261 145.265765 145.271740 146.398057 147.392964
17.020000 143.738733 144.852870 146.049029 145.999040 147.138362 148.010601
17.050000 144.134949 145.418065 146.547578 146.492689 147.653402 148.501899
17.080000 144.430377 145.817782 146.970002 146.916340 148.067682 148.823221
17.110000 144.763880 146.231780 147.416930 147.324720 148.442399 149.217739
17.140000 145.060072 146.572763 147.816915 147.689387 148.806306 149.606432
17.170000 145.384637 146.879840 148.156497 148.042181 149.199461 149.958494
17.200000 145.635160 147.156972 148.505718 148.352382 149.526260 150.276618
17.230000 145.914083 147.453738 148.814811 148.657024 149.830990 150.624562
17.260000 146.278482 147.725796 149.136720 148.947470 150.089607 150.995598
17.290000 146.575774 147.947125 149.404185 149.228500 150.353545 151.372740
17.320000 146.967998 148.217256 149.676348 149.518857 150.652117 151.713434
17.350000 147.155781 148.516285 149.972988 149.814421 150.929260 151.933250
17.380000 147.404838 148.802974 150.292028 150.098597 151.287253 152.193605
17.410000 147.640929 149.067197 150.593605 150.377278 151.530266 152.535739
17.440000 147.988709 149.347834 150.857248 150.655413 151.819619 152.942616
17.470000 148.171186 149.657133 151.144044 150.926763 152.061023 153.226438
17.500000 148.400148 149.930687 151.397108 151.206766 152.333237 153.687100
17.530000 148.746766 150.282435 151.650688 151.505230 152.623069 154.022985
17.650000 150.236631 151.436024 152.738642 152.682088 153.809340 155.280247
17.680000 150.498427 151.685595 153.019553 152.972152 154.126896 155.559958
17.710000 150.857189 152.025309 153.323475 153.287451 154.478912 155.835415
17.770000 151.434670 152.744886 153.951288 153.961158 155.183978 156.465411
17.800000 151.769638 153.110802 154.254259 154.278317 155.487480 156.792927
17.830000 152.133913 153.415588 154.552758 154.599365 155.882693 157.044139
17.860000 152.422894 153.782305 154.850020 154.908809 156.171070 157.277847
17.910000 153.095511 154.327598 155.372622 155.420403 156.617960 157.721994
17.970000 153.955361 155.029231 156.064670 156.086600 157.187725 158.283970
18.000000 154.270673 155.343440 156.446878 156.412699 157.513680 158.556669
18.030000 154.660974 155.684144 156.792497 156.747248 157.783244 158.787016
18.060000 155.100088 156.062771 157.124546 157.075824 158.060975 159.122286
18.090000 155.463373 156.413125 157.436748 157.399931 158.355214 159.380863
18.120000 155.866213 156.712342 157.775773 157.735631 158.685236 159.622431
18.150000 156.137030 157.063514 158.138376 158.063091 159.026988 159.968393
18.180000 156.416572 157.376453 158.422602 158.374155 159.335064 160.193343
18.210000 156.818220 157.710519 158.744226 158.713055 159.676142 160.510906
18.240000 157.115449 158.014946 159.105435 159.051180 159.991985 160.920925
18.270000 157.444058 158.372891 159.460988 159.411572 160.355634 161.211830
18.300000 157.838878 158.787548 159.850969 159.810309 160.793645 161.489502
18.330000 158.195938 159.210157 160.256024 160.219536 161.226649 161.937763
18.360000 158.677647 159.657276 160.661692 160.661764 161.623406 162.532158
18.390000 159.064717 160.153511 161.179473 161.115154 162.057752 162.969275
18.420000 159.490653 160.651480 161.664070 161.587398 162.461133 163.361182
18.450000 160.139579 161.159384 162.155414 162.106479 162.992963 163.919639
18.480000 160.624634 161.680444 162.645584 162.601635 163.437326 164.503331
18.510000 161.119591 162.206248 163.098302 163.055654 163.876053 164.968537
18.540000 161.543375 162.626816 163.494776 163.489967 164.341660 165.377231
18.570000 161.941292 162.974605 163.907592 163.905631 164.819634 165.761565
18.600000 162.358749 163.431504 164.313549 164.326156 165.291128 166.100876
18.630000 162.782474 163.842044 164.685375 164.724625 165.698689 166.511194
18.660000 163.188680 164.188799 165.103229 165.106818 166.055523 166.837395
18.690000 163.565304 164.524197 165.489996 165.470917 166.426001 167.174554
18.720000 163.862748 164.863757 165.821067 165.814726 166.743562 167.485824
18.750000 164.235799 165.212569 166.169657 166.130941 167.053491 167.874534
18.780000 164.579593 165.482902 166.455949 166.436766 167.362727 168.262061
18.810000 164.939710 165.759558 166.723063 166.717966 167.629051 168.502070
18.930000 165.952362 166.789164 167.719471 167.822503 168.506474 172.833488
19.000000 166.546182 167.373331 168.292008 168.416089 169.052088 174.854400
19.030000 166.764167 167.651762 168.540792 168.685715 169.285270 175.085582
19.060000 167.052501 167.929056 168.796649 168.950106 169.534745 175.612216
19.090000 167.304053 168.189168 169.067640 169.229120 169.829997 176.075423
19.120000 167.544284 168.482468 169.335201 169.511210 170.085938 176.396605
19.150000 167.794423 168.780319 169.598113 169.786876 170.371645 176.628905
19.180000 168.086659 169.054651 169.889985 170.069039 170.667756 176.913560
19.210000 168.349001 169.310718 170.177433 170.362570 170.991172 177.066174
19.285000 168.993998 170.035935 171.010240 171.293176 172.230827 177.496260
19.360000 169.592069 170.787776 171.905151 172.230917 173.431658 178.198930
19.494000 171.102984 172.238919 173.837517 174.254319 176.393387 180.081194
19.628000 172.341059 173.771787 176.106620 176.285885 178.832182 181.422081
19.762000 173.774199 175.718591 178.202767 178.271351 180.929527 182.765185
19.896000 175.551289 177.888640 180.448604 180.305120 182.644066 183.832051
20.030000 178.217767 180.070501 182.547075 182.208950 184.038676 184.836809
20.060000 178.656411 180.534686 182.953411 182.577863 184.343603 185.091323
20.145000 180.290658 182.331060 184.011636 183.716989 185.000399 185.660752
20.230000 182.073671 183.974006 184.916131 184.797463 185.668536 186.292356
20.260000 182.457081 184.325533 185.248424 185.103231 185.917774 186.506024
20.290000 183.031663 184.721176 185.534123 185.397101 186.144238 186.763750
20.320000 183.468306 185.001747 185.795398 185.671664 186.385889 187.030057
20.350000 183.863025 185.276826 186.057146 185.933773 186.642197 187.273482
20.430000 184.882944 185.975018 186.655124 186.583124 187.255123 187.876266
20.530000 185.753900 186.741425 187.438650 187.401751 188.107660 188.832772
20.560000 186.061781 187.032982 187.738087 187.706394 188.439537 189.165029
20.620000 186.889141 187.661083 188.392504 188.394517 189.143742 189.884013
20.650000 187.293817 187.979101 188.747081 188.762478 189.524607 190.273171
20.710000 187.961430 188.764502 189.589896 189.566918 190.367902 191.095551
20.740000 188.311339 189.105932 189.963562 189.938632 190.750583 191.442285
20.860000 189.489142 190.389150 191.247039 191.237417 192.070170 192.918834
20.980000 190.475274 191.327823 192.231246 192.233844 193.177318 194.053466
21.100000 191.240593 192.148623 193.085222 193.116381 194.143903 194.918498
21.220000 192.115154 192.976598 193.966215 193.965407 194.958778 195.859774
21.325000 192.840177 193.803051 194.776321 194.751259 195.694160 196.585270
21.430000 193.578994 194.731190 195.575177 195.576240 196.461866 197.360129
21.460000 193.796606 194.959384 195.831309 195.827282 196.714405 197.576604
21.520000 194.267756 195.481044 196.365882 196.336832 197.197675 198.091037
21.610000 195.054372 196.229979 197.070427 197.032867 197.871978 198.733387
21.640000 195.293433 196.471913 197.314219 197.272439 198.122539 198.948818
21.730000 196.096836 197.083364 197.924379 197.914174 198.777864 199.621431
21.860000 197.170355 198.027264 198.850250 198.870722 199.768029 200.521260
21.990000 198.090492 198.935324 199.811169 199.820379 200.729015 201.574834
22.120000 199.204640 199.911149 200.774704 200.799562 201.707877 202.548847
22.150000 199.465140 200.139361 201.028419 201.052712 201.972123 202.837083
22.210000 199.927414 200.624844 201.540860 201.564997 202.458508 203.392940
22.270000 200.349175 201.166080 202.095216 202.110538 202.972889 203.964430
22.330000 200.791966 201.727699 202.678981 202.681621 203.632124 204.624076
22.360000 201.020841 202.105284 202.947483 202.984211 203.923058 204.985740
22.420000 201.611858 202.684880 203.565312 203.574381 204.469914 205.454820
22.480000 202.258700 203.200738 204.104400 204.123025 205.045633 205.975275
22.510000 202.541440 203.441825 204.385306 204.380280 205.325820 206.259117
22.570000 203.104920 203.969901 204.863888 204.874022 205.825244 206.833700
22.660000 203.735584 204.639906 205.566556 205.559508 206.506981 207.368493
22.720000 204.248655 205.112232 206.035141 206.027148 207.001553 207.796663
22.750000 204.461351 205.342775 206.259357 206.263824 207.225372 208.000341
22.780000 204.710143 205.575466 206.507614 206.506688 207.453471 208.194330
22.840000 205.111594 206.070571 206.984182 206.962873 207.905517 208.654458
22.900000 205.559150 206.508282 207.439029 207.416879 208.300777 209.140863
22.960000 205.901440 206.978011 207.893482 207.860687 208.739216 209.518089
23.010000 206.222035 207.351311 208.227543 208.211698 209.102603 209.882094
23.100000 206.781245 207.942593 208.865633 208.799963 209.684957 210.482793
23.223333 207.668475 208.675687 209.591741 209.545880 210.427804 211.199622
23.346667 208.366619 209.420542 210.321032 210.282351 211.156777 212.020423
23.470000 209.129019 210.158702 211.060543 211.026928 211.864634 212.752632
23.605000 209.901014 210.957507 211.857264 211.840819 212.741357 213.689331
23.740000 210.813401 211.802516 212.664317 212.655321 213.515936 214.463068
23.860000 211.574840 212.546108 213.381633 213.375138 214.183544 215.107944
23.980000 212.312100 213.289368 214.109127 214.090471 214.945528 215.777293
24.120000 213.283564 214.125534 214.978359 214.960622 215.752752 216.537643
24.240000 214.200681 214.950193 215.773673 215.757607 216.544429 217.316701
24.330000 214.958833 215.638481 216.409687 216.431601 217.179789 218.008695
24.390000 215.545924 216.275978 216.978002 217.004006 217.752598 218.633399
24.460000 216.484823 217.153367 217.838016 217.891921 218.696306 219.506750
24.490000 216.917665 217.545903 218.203909 218.276061 219.053217 219.929611
24.520000 217.375428 218.020811 218.698411 218.749480 219.475264 220.304295
24.550000 217.877265 218.570848 219.229155 219.264066 219.965001 220.726729
24.580000 218.379509 219.003503 219.723842 219.743445 220.492303 221.210055
24.640000 219.266202 219.862097 220.617962 220.629752 221.360277 222.156718
24.670000 219.502201 220.150311 220.941540 220.948204 221.698223 222.450206
24.700000 219.746168 220.406434 221.228135 221.236694 222.024675 222.763955
24.730000 219.993215 220.657370 221.474781 221.477341 222.280087 223.083284
24.840000 220.564347 221.294170 222.206599 222.182288 223.014358 223.833775
24.950000 221.244005 221.958985 222.856516 222.864785 223.693928 224.703476
25.060000 221.763535 222.590745 223.546565 223.543472 224.379167 225.813679
25.090000 221.985568 222.782246 223.751310 223.750808 224.573574 226.108950
25.210000 222.717647 223.498971 224.467693 224.486181 225.294420 226.972365
25.330000 223.396145 224.267639 225.186134 225.217616 225.974027 227.921689
25.360000 223.569837 224.456286 225.381552 225.423505 226.197371 228.148390
25.390000 223.819074 224.673546 225.594360 225.642849 226.388644 228.367123
25.420000 224.110023 224.912130 225.815028 225.872763 226.620286 228.612298
25.450000 224.332596 225.150408 226.044802 226.115853 226.890930 228.821662
25.480000 224.582378 225.394397 226.298917 226.385147 227.185971 229.018425
25.540000 224.995592 225.957460 226.838513 226.961265 227.943793 229.723486
