depth(m) lower_95(kyr) lower_68(kyr) median(kyr) mean(kyr) upper_68(kyr) upper_95(kyr)
2.875000 95.740990 96.660501 97.556233 97.649717 98.658528 99.866552
2.885000 96.035777 96.942165 97.827944 97.917125 98.916280 100.083617
2.895000 96.298721 97.246793 98.128616 98.190160 99.194892 100.318153
2.905000 96.571682 97.566575 98.391850 98.472150 99.454254 100.584059
2.915000 96.885993 97.887214 98.675354 98.749828 99.753164 100.830913
2.925000 97.255390 98.176065 98.944887 99.024772 100.007487 101.042862
2.935000 97.594635 98.471401 99.241382 99.301519 100.253407 101.228952
2.945000 97.859466 98.746719 99.504161 99.576715 100.521156 101.525267
2.955000 98.114822 99.039687 99.792602 99.860271 100.803025 101.699111
2.965000 98.506054 99.329098 100.061370 100.149522 101.046943 101.941604
2.975000 98.742041 99.633739 100.386711 100.449134 101.309620 102.230851
2.985000 99.131895 99.905995 100.672845 100.739725 101.604952 102.535823
2.995000 99.468819 100.208114 100.993325 101.048936 101.953270 102.753640
3.005000 99.668359 100.512767 101.351016 101.350188 102.222609 103.018666
3.015000 99.990011 100.823908 101.682671 101.666233 102.558727 103.342656
3.025000 100.298933 101.124616 101.999086 101.974778 102.825954 103.558415
3.035000 100.670345 101.420904 102.312843 102.289410 103.153876 103.804970
3.045000 100.930166 101.730634 102.617563 102.607483 103.473825 104.087220
3.055000 101.175460 102.051633 102.930007 102.918419 103.780514 104.475245
3.065000 101.457053 102.358445 103.293855 103.243482 104.088945 104.759665
3.075000 101.728696 102.745203 103.611507 103.584524 104.418324 105.080132
3.085000 102.116812 103.064917 103.945241 103.906511 104.709245 105.410372
3.095000 102.459122 103.363258 104.291914 104.229519 105.056322 105.775620
3.105000 102.769603 103.737652 104.662493 104.569175 105.386115 106.039016
3.115000 102.988995 104.036025 105.000569 104.903756 105.704156 106.457167
3.125000 103.234822 104.413997 105.335744 105.243908 106.031662 106.892013
3.135000 103.544789 104.719497 105.694748 105.582316 106.336532 107.156498
3.145000 103.820266 105.081100 106.019371 105.924423 106.664692 107.588307
3.155000 104.106367 105.421281 106.344777 106.255438 107.032183 107.949633
3.165000 104.451180 105.807823 106.649513 106.593595 107.431146 108.341575
3.175000 104.855156 106.142566 106.933710 106.935985 107.838540 108.743845
3.185000 105.260438 106.470813 107.239285 107.285453 108.210851 109.346542
3.195000 105.630453 106.783120 107.553485 107.643886 108.577361 109.772361
3.205000 106.052266 107.115336 107.898924 108.007046 108.977961 110.359109
3.215000 106.557832 107.477685 108.252110 108.384367 109.420640 110.840051
3.225000 106.867211 107.804389 108.624593 108.765169 109.822419 111.279397
3.235000 107.166699 108.168948 109.035516 109.172810 110.261798 111.751798
3.245000 107.614336 108.522274 109.491438 109.601414 110.772060 112.162839
3.255000 107.997619 108.946614 109.904177 110.040069 111.230164 112.475688
3.265000 108.514440 109.362984 110.370715 110.491976 111.710296 112.764930
3.275000 108.956410 109.813025 110.915504 110.959537 112.147735 113.067784
3.285000 109.307206 110.301829 111.410638 111.402363 112.504462 113.359214
3.295000 109.845847 110.844971 111.912020 111.850557 112.842935 113.667624
3.305000 110.297619 111.323909 112.404807 112.283572 113.161897 113.857963
3.315000 110.849800 111.818637 112.781269 112.693963 113.492881 114.118753
3.325000 111.541645 112.306627 113.181355 113.096038 113.833645 114.401937
3.335000 112.060387 112.844647 113.579176 113.519123 114.213896 114.727082
3.345000 112.578103 113.342419 113.956624 113.936681 114.568934 115.068772
3.355000 113.127363 113.781297 114.336201 114.340806 114.918074 115.417626
3.365000 113.691341 114.202286 114.713831 114.711024 115.223894 115.758693
3.375000 114.106532 114.572900 115.099524 115.094179 115.609756 116.066244
3.385000 114.510944 114.951302 115.475188 115.489745 116.030101 116.522944
3.395000 114.872786 115.312073 115.850260 115.865941 116.406915 116.992419
3.405000 115.202134 115.697008 116.253224 116.254932 116.803657 117.399109
3.415000 115.627442 116.110556 116.662406 116.670588 117.236688 117.821886
3.425000 116.038571 116.478430 117.068450 117.071417 117.641881 118.160735
3.435000 116.268529 116.810574 117.450067 117.419017 117.999151 118.508501
3.445000 116.610083 117.149719 117.812310 117.759443 118.335767 118.769619
3.455000 116.937214 117.534129 118.135203 118.093913 118.636646 119.052243
3.465000 117.310296 117.912865 118.464058 118.434917 118.966852 119.333969
3.475000 117.651578 118.274326 118.802733 118.768681 119.276959 119.629353
3.485000 118.068788 118.607848 119.123413 119.093043 119.564144 119.948446
3.495000 118.436678 118.995673 119.472681 119.439108 119.876378 120.236608
3.505000 118.751309 119.327275 119.782086 119.752915 120.176601 120.552184
3.515000 119.141153 119.657588 120.072634 120.047029 120.449261 120.792587
3.525000 119.453341 119.923334 120.338889 120.318589 120.704356 121.046443
3.535000 119.773539 120.191612 120.602555 120.578072 120.945066 121.257833
3.545000 120.045660 120.461565 120.853139 120.834663 121.205551 121.544553
3.555000 120.326332 120.731032 121.088254 121.076062 121.424748 121.775332
3.565000 120.590951 120.966890 121.317489 121.305445 121.650690 121.972232
3.575000 120.790969 121.202769 121.537178 121.524876 121.849018 122.204190
3.585000 120.995607 121.420268 121.742181 121.736474 122.057747 122.400450
3.595000 121.220477 121.635110 121.967719 121.952908 122.264779 122.655199
3.605000 121.407502 121.858720 122.179757 122.168870 122.477763 122.841787
3.615000 121.631431 122.071780 122.391104 122.374971 122.665684 123.115691
3.625000 121.871053 122.284336 122.583638 122.578289 122.857077 123.280235
3.635000 122.081247 122.490880 122.785377 122.780408 123.047990 123.488147
3.645000 122.305884 122.694054 122.980781 122.982417 123.247322 123.698236
3.655000 122.515179 122.920713 123.176980 123.185543 123.442153 123.896707
3.665000 122.700564 123.130525 123.382663 123.389462 123.636129 124.132405
3.675000 122.913915 123.334195 123.587006 123.589423 123.835083 124.359750
3.685000 123.135375 123.532420 123.773996 123.786574 124.040845 124.544530
3.695000 123.336883 123.730944 123.959652 123.981000 124.229490 124.773923
3.705000 123.522745 123.929659 124.154795 124.174852 124.424391 124.943639
3.715000 123.714330 124.114076 124.351237 124.371679 124.620731 125.163007
3.725000 123.867143 124.303529 124.542553 124.565478 124.818329 125.362361
3.735000 124.072671 124.517964 124.736377 124.765860 125.022907 125.609184
3.745000 124.342054 124.712644 124.937591 124.964861 125.207911 125.813510
3.755000 124.506047 124.907498 125.138739 125.171372 125.426142 126.042683
3.765000 124.733750 125.100777 125.346024 125.375608 125.648498 126.258909
3.775000 124.928076 125.286031 125.547825 125.587136 125.879767 126.471972
3.785000 125.143147 125.492484 125.758777 125.809894 126.124500 126.710619
3.795000 125.399530 125.709187 125.979261 126.044845 126.399185 127.001674
3.805000 125.632661 125.924729 126.212167 126.285566 126.690981 127.260936
3.815000 125.847976 126.125263 126.448908 126.524508 126.964967 127.543533
3.825000 126.071885 126.347163 126.661575 126.741957 127.196975 127.689978
3.835000 126.255383 126.551344 126.877576 126.966489 127.448108 127.965727
3.845000 126.451371 126.773314 127.106713 127.198556 127.692489 128.256831
3.855000 126.645043 126.983631 127.339165 127.432221 127.946803 128.552711
3.865000 126.907956 127.196078 127.591725 127.686756 128.220824 128.821461
3.875000 127.144021 127.446313 127.885119 127.964825 128.525707 129.180917
3.885000 127.379300 127.712222 128.204450 128.274759 128.855529 129.624401
3.895000 127.620293 128.020002 128.538180 128.612640 129.195318 129.942607
3.905000 127.960880 128.344306 128.961552 129.020004 129.686444 130.477891
3.915000 128.251397 128.733288 129.419980 129.474948 130.217911 131.138527
3.925000 128.635063 129.218845 129.935330 129.993690 130.778263 131.624881
3.935000 129.181990 129.805381 130.588700 130.606274 131.411698 132.283622
3.945000 129.647689 130.331930 131.230753 131.209728 132.058674 132.810484
3.955000 130.274579 130.929946 131.798471 131.786929 132.593833 133.315642
3.965000 130.825996 131.514413 132.330298 132.335418 133.143156 133.765347
3.975000 131.391389 132.159756 132.910621 132.898610 133.644987 134.252483
3.985000 131.911927 132.755948 133.521272 133.440517 134.105547 134.648762
3.995000 132.626672 133.365693 134.062193 134.010144 134.641389 135.112259
4.005000 133.216411 134.015085 134.589156 134.565822 135.151404 135.654374
4.015000 133.893565 134.486288 135.101573 135.068802 135.605189 136.123182
4.025000 134.309731 134.981095 135.558528 135.503194 136.000194 136.486554
4.035000 134.780778 135.399728 135.899055 135.865133 136.330055 136.786489
4.045000 135.203354 135.744234 136.196028 136.186553 136.613776 137.119330
4.055000 135.491445 136.038384 136.469739 136.464150 136.891952 137.368294
4.065000 135.901249 136.296571 136.709079 136.722973 137.140785 137.665116
4.075000 136.190764 136.563833 136.954951 136.972352 137.376158 137.904412
4.085000 136.404834 136.801730 137.185194 137.201009 137.610831 138.128951
4.095000 136.651757 137.019291 137.414738 137.428267 137.840004 138.363734
4.105000 136.867862 137.258222 137.626124 137.657081 138.058736 138.582965
4.115000 137.108884 137.496308 137.864420 137.888569 138.289134 138.822937
4.125000 137.329848 137.700424 138.081166 138.113897 138.517308 138.981001
4.135000 137.599651 137.932493 138.304513 138.343058 138.745241 139.225544
4.145000 137.828449 138.149915 138.528410 138.566336 138.991975 139.449204
4.155000 138.062004 138.371697 138.748292 138.788901 139.219020 139.709678
4.165000 138.249143 138.603197 138.977688 139.010212 139.436574 139.940461
4.175000 138.462039 138.811715 139.198579 139.227062 139.651676 140.178572
4.185000 138.710885 139.039193 139.428075 139.457826 139.893610 140.395648
4.195000 138.948149 139.264244 139.660880 139.692191 140.140323 140.632466
4.205000 139.162882 139.474083 139.898717 139.937166 140.396636 140.916159
4.215000 139.399715 139.697053 140.143048 140.183560 140.665491 141.203134
4.225000 139.621842 139.925992 140.385041 140.434028 140.941590 141.542623
4.235000 139.832650 140.165778 140.658493 140.689332 141.198183 141.769099
4.245000 140.068904 140.424238 140.923186 140.949005 141.458425 142.101210
4.255000 140.302232 140.651104 141.198121 141.221462 141.767869 142.399297
4.265000 140.501059 140.925683 141.488070 141.507057 142.054042 142.677713
4.275000 140.768667 141.196752 141.791303 141.800673 142.354716 143.109587
4.285000 141.044077 141.450061 142.072273 142.091927 142.674527 143.412931
4.295000 141.255528 141.713189 142.347179 142.366475 142.984598 143.719279
4.305000 141.486296 141.966612 142.590457 142.634314 143.293651 144.023753
4.315000 141.748570 142.244713 142.850412 142.909904 143.582432 144.381560
4.325000 141.993325 142.499529 143.106489 143.189803 143.881731 144.705410
4.335000 142.219915 142.788013 143.368400 143.468554 144.245836 145.023821
4.345000 142.469037 143.085543 143.618889 143.752787 144.581089 145.326502
4.355000 142.723407 143.334796 143.877311 144.026633 144.936437 145.637038
4.365000 142.979635 143.589131 144.099292 144.293055 145.203136 145.944871
4.375000 143.269375 143.856854 144.356479 144.571006 145.497304 146.225451
4.385000 143.546494 144.089769 144.604479 144.835448 145.775648 146.578484
4.395000 143.844268 144.340681 144.855351 145.093686 146.069181 146.854238
4.405000 144.152194 144.593133 145.146424 145.360513 146.374030 147.176622
4.415000 144.384574 144.831040 145.395229 145.632278 146.649462 147.427245
4.425000 144.646223 145.068375 145.682428 145.909586 146.922723 147.739726
4.435000 144.875978 145.305046 145.963152 146.187768 147.227492 148.068624
4.445000 145.163758 145.566925 146.276831 146.496754 147.569025 148.430355
4.455000 145.398373 145.861232 146.578221 146.802261 147.885506 148.816371
4.465000 145.642971 146.095101 146.914776 147.103971 148.182363 149.253257
4.475000 145.889451 146.347558 147.258191 147.420564 148.494450 149.700672
4.485000 146.138284 146.614633 147.584765 147.746170 148.849564 150.148815
4.495000 146.414162 146.910135 147.960929 148.079481 149.166875 150.580728
4.505000 146.651454 147.231711 148.329817 148.413160 149.530361 151.032623
4.515000 146.862642 147.547786 148.688968 148.776321 149.872911 151.568213
4.525000 147.171142 147.889143 149.079759 149.135882 150.254603 151.877959
4.535000 147.500749 148.235013 149.467595 149.509871 150.676838 152.210555
4.545000 147.776445 148.622555 149.778347 149.878823 151.122563 152.786070
4.555000 148.097601 148.971320 150.196182 150.256593 151.516586 153.076796
4.565000 148.414444 149.326825 150.563211 150.632109 151.959943 153.365147
4.575000 148.701564 149.709917 150.887528 151.018232 152.445386 153.859179
4.585000 148.948962 150.139193 151.263278 151.380593 152.777331 154.203236
4.595000 149.325355 150.524540 151.637994 151.741966 153.113268 154.508868
4.605000 149.613179 150.943952 151.990602 152.119760 153.441597 154.693243
4.615000 150.041522 151.321285 152.349423 152.476065 153.787620 154.991609
4.625000 150.441170 151.695033 152.718277 152.837707 154.112909 155.247605
4.635000 150.928739 152.086191 153.086743 153.191838 154.406416 155.596133
4.645000 151.377985 152.452982 153.481454 153.545736 154.675122 155.870595
4.655000 151.914113 152.783394 153.920036 153.906216 155.033999 156.148329
4.665000 152.261691 153.184161 154.265047 154.257408 155.341370 156.430199
4.675000 152.622201 153.534823 154.660945 154.620380 155.685852 156.662249
4.685000 152.976225 153.926493 154.995465 154.970074 156.007352 157.024983
4.695000 153.385169 154.317185 155.334109 155.323829 156.295421 157.232408
4.705000 153.884970 154.680900 155.681073 155.655407 156.616755 157.511019
4.715000 154.268663 155.084348 155.984878 155.982959 156.910528 157.724967
4.725000 154.663772 155.447598 156.253467 156.292291 157.213957 157.974184
4.735000 155.048346 155.780049 156.559809 156.605254 157.538746 158.223685
4.745000 155.388159 156.110738 156.832700 156.901645 157.789816 158.454282
4.755000 155.718608 156.453220 157.143615 157.196642 158.067561 158.704138
4.765000 155.952246 156.750996 157.455027 157.486849 158.343274 158.959403
4.775000 156.260726 157.033650 157.760355 157.779916 158.608507 159.241090
4.785000 156.586250 157.335144 158.047819 158.074588 158.905658 159.570039
4.795000 156.867843 157.597673 158.323386 158.362636 159.185175 159.886676
4.805000 157.200033 157.901570 158.615477 158.677502 159.487241 160.218904
4.815000 157.531093 158.194942 158.943429 159.000657 159.848601 160.529960
4.825000 157.930028 158.553483 159.291264 159.339846 160.179385 160.965275
4.835000 158.244593 158.896681 159.671369 159.693691 160.529312 161.321181
4.845000 158.574805 159.252036 160.065733 160.065384 160.882406 161.722816
4.855000 158.972949 159.605972 160.420028 160.429717 161.247347 162.024321
4.865000 159.255346 159.993726 160.789875 160.806382 161.684986 162.388997
4.875000 159.592324 160.391378 161.162165 161.186299 162.044235 162.810967
4.885000 159.940997 160.743332 161.541353 161.560259 162.390073 163.323516
4.895000 160.331652 161.096800 161.924763 161.946178 162.755998 163.664099
4.905000 160.700429 161.444290 162.288526 162.293611 163.132702 163.965099
4.915000 161.196526 161.806141 162.660775 162.649660 163.491195 164.236617
4.925000 161.515889 162.162465 162.957240 162.971151 163.816684 164.495979
4.935000 161.843042 162.453575 163.282038 163.284730 164.137149 164.737130
4.945000 162.096230 162.768323 163.622403 163.592040 164.461397 164.946388
4.955000 162.336665 163.052642 163.942239 163.886557 164.739243 165.164822
4.965000 162.670042 163.337892 164.206616 164.182697 165.054085 165.426256
4.975000 163.043317 163.710917 164.504719 164.488388 165.338799 165.697479
4.985000 163.298614 164.032334 164.799706 164.778304 165.586624 165.941857
4.995000 163.603547 164.310563 165.085669 165.058507 165.828570 166.191423
5.005000 163.868842 164.641299 165.374499 165.345753 166.082055 166.444247
5.015000 164.107838 164.928717 165.650022 165.611310 166.311007 166.705289
5.025000 164.411790 165.250171 165.933178 165.887794 166.574124 166.940576
5.035000 164.620896 165.538394 166.218316 166.163871 166.811319 167.226592
5.045000 164.842786 165.818296 166.502482 166.421770 167.027377 167.471711
5.055000 165.124763 166.093667 166.768346 166.685965 167.282263 167.735168
5.065000 165.355166 166.361053 167.035443 166.944036 167.527438 167.958716
5.075000 165.697422 166.643790 167.311282 167.217085 167.786626 168.202901
5.085000 166.066049 166.938320 167.582803 167.491760 168.032010 168.449137
5.095000 166.289764 167.218876 167.853879 167.764545 168.295511 168.719162
5.105000 166.582520 167.497783 168.111747 168.037328 168.565507 168.963916
5.115000 167.033811 167.797743 168.359124 168.307814 168.826483 169.198149
5.125000 167.396607 168.094501 168.638186 168.582318 169.089836 169.491226
5.135000 167.601235 168.339102 168.889745 168.841931 169.328363 169.772174
5.145000 167.923943 168.628045 169.157099 169.117088 169.627302 170.031048
5.155000 168.281781 168.940596 169.440721 169.403612 169.874024 170.348165
5.165000 168.593199 169.232117 169.711516 169.691988 170.154840 170.618388
5.175000 168.935278 169.507069 170.005268 169.979259 170.418891 170.920460
5.185000 169.266633 169.819423 170.286836 170.287927 170.752233 171.338180
5.195000 169.538284 170.121635 170.603060 170.607959 171.085343 171.769134
5.205000 169.850373 170.442579 170.909364 170.946926 171.468472 172.165924
5.215000 170.202277 170.751585 171.236874 171.294971 171.868866 172.659905
5.225000 170.508443 171.060462 171.554591 171.650359 172.297411 173.041658
5.235000 170.893660 171.373394 171.907447 172.013699 172.737805 173.542131
5.245000 171.252050 171.687380 172.255852 172.369735 173.138674 173.921240
5.255000 171.491481 171.961202 172.653827 172.730386 173.525108 174.310003
5.265000 171.781198 172.246985 173.066198 173.080029 173.919542 174.663844
5.275000 172.060234 172.514530 173.432128 173.420104 174.277472 175.006293
5.285000 172.324973 172.835811 173.772044 173.765220 174.659697 175.442051
5.295000 172.578092 173.154030 174.174106 174.127865 175.027925 175.764491
5.305000 172.894885 173.518337 174.556713 174.497223 175.344926 176.110365
5.315000 173.155369 173.899852 174.938901 174.857664 175.695606 176.400103
5.325000 173.483749 174.308171 175.285324 175.214672 176.027302 176.767936
5.335000 173.758010 174.689412 175.642991 175.573379 176.347100 177.116595
5.345000 174.084610 175.119991 176.017846 175.951798 176.690898 177.535193
5.355000 174.470570 175.555721 176.361067 176.312448 177.034021 177.927959
5.365000 174.815581 175.962067 176.688107 176.667916 177.371153 178.285748
5.375000 175.098072 176.297415 177.008942 177.000549 177.723166 178.639787
5.385000 175.526525 176.599373 177.330803 177.326079 178.076600 178.982153
5.395000 175.842020 176.908380 177.627513 177.645806 178.404217 179.278587
5.405000 176.366919 177.272011 177.906856 177.958030 178.731680 179.736727
5.415000 176.746177 177.569644 178.217541 178.275222 179.032681 180.001230
5.425000 177.034842 177.883555 178.500222 178.564036 179.331177 180.275802
5.435000 177.384317 178.158308 178.775340 178.860765 179.642131 180.565550
5.445000 177.749921 178.423275 179.072217 179.155596 179.955942 180.863415
5.455000 178.108090 178.692463 179.352247 179.452310 180.260427 181.153483
5.465000 178.422857 179.005529 179.613171 179.747302 180.540997 181.530512
5.475000 178.744961 179.271363 179.911310 180.054845 180.875624 181.997719
5.485000 179.036827 179.552379 180.239601 180.368115 181.219340 182.391223
5.495000 179.317290 179.849850 180.580092 180.694568 181.530999 182.723628
5.505000 179.588860 180.191915 180.911524 181.018216 181.904894 183.095701
5.515000 179.857000 180.491431 181.260158 181.356785 182.313852 183.451852
5.525000 180.128507 180.769713 181.628893 181.694440 182.663778 183.813470
