depth(m) lower_95(kyr) lower_68(kyr) median(kyr) mean(kyr) upper_68(kyr) upper_95(kyr)
3.020000 98.970925 101.630994 103.602347 103.440028 105.240388 107.005428
3.070000 101.046640 102.958424 104.689605 104.617961 106.264286 108.064880
3.120000 102.877677 104.539140 105.917662 105.951489 107.454804 109.139373
3.150000 103.643407 105.268364 106.543318 106.624115 108.083715 109.725525
3.200000 104.824466 106.169121 107.619498 107.642677 109.066206 110.819645
3.250000 105.667018 107.102167 108.561795 108.578479 110.049044 111.635506
3.300000 106.668398 108.088498 109.522322 109.552314 111.049888 112.504616
3.350000 107.911321 109.337249 110.667602 110.642797 112.004469 113.135281
3.400000 109.046321 110.600106 111.901728 111.809125 113.065900 114.068211
3.450000 110.343042 111.821296 113.041169 113.006669 114.147451 115.135791
3.500000 112.088487 113.383488 114.422317 114.453390 115.570240 116.974928
3.550000 113.953016 115.043203 116.200405 116.355472 117.768430 119.106953
3.600000 116.288071 117.659758 119.074404 118.951417 120.145945 121.165636
3.650000 118.534965 119.736319 120.703465 120.668471 121.572474 122.595735
3.670000 119.060452 120.313549 121.141524 121.159873 122.080641 122.966313
3.720000 120.377489 121.295440 122.170224 122.158854 123.091683 123.901779
3.770000 121.264074 122.206047 123.108401 123.089527 124.020140 124.789106
3.820000 122.265285 123.071347 124.036974 123.994929 124.855739 125.593087
3.870000 123.235778 124.137581 124.973535 124.928569 125.741375 126.462714
3.920000 124.287548 125.178111 125.937172 125.915989 126.644426 127.297198
3.970000 125.281699 126.124327 126.806115 126.808732 127.513181 128.282077
4.000000 126.030800 126.691903 127.363390 127.391703 128.079184 128.869222
4.010000 126.188716 126.906808 127.573526 127.597775 128.276883 129.075861
4.070000 127.243344 127.924445 128.576089 128.663315 129.488068 130.258949
4.100000 127.672014 128.352103 129.097672 129.166100 130.039435 130.790064
4.110000 127.823799 128.507505 129.266501 129.337909 130.226474 130.942674
4.160000 128.635324 129.267479 130.094298 130.134464 131.058862 131.671458
4.170000 128.831957 129.425912 130.292417 130.316135 131.245392 131.854039
4.220000 129.529371 130.291509 131.162151 131.150236 132.016285 132.588888
4.270000 130.332347 131.226011 132.065357 132.000062 132.774329 133.273496
4.320000 131.273669 132.148565 132.962781 132.897578 133.633157 134.066195
4.330000 131.455394 132.349496 133.135421 133.088908 133.810663 134.268217
4.370000 132.253210 133.044730 133.789784 133.720488 134.379800 134.831755
4.420000 133.028652 133.797568 134.469686 134.419385 135.023508 135.526747
4.470000 133.862350 134.514056 135.157669 135.106426 135.683525 136.169157
4.480000 134.097886 134.668283 135.311836 135.269206 135.843430 136.325742
4.520000 134.622236 135.264038 135.899530 135.872215 136.465456 137.019227
4.570000 135.379903 135.965177 136.629254 136.628221 137.264447 138.060574
4.620000 136.020147 136.674767 137.354355 137.387431 138.078081 138.951233
4.670000 136.701140 137.389502 138.123661 138.174254 138.936450 139.977829
4.720000 137.388735 138.132625 138.911322 138.974512 139.796397 140.997415
4.770000 138.148901 138.886574 139.693956 139.819072 140.707628 142.295334
4.820000 138.828467 139.635235 140.526147 140.732992 141.731635 144.145902
4.870000 139.626711 140.449076 141.422495 141.730785 142.959004 145.554352
4.920000 140.368674 141.224579 142.410120 142.910902 144.699100 148.274475
5.020000 141.731251 142.883177 145.007886 146.757832 152.466105 155.894889
5.070000 142.503033 143.778563 146.812304 148.348158 154.538527 157.496236
5.120000 143.332903 144.748052 149.080482 150.026829 156.048890 158.554418
5.170000 144.309033 145.844054 151.947647 151.703177 157.377737 159.602032
5.220000 145.287663 147.330108 154.300877 153.454481 158.706928 160.940253
5.270000 146.519426 149.019414 156.347096 155.234857 160.018830 162.403792
5.380000 149.933269 157.579098 161.044020 160.415869 163.788549 166.171976
5.410000 150.987681 158.884894 162.090409 161.491770 164.915004 167.445937
5.430000 151.572938 159.458439 162.751947 162.140944 165.486569 168.038653
5.470000 152.840793 160.733353 163.746396 163.339808 166.663313 169.107493
5.530000 156.937563 162.680851 165.464902 165.345435 168.663639 170.793391
5.570000 158.748721 163.942149 166.837465 166.727161 169.944124 172.764198
5.580000 159.192647 164.271099 167.174878 167.068647 170.263387 173.083797
5.680000 165.010813 168.229757 170.986101 171.051397 173.660604 178.405828
5.780000 169.032909 172.466615 174.590482 174.961584 177.626167 182.200874
5.830000 171.011988 174.422081 176.595292 176.966533 179.990527 183.466305
5.880000 172.706918 176.282416 178.743844 178.928105 182.248991 184.912946
5.980000 176.858032 179.676288 182.548927 182.438236 185.255939 187.034972
6.030000 179.006379 181.507443 184.597531 184.269621 186.777324 188.420836
6.080000 180.912445 184.266409 186.492837 186.224741 188.195409 189.750563
6.170000 186.179785 188.489030 189.864070 189.878254 191.417295 193.049323
6.220000 189.244754 190.485848 191.954923 192.132327 193.771609 196.109838
6.270000 191.669634 193.099163 195.017170 195.276751 197.600764 199.856992
6.320000 193.158312 195.151982 197.795418 197.619220 199.899032 201.876637
6.370000 194.383000 196.822922 200.422841 199.894635 202.345884 203.956912
6.400000 195.031705 197.660776 201.669256 200.999050 203.606739 205.080031
6.420000 195.441010 198.220390 202.335569 201.632872 204.251603 205.777856
6.470000 196.571431 199.794234 203.871010 203.122434 205.625930 207.246821
6.520000 197.685573 201.936666 205.259810 204.561320 206.937170 208.488175
6.550000 198.585693 202.820299 206.067177 205.428958 207.951629 209.432727
6.600000 200.053983 204.258551 207.373619 206.825086 209.357145 210.890728
6.610000 200.441749 204.636251 207.647682 207.121712 209.646381 211.108572
6.620000 200.679449 204.999683 207.939537 207.415823 209.902866 211.353184
6.670000 202.698475 206.728818 209.215471 208.823602 210.941469 212.509164
6.720000 204.204596 208.566363 210.765821 210.367436 212.317757 213.721336
6.770000 205.657411 210.057341 212.191204 211.818254 213.671764 214.973758
6.820000 207.601049 211.358440 213.420250 213.112899 214.871843 216.106329
6.870000 209.632768 212.932718 214.711371 214.409582 216.053472 217.090292
6.920000 211.678341 214.546899 216.014339 215.756530 217.082769 218.150340
6.970000 214.081119 216.109526 217.287343 217.174943 218.331872 219.458575
7.020000 216.243164 217.616226 218.567429 218.595010 219.679164 220.740295
7.070000 218.252074 219.184262 220.170510 220.240046 221.309329 222.587175
7.120000 219.675900 220.536291 221.753240 221.833077 223.093983 224.473585
7.170000 220.870601 221.903191 223.207210 223.245139 224.540231 225.914450
7.220000 221.967906 223.161665 224.518599 224.516725 225.834103 227.172847
7.270000 223.112509 224.296910 225.824407 225.752144 227.090825 228.459606
7.320000 224.241699 225.556916 227.037201 226.976544 228.326148 229.694666
7.370000 225.544914 226.825651 228.222069 228.212796 229.623238 230.663161
7.420000 226.785027 228.114515 229.408886 229.428955 230.768417 231.888739
7.470000 228.105794 229.492977 230.818987 230.793538 232.158590 233.163603
7.520000 229.697369 231.234875 232.627022 232.523606 233.811778 234.947598
7.570000 232.470541 234.061749 235.354611 235.234108 236.418867 237.518335
7.620000 234.611989 236.268609 237.359174 237.278146 238.364967 239.432733
7.670000 236.275280 237.603773 238.718573 238.667194 239.689267 240.660432
7.720000 237.465296 238.785739 239.922678 239.863279 240.962490 241.890113
7.770000 238.751549 239.994852 241.199067 241.101452 242.165427 243.067944
7.820000 240.540892 241.606391 242.682713 242.633793 243.608218 244.625647
7.850000 241.947659 242.805322 243.908968 243.989985 245.076655 246.430070
7.870000 242.614661 243.588953 244.646058 244.741486 245.867706 247.251936
7.920000 244.040892 245.238203 246.464564 246.761922 248.108981 252.570478
7.950000 244.807119 246.154387 247.515926 247.861700 249.371179 253.952858
7.970000 245.420990 246.760908 248.243764 248.598536 250.206743 254.908981
8.050000 246.902723 248.825433 251.360994 251.994427 255.488993 260.151450
8.060000 247.109017 249.132036 251.782777 252.385464 255.899196 260.500367
8.110000 248.368914 250.410544 253.952166 254.269528 258.515105 262.176830
8.120000 248.666588 250.755679 254.321842 254.613282 258.778913 262.493959
8.170000 250.324843 252.301293 255.811319 256.283470 260.800664 263.993745
8.220000 251.970172 253.849517 257.484880 257.994409 262.513968 265.583583
8.270000 253.405885 255.544957 259.425970 259.766014 264.295306 266.976696
8.300000 254.216601 256.672288 260.445797 260.849920 265.387706 267.986643
8.310000 254.536722 256.974494 260.747659 261.185355 265.700303 268.297638
8.420000 257.006398 260.616812 264.359439 264.657299 269.527213 271.379962
8.470000 258.342872 261.897743 265.997643 266.235326 271.282602 273.058574
8.520000 259.837324 263.221190 267.677662 267.810241 272.716087 274.432558
8.570000 261.202755 264.982785 269.462521 269.421613 274.136986 275.678871
8.620000 262.968448 266.711170 271.766765 271.168223 275.397247 276.794705
8.660000 264.795618 268.305572 273.280340 272.582784 276.379865 277.756048
8.670000 265.182055 268.668864 273.622796 272.945644 276.648781 278.053106
8.710000 267.225153 270.646829 275.023403 274.487121 277.882177 279.250719
8.750000 269.848446 272.746591 276.845210 276.180264 279.036754 280.462694
8.810000 274.587214 277.033948 280.012637 279.904107 282.098830 286.580094
8.820000 275.124040 277.501688 280.895893 280.607198 283.024854 287.182660
8.870000 276.846740 279.866017 286.101943 285.178948 288.162443 290.854323
8.900000 277.788393 280.828619 290.112579 288.858803 292.903930 295.629517
8.920000 278.649698 281.612220 291.344152 290.065112 294.278994 297.211773
8.980000 282.142160 289.154906 294.688273 293.932749 298.633245 301.524732
9.020000 286.613555 291.305963 296.800346 296.155632 300.548561 303.687770
9.070000 289.916553 293.745413 299.167211 298.675376 303.252846 306.410138
