depth(m) lower_95(kyr) lower_68(kyr) median(kyr) mean(kyr) upper_68(kyr) upper_95(kyr)
16.920000 196.778989 197.809763 198.558117 198.602642 199.497370 200.339678
16.940000 197.351330 198.200935 198.906144 198.949324 199.789383 200.596693
16.960000 197.815554 198.548460 199.254398 199.304697 200.084591 200.837174
16.980000 198.135982 198.911882 199.640646 199.654827 200.387340 201.109594
17.000000 198.595148 199.277616 199.969675 199.998933 200.749304 201.366099
17.020000 199.007383 199.677965 200.320827 200.336734 201.040496 201.630423
17.040000 199.383310 200.007804 200.670737 200.668098 201.309630 201.957333
17.060000 199.726949 200.341980 200.996514 200.984958 201.617183 202.233475
17.080000 200.022687 200.672731 201.334443 201.316249 201.949025 202.520314
17.100000 200.414061 200.975564 201.688741 201.650807 202.302052 202.938604
17.120000 200.677869 201.280997 202.012902 201.989940 202.634593 203.332491
17.140000 201.020641 201.655522 202.333176 202.322704 202.942394 203.679039
17.160000 201.339887 202.013166 202.680083 202.666952 203.309795 204.051320
17.180000 201.650361 202.391207 203.012348 203.015677 203.644304 204.365278
17.200000 202.060208 202.776083 203.365152 203.378110 204.004403 204.712856
17.220000 202.493925 203.115119 203.669812 203.703674 204.323404 205.038301
17.240000 202.777160 203.409067 203.985902 204.013346 204.618898 205.362454
17.260000 203.030800 203.696823 204.273432 204.304814 204.922853 205.621549
17.280000 203.316394 203.952484 204.563641 204.589646 205.228670 205.905286
17.300000 203.605493 204.206650 204.849254 204.862239 205.509616 206.248308
17.320000 203.884782 204.449456 205.117594 205.136958 205.815079 206.485182
17.340000 204.135052 204.752826 205.410158 205.413615 206.104407 206.778920
17.360000 204.375861 205.012598 205.678451 205.680231 206.370425 207.001322
17.380000 204.689926 205.297397 205.979808 205.963632 206.641166 207.292440
17.400000 204.893429 205.535072 206.255168 206.237092 206.921118 207.543295
17.420000 205.152977 205.811932 206.530556 206.516027 207.189629 207.727549
17.440000 205.368653 206.086453 206.846791 206.795544 207.446000 207.993273
17.460000 205.628562 206.352062 207.152034 207.075066 207.703413 208.241778
17.480000 205.883517 206.692565 207.415518 207.337636 207.944832 208.463323
17.500000 206.141086 206.967873 207.687927 207.597328 208.178651 208.657605
17.520000 206.373441 207.233588 207.950164 207.848185 208.409859 208.929647
17.540000 206.614727 207.500283 208.189792 208.096507 208.650632 209.106427
17.560000 206.913013 207.757450 208.436142 208.352251 208.878938 209.346920
17.580000 207.187293 208.029168 208.691132 208.603133 209.106009 209.621527
17.600000 207.507726 208.314911 208.936363 208.851341 209.343749 209.818039
17.620000 207.774718 208.565190 209.177395 209.088579 209.565356 210.027611
17.640000 208.013745 208.841772 209.389881 209.329859 209.782142 210.222295
17.660000 208.315709 209.136412 209.627863 209.574776 210.004063 210.455427
17.680000 208.553127 209.379297 209.871503 209.812881 210.236370 210.694186
17.700000 208.916041 209.655432 210.084827 210.051333 210.462270 210.958407
17.720000 209.205128 209.880530 210.312111 210.288972 210.676162 211.213115
17.740000 209.484829 210.142190 210.533352 210.522974 210.917165 211.469710
17.760000 209.736564 210.371305 210.750897 210.750127 211.117080 211.775876
17.780000 209.976503 210.588813 210.963314 210.977793 211.345403 212.000396
17.800000 210.257588 210.820242 211.173640 211.200908 211.591986 212.292295
17.820000 210.543976 211.053815 211.391097 211.416802 211.795303 212.525932
17.840000 210.810473 211.273812 211.609692 211.636513 212.009850 212.759717
17.860000 211.034222 211.484068 211.834203 211.860686 212.222222 213.014275
17.880000 211.199305 211.716295 212.039768 212.083662 212.453508 213.241265
17.900000 211.463619 211.916907 212.243308 212.300384 212.665987 213.489148
17.920000 211.692316 212.113371 212.462021 212.517578 212.920004 213.707435
17.940000 211.909392 212.324636 212.677375 212.738094 213.162053 213.907886
17.960000 212.155262 212.533838 212.907355 212.961677 213.389502 214.172374
17.980000 212.346654 212.757909 213.123457 213.181864 213.620760 214.398869
18.000000 212.601499 212.960398 213.344546 213.403205 213.844577 214.564410
18.020000 212.846218 213.179707 213.563122 213.624021 214.077502 214.790074
18.040000 213.037632 213.384895 213.784161 213.843171 214.308892 214.960234
18.060000 213.270702 213.593823 214.016803 214.059863 214.513967 215.150079
18.080000 213.486270 213.804490 214.244536 214.283347 214.755416 215.365936
18.100000 213.692335 214.033214 214.470684 214.504835 214.984981 215.618058
18.120000 213.907728 214.264903 214.694033 214.730615 215.211592 215.843656
18.140000 214.141053 214.482586 214.923187 214.958542 215.435255 216.074232
18.160000 214.335751 214.704830 215.138596 215.189736 215.685841 216.333594
18.180000 214.538331 214.941555 215.393845 215.431583 215.936145 216.565488
18.200000 214.764889 215.171310 215.633334 215.675903 216.196928 216.818880
18.220000 215.020293 215.424761 215.890945 215.935557 216.468158 217.099233
18.240000 215.276551 215.668802 216.166950 216.209354 216.760358 217.435425
18.260000 215.520745 215.935250 216.457294 216.498814 217.053662 217.678711
18.280000 215.787035 216.243679 216.791355 216.826418 217.413826 218.033558
18.300000 216.065813 216.532856 217.163417 217.187148 217.833984 218.493886
18.320000 216.374700 216.942725 217.578715 217.609874 218.270449 219.098042
18.340000 216.759072 217.351446 218.072512 218.110697 218.858312 219.691916
18.360000 217.293358 217.912034 218.719822 218.751168 219.572083 220.501301
18.380000 217.952097 218.616464 219.578789 219.590027 220.562663 221.677510
18.400000 218.815980 219.667891 220.650375 220.717249 221.857818 222.799712
18.420000 219.519706 220.639566 221.720985 221.789601 222.939297 224.279487
18.440000 220.392508 221.446045 222.707271 222.793232 224.139648 225.659527
18.460000 221.106725 222.444940 223.828523 223.824781 225.263830 226.711960
18.480000 222.100264 223.399543 224.847130 224.820777 226.271734 227.558096
18.500000 223.204550 224.473866 225.956879 225.852222 227.165936 228.459780
18.520000 224.162835 225.419340 226.859089 226.798883 228.052268 229.257164
18.540000 225.251667 226.520000 227.799794 227.749794 228.960908 230.180985
18.560000 226.113514 227.547916 228.740115 228.666194 229.774569 230.878797
18.580000 227.267326 228.433108 229.575658 229.523835 230.619786 231.749761
18.600000 228.171168 229.307489 230.373341 230.361686 231.426999 232.409119
18.620000 229.004724 230.048989 231.146843 231.093263 232.139747 232.960053
18.640000 229.694596 230.725582 231.885845 231.766810 232.723259 233.482268
18.660000 230.425527 231.507630 232.522154 232.413351 233.265975 233.856823
18.680000 231.277347 232.262109 233.080612 232.989410 233.713761 234.200827
18.700000 231.813738 232.829801 233.508523 233.450741 234.079955 234.542947
18.720000 232.587733 233.319574 233.878015 233.842073 234.390993 234.809875
18.740000 232.997005 233.707001 234.224406 234.187773 234.686296 235.108918
18.760000 233.513855 234.055272 234.525046 234.505610 234.971774 235.414969
18.780000 233.861950 234.365192 234.785970 234.791997 235.230901 235.682341
18.800000 234.254451 234.657070 235.036672 235.065327 235.514565 235.955837
18.820000 234.552390 234.927188 235.313248 235.335607 235.767965 236.227953
18.840000 234.806853 235.169608 235.580927 235.591377 236.010377 236.495668
18.860000 235.047073 235.387469 235.823057 235.838058 236.289494 236.726423
18.880000 235.281841 235.636912 236.067009 236.073744 236.509368 236.967722
18.900000 235.515191 235.869530 236.284080 236.304150 236.759281 237.212748
18.920000 235.735984 236.076406 236.518855 236.534467 236.989431 237.411697
18.940000 235.958781 236.291666 236.748899 236.769723 237.224186 237.674268
18.960000 236.198440 236.517177 236.986556 237.000737 237.459330 237.918279
18.980000 236.420730 236.726046 237.204041 237.232856 237.690197 238.213361
19.000000 236.605860 236.958437 237.446910 237.455910 237.931745 238.455581
19.020000 236.804592 237.188195 237.676653 237.691051 238.168586 238.734117
19.040000 237.031327 237.436271 237.898651 237.929083 238.412950 239.026051
19.060000 237.246883 237.647594 238.142284 238.160333 238.653968 239.287252
19.080000 237.443064 237.858336 238.375565 238.398597 238.910430 239.559554
19.100000 237.694568 238.091316 238.626442 238.652070 239.192465 239.867752
19.120000 237.894191 238.310030 238.853055 238.895411 239.477844 240.137179
19.140000 238.098681 238.561657 239.129387 239.151879 239.730056 240.415115
19.160000 238.349080 238.812851 239.393871 239.420698 240.000672 240.732449
19.180000 238.562644 239.090807 239.654451 239.688093 240.307551 241.016118
19.200000 238.796238 239.354714 239.932560 239.973713 240.623303 241.270247
19.220000 239.048523 239.629076 240.251148 240.267734 240.911015 241.536169
19.240000 239.331971 239.917299 240.553142 240.576235 241.218151 241.921589
19.260000 239.617406 240.244636 240.879536 240.914648 241.581400 242.297175
19.280000 239.999314 240.619185 241.267781 241.296617 241.972266 242.710593
19.300000 240.330330 241.018877 241.684565 241.712146 242.429314 243.187056
19.320000 240.713079 241.427016 242.092970 242.130719 242.856301 243.625781
19.340000 241.224938 241.869657 242.603988 242.600369 243.322995 244.048561
19.360000 241.617909 242.332295 243.067677 243.074700 243.819603 244.650986
19.400000 242.448865 243.150635 243.963024 243.992831 244.822857 245.748194
19.420000 242.805045 243.515252 244.376091 244.398454 245.272161 246.224609
19.440000 243.317483 244.049866 244.912651 244.946488 245.786633 246.977262
19.460000 243.897561 244.770291 245.677927 245.705352 246.626026 247.789659
19.480000 244.505166 245.455060 246.456649 246.468729 247.516892 248.538359
19.520000 246.421548 247.559462 248.626644 248.576958 249.615157 250.339103
19.540000 247.084870 248.193595 249.185783 249.147102 250.069025 250.908777
19.560000 247.736299 248.687027 249.682042 249.616565 250.500885 251.243810
19.580000 248.219761 249.110479 250.101009 250.030999 250.849803 251.576171
19.600000 248.703088 249.511652 250.499056 250.414105 251.214961 252.000963
19.620000 249.012689 249.941027 250.840157 250.774336 251.572594 252.264637
19.640000 249.325748 250.291518 251.145585 251.100621 251.873944 252.645745
19.660000 249.678642 250.630277 251.455950 251.409880 252.183231 252.950922
19.680000 250.002069 250.944799 251.737529 251.716560 252.509550 253.228197
19.700000 250.278821 251.242046 252.058143 252.016851 252.785850 253.488796
19.720000 250.557382 251.548131 252.361837 252.317934 253.082106 253.861065
19.740000 250.813599 251.862519 252.653391 252.627169 253.445448 254.264957
19.760000 251.065942 252.179048 252.948526 252.929823 253.717399 254.576577
19.780000 251.333373 252.501043 253.214980 253.211708 254.022755 254.930626
19.820000 251.818766 252.976686 253.757170 253.757371 254.559877 255.577949
19.840000 252.093039 253.273427 254.041259 254.047166 254.878654 255.991533
19.880000 252.646401 253.812081 254.592659 254.628945 255.523760 256.730026
19.900000 252.927742 254.108330 254.897406 254.942021 255.861529 257.011855
19.920000 253.201144 254.407486 255.260778 255.280672 256.204463 257.374250
19.940000 253.484684 254.726870 255.542143 255.634765 256.605154 257.868151
19.960000 253.812655 255.061889 255.888820 255.973713 256.984318 258.190411
19.980000 254.057918 255.369499 256.212320 256.312960 257.368343 258.587563
20.000000 254.312553 255.661953 256.574262 256.655285 257.794765 258.992235
20.020000 254.582227 255.969205 256.919641 256.995764 258.192680 259.458022
20.040000 254.876876 256.248909 257.200270 257.325748 258.570467 259.897325
20.060000 255.188399 256.506877 257.528607 257.656000 258.976324 260.279375
20.080000 255.403811 256.779655 257.838181 257.991117 259.403711 260.758215
20.100000 255.764994 257.078969 258.130541 258.332224 259.815530 261.256699
20.120000 256.103180 257.365034 258.488469 258.679374 260.229728 261.610006
20.140000 256.354782 257.677272 258.801585 259.028930 260.602647 262.138602
20.160000 256.610349 257.960113 259.161366 259.391364 261.010029 262.555525
20.180000 256.885577 258.226804 259.553891 259.745754 261.339588 263.014743
20.200000 257.179541 258.533373 259.952541 260.101068 261.717333 263.324513
20.220000 257.482491 258.799619 260.329372 260.460562 262.141120 263.745257
20.240000 257.855381 259.112254 260.675566 260.815380 262.570154 264.023182
20.260000 258.141577 259.466181 261.044330 261.182802 263.010358 264.544042
20.280000 258.613193 259.813233 261.451646 261.549267 263.302160 264.853463
20.300000 259.007532 260.174052 261.823167 261.915126 263.703374 265.142553
20.320000 259.284627 260.619426 262.174068 262.270043 264.066205 265.441374
20.340000 259.692369 261.045483 262.563005 262.636785 264.475463 265.759825
20.360000 259.965104 261.454426 262.962613 263.015574 264.818507 266.094614
20.380000 260.378536 261.868646 263.282200 263.402218 265.183768 266.396651
20.400000 260.793516 262.253048 263.734888 263.795094 265.541912 266.658779
20.420000 261.172017 262.643520 264.171537 264.208690 265.935793 266.938337
20.440000 261.505309 263.105658 264.666324 264.618409 266.261783 267.274680
20.460000 262.102674 263.464001 265.081742 265.012225 266.593026 267.531941
20.480000 262.494540 263.922142 265.513548 265.415551 266.942593 267.773196
20.500000 262.997253 264.352585 265.923379 265.834570 267.328637 268.047930
20.520000 263.443100 264.829049 266.279966 266.237835 267.708712 268.321086
20.540000 263.894349 265.334288 266.722495 266.624245 268.012402 268.591967
20.560000 264.361502 265.769047 267.119795 267.003572 268.289158 268.814094
20.580000 264.791692 266.219705 267.511778 267.377865 268.598487 269.074147
20.600000 265.172028 266.642037 267.858257 267.745491 268.861223 269.289887
20.620000 265.563060 267.076808 268.230411 268.101041 269.138688 269.565856
20.640000 265.894131 267.530480 268.593042 268.436069 269.396361 269.869596
20.660000 266.280303 267.909930 268.922094 268.763761 269.667545 270.099673
20.680000 266.782703 268.252397 269.239372 269.067846 269.891620 270.331533
20.700000 267.295935 268.607155 269.531821 269.371467 270.128570 270.535245
20.720000 267.752771 268.929493 269.811589 269.658493 270.377160 270.799757
20.740000 268.068657 269.240276 270.084243 269.947660 270.628684 271.026334
20.760000 268.436007 269.556505 270.351205 270.221266 270.861263 271.298235
20.780000 268.819728 269.839515 270.607430 270.493203 271.125164 271.549885
20.800000 269.240916 270.131709 270.882409 270.776766 271.388402 271.856415
20.820000 269.529091 270.433574 271.159867 271.065253 271.681067 272.153276
20.840000 269.874658 270.751655 271.464316 271.378966 271.989605 272.568281
20.860000 270.202670 271.032072 271.739102 271.681030 272.284636 272.851520
20.880000 270.529901 271.334835 272.046628 271.980074 272.588032 273.166718
20.900000 270.873554 271.653066 272.360300 272.296034 272.890540 273.555902
20.920000 271.164134 271.964587 272.653120 272.613323 273.208888 273.905601
20.940000 271.534794 272.335192 273.005937 272.953440 273.540650 274.300873
20.960000 271.855272 272.637795 273.345864 273.285591 273.911913 274.621298
20.980000 272.143765 272.992809 273.645317 273.616681 274.261513 274.970393
21.000000 272.494256 273.312963 273.982934 273.963856 274.591219 275.317219
21.020000 272.967309 273.679207 274.322912 274.333372 274.978344 275.810295
21.040000 273.317497 274.079582 274.667620 274.716729 275.394225 276.249677
21.060000 273.766670 274.433622 275.036837 275.120421 275.827765 276.758456
21.080000 274.221086 274.804942 275.448543 275.529158 276.275778 277.286037
21.100000 274.629971 275.199112 275.891581 275.970448 276.802507 277.617414
21.120000 275.006955 275.602830 276.318964 276.414998 277.253410 278.077241
21.140000 275.364606 276.042083 276.812152 276.850301 277.702085 278.469635
21.160000 275.834678 276.425191 277.237729 277.249904 278.084370 278.821103
21.180000 276.101403 276.799164 277.661593 277.640167 278.466483 279.103462
21.200000 276.515304 277.190340 278.051675 278.007900 278.820874 279.361788
21.220000 276.816216 277.580484 278.403045 278.355659 279.121271 279.653171
21.240000 277.144036 277.958181 278.744858 278.688149 279.406753 279.944699
21.260000 277.541158 278.371281 279.091201 279.024376 279.683601 280.153506
21.280000 277.913642 278.776547 279.446231 279.380544 279.994552 280.464473
21.300000 278.365129 279.157230 279.793695 279.755347 280.323763 280.792421
21.320000 278.810697 279.578858 280.171967 280.114481 280.662730 281.089923
21.340000 279.279521 279.904076 280.486275 280.445496 280.973000 281.405469
21.360000 279.688412 280.243701 280.780203 280.740606 281.239711 281.679734
21.380000 279.996750 280.543814 281.036062 281.017189 281.523883 281.914845
21.400000 280.288135 280.799283 281.279373 281.268791 281.759441 282.133905
21.420000 280.505744 281.047353 281.511157 281.506060 281.995996 282.375389
21.440000 280.770222 281.289604 281.734732 281.744448 282.229639 282.600097
21.460000 281.025266 281.515174 281.969265 281.980797 282.469731 282.826140
21.480000 281.238118 281.740387 282.212051 282.220074 282.707408 283.073107
21.500000 281.515420 281.963133 282.471388 282.457121 282.944787 283.297757
21.520000 281.723254 282.190613 282.704523 282.697270 283.194062 283.537075
21.540000 281.920057 282.389805 282.941450 282.936135 283.446071 283.842018
21.560000 282.198000 282.620037 283.204673 283.185479 283.712743 284.104836
21.580000 282.419471 282.858850 283.437756 283.425603 283.964782 284.398483
21.600000 282.665624 283.068729 283.689640 283.662632 284.205817 284.666236
21.620000 282.890469 283.309847 283.943926 283.905636 284.437010 284.976001
21.640000 283.064763 283.533815 284.192996 284.142003 284.671802 285.206076
21.660000 283.270906 283.739667 284.441612 284.371549 284.925832 285.445143
21.680000 283.497084 283.935351 284.657630 284.603633 285.175209 285.658456
21.700000 283.689978 284.157996 284.897296 284.840526 285.414755 285.930489
21.720000 283.918522 284.380778 285.132364 285.076677 285.681072 286.160421
21.740000 284.151491 284.612007 285.378597 285.321289 285.941972 286.377676
21.760000 284.388117 284.859741 285.627022 285.560807 286.172442 286.607557
21.780000 284.574201 285.102167 285.873150 285.800835 286.395707 286.833580
21.800000 284.793155 285.358762 286.095603 286.041381 286.652163 287.063152
21.820000 285.037571 285.606703 286.364846 286.284267 286.885992 287.304216
21.840000 285.316287 285.863795 286.607451 286.531767 287.109233 287.529860
21.860000 285.563860 286.120170 286.846330 286.775818 287.332661 287.761050
21.880000 285.856085 286.409426 287.097935 287.036193 287.581560 288.012115
21.900000 286.122176 286.709642 287.355618 287.300369 287.834169 288.232654
21.920000 286.397774 287.006711 287.613072 287.562829 288.077628 288.492621
21.940000 286.728660 287.356502 287.890073 287.856448 288.356709 288.773861
21.960000 287.020040 287.709454 288.216791 288.190093 288.676492 289.107699
21.980000 287.505112 288.120625 288.606662 288.601630 289.094926 289.593384
22.000000 287.971057 288.531708 288.999701 289.004342 289.518154 289.976422
22.020000 288.411360 288.901607 289.388501 289.407653 289.890568 290.465723
22.040000 288.799833 289.247093 289.760177 289.765946 290.266756 290.853757
22.060000 289.055783 289.535164 290.059050 290.058716 290.559789 291.143662
22.080000 289.349558 289.809596 290.339902 290.351100 290.855324 291.436995
22.100000 289.660079 290.082195 290.629588 290.633204 291.151607 291.744028
22.120000 289.908598 290.372828 290.910097 290.926640 291.415596 292.156539
22.140000 290.209686 290.686300 291.230975 291.243348 291.714039 292.563721
22.160000 290.512057 290.990994 291.557149 291.568536 292.060507 292.900021
22.180000 290.762926 291.295985 291.852667 291.874579 292.372004 293.324436
22.200000 290.994135 291.600291 292.114608 292.179986 292.768715 293.678465
22.220000 291.348572 291.886818 292.371772 292.472801 293.112526 294.035859
