depth(m) lower_95(kyr) lower_68(kyr) median(kyr) mean(kyr) upper_68(kyr) upper_95(kyr)
3.005000 98.541861 99.798809 100.925821 100.931160 102.114715 103.096839
3.015000 98.968357 100.144291 101.278174 101.245037 102.364142 103.361970
3.025000 99.300354 100.507238 101.595443 101.564946 102.684073 103.581914
3.035000 99.704793 100.829196 101.934237 101.891564 103.025559 103.866225
3.045000 100.118248 101.223676 102.243773 102.232926 103.340468 104.117820
3.055000 100.469935 101.565420 102.570006 102.576785 103.710030 104.387561
3.065000 100.833386 101.922403 102.956747 102.928559 104.028772 104.717249
3.075000 101.260400 102.312346 103.311227 103.301127 104.355823 105.082432
3.085000 101.592108 102.685514 103.690557 103.686918 104.709263 105.419832
3.095000 101.973771 103.029225 104.088516 104.045217 105.021244 105.763385
3.105000 102.436809 103.389010 104.494768 104.418613 105.425848 106.153126
3.115000 102.793879 103.749406 104.879217 104.800004 105.789130 106.552408
3.125000 103.141605 104.107562 105.264227 105.167442 106.124344 107.005750
3.135000 103.484777 104.463794 105.616426 105.534133 106.490559 107.386776
3.145000 103.793533 104.824984 105.957983 105.896273 106.878511 107.780224
3.155000 104.070973 105.136003 106.333497 106.256011 107.292970 108.126573
3.165000 104.420962 105.501876 106.699362 106.632210 107.670133 108.449816
3.175000 104.851845 105.869198 107.079879 106.996841 108.015295 108.975347
3.185000 105.174804 106.225426 107.472980 107.381239 108.493332 109.404578
3.195000 105.550291 106.590794 107.844966 107.759131 108.856623 109.803266
3.205000 105.996202 106.977685 108.189998 108.151389 109.349076 110.355462
3.215000 106.290634 107.353202 108.550874 108.543458 109.747592 110.800388
3.225000 106.717928 107.768726 108.935098 108.968196 110.149221 111.303132
3.235000 107.063751 108.177589 109.395646 109.383134 110.603147 111.615345
3.245000 107.505638 108.593913 109.817933 109.811003 111.015181 112.186247
3.255000 107.983351 109.062156 110.275299 110.253301 111.442476 112.508411
3.265000 108.499718 109.509413 110.748087 110.702612 111.878388 112.798013
3.275000 108.858610 109.958340 111.259016 111.157305 112.289016 113.028286
3.285000 109.386966 110.485764 111.692662 111.591881 112.654588 113.360637
3.295000 109.866106 111.025892 112.125958 112.019036 112.992365 113.657031
3.305000 110.326512 111.512599 112.526448 112.416097 113.279435 113.900530
3.315000 110.842264 112.019079 112.906314 112.796664 113.587824 114.145885
3.325000 111.466173 112.453305 113.254450 113.173224 113.893371 114.397674
3.335000 112.062698 112.963323 113.596992 113.556350 114.203828 114.653401
3.345000 112.585150 113.390428 113.960697 113.942273 114.524374 115.072029
3.355000 113.050891 113.803275 114.375805 114.344221 114.882882 115.414241
3.365000 113.589438 114.144528 114.704961 114.697730 115.234369 115.753076
3.375000 113.950387 114.557938 115.086742 115.080023 115.598460 116.136698
3.385000 114.402993 114.938671 115.451576 115.463167 115.994595 116.544516
3.395000 114.781160 115.310125 115.833878 115.852659 116.415354 116.967012
3.405000 115.163475 115.660711 116.222754 116.240756 116.841167 117.359233
3.415000 115.563915 116.068202 116.614526 116.640635 117.222147 117.762663
3.425000 115.991340 116.476409 117.058477 117.068745 117.629221 118.260691
3.435000 116.299733 116.834546 117.438254 117.410495 117.957505 118.546422
3.445000 116.663896 117.156442 117.753732 117.742511 118.306908 118.856079
3.455000 116.975554 117.525123 118.097472 118.082651 118.602503 119.152649
3.465000 117.281197 117.900517 118.455120 118.429745 118.936024 119.445164
3.475000 117.700891 118.269235 118.787320 118.768281 119.269845 119.703210
3.485000 118.030790 118.614473 119.092603 119.090296 119.575442 120.031124
3.495000 118.386804 118.945152 119.423670 119.424289 119.925772 120.383335
3.505000 118.768307 119.252412 119.718000 119.731651 120.232343 120.648148
3.515000 119.113115 119.563151 120.017986 120.035940 120.507324 120.935812
3.525000 119.400355 119.852522 120.320146 120.323685 120.795403 121.304398
3.535000 119.668373 120.105895 120.598974 120.584226 121.055142 121.549506
3.545000 119.948077 120.353048 120.854263 120.845994 121.341760 121.793088
3.555000 120.251889 120.594011 121.102404 121.106529 121.606645 122.024889
3.565000 120.478740 120.831419 121.343865 121.348814 121.863954 122.266505
3.575000 120.675299 121.076134 121.583003 121.593202 122.110269 122.469672
3.585000 120.863809 121.317280 121.840007 121.825815 122.351182 122.690844
3.595000 121.095659 121.544774 122.066430 122.053318 122.559213 122.922504
3.605000 121.278803 121.742690 122.318964 122.277482 122.779456 123.124553
3.615000 121.497337 121.965203 122.559235 122.498479 123.006986 123.321467
3.625000 121.686010 122.178430 122.799131 122.723558 123.221417 123.503991
3.635000 121.897261 122.389675 123.034517 122.945819 123.444233 123.711311
3.645000 122.068989 122.609895 123.264231 123.165119 123.658179 123.905387
3.655000 122.261397 122.836796 123.507180 123.387386 123.873048 124.127161
3.665000 122.455719 123.059558 123.728893 123.602709 124.073399 124.339622
3.675000 122.643325 123.241662 123.935880 123.805043 124.274881 124.520370
3.685000 122.850226 123.454780 124.134856 124.009539 124.473803 124.727085
3.695000 123.064477 123.654889 124.337326 124.209604 124.664728 124.915574
3.705000 123.269631 123.859594 124.538402 124.409574 124.844671 125.099775
3.715000 123.467281 124.066381 124.752285 124.612480 125.043703 125.299791
3.725000 123.690627 124.303930 124.961429 124.818762 125.234533 125.507262
3.735000 123.908431 124.466785 125.157988 125.016735 125.443308 125.706685
3.745000 124.090931 124.676500 125.359131 125.220626 125.648897 125.909383
3.755000 124.345215 124.893480 125.554426 125.429055 125.854547 126.138067
3.765000 124.570086 125.115852 125.752596 125.641213 126.053054 126.357953
3.775000 124.836624 125.344328 125.967965 125.853499 126.242931 126.549332
3.785000 125.037967 125.580682 126.166214 126.069920 126.460993 126.795365
3.795000 125.314692 125.806037 126.378456 126.294127 126.672823 127.040994
3.805000 125.538784 126.059909 126.596797 126.520628 126.893345 127.308514
3.815000 125.741644 126.342779 126.815408 126.745771 127.119403 127.516550
3.825000 125.995192 126.533827 127.014788 126.958920 127.333186 127.720337
3.835000 126.197960 126.746608 127.229120 127.172111 127.554904 127.969033
3.845000 126.401742 126.978234 127.430514 127.390784 127.779028 128.163648
3.855000 126.627636 127.219137 127.642483 127.615794 128.018119 128.450072
3.865000 126.872720 127.444984 127.863535 127.844040 128.251456 128.711445
3.875000 127.066877 127.664421 128.102561 128.100284 128.516878 129.068329
3.885000 127.309608 127.913544 128.368626 128.376170 128.835766 129.434159
3.895000 127.610145 128.213463 128.672219 128.696341 129.179320 129.926173
3.905000 127.973626 128.527038 128.997488 129.062303 129.624379 130.402176
3.915000 128.421704 128.871161 129.416751 129.488597 130.114975 130.970371
3.925000 128.812934 129.303911 129.928432 129.991837 130.671192 131.564369
3.935000 129.230375 129.823567 130.478405 130.556548 131.306142 132.106581
3.945000 129.676027 130.324458 131.077092 131.116769 131.943458 132.744725
3.955000 130.138446 130.846676 131.712241 131.690604 132.488931 133.285152
3.965000 130.674074 131.444069 132.249745 132.240831 133.065234 133.724039
3.975000 131.230122 132.068572 132.861121 132.819880 133.557152 134.161048
3.985000 131.868531 132.638779 133.450786 133.366769 134.021888 134.541137
3.995000 132.540687 133.308499 133.974489 133.930959 134.537257 135.030756
4.005000 133.195939 133.926428 134.491375 134.486357 135.074264 135.644877
4.015000 133.904888 134.520439 135.053631 135.054725 135.607569 136.124406
4.025000 134.385590 134.966028 135.533363 135.508432 136.083474 136.529663
4.035000 134.693297 135.357677 135.889968 135.878250 136.418524 136.829770
4.045000 135.114337 135.739742 136.260281 136.232875 136.735285 137.097214
4.055000 135.511132 136.055230 136.572545 136.532724 137.005467 137.345721
4.065000 135.818087 136.339960 136.850124 136.807517 137.257783 137.629760
4.075000 136.141146 136.608518 137.106990 137.056103 137.474857 137.814617
4.085000 136.381388 136.880394 137.344828 137.294539 137.692353 138.003736
4.095000 136.600858 137.114285 137.556401 137.519801 137.912363 138.226459
4.105000 136.848084 137.364969 137.793379 137.746768 138.106085 138.441383
4.115000 137.079508 137.598876 137.997500 137.966384 138.316704 138.650420
4.125000 137.317772 137.857714 138.217429 138.182987 138.504114 138.897382
4.135000 137.498255 138.082352 138.428295 138.394704 138.708629 139.133122
4.145000 137.679381 138.302491 138.633800 138.601829 138.892592 139.332133
4.155000 137.857446 138.515603 138.837678 138.809373 139.098772 139.509218
4.165000 138.059692 138.719477 139.037438 139.011415 139.289591 139.791715
4.175000 138.266258 138.938999 139.238074 139.214795 139.482126 140.063230
4.185000 138.481775 139.148060 139.426335 139.413969 139.671563 140.268461
4.195000 138.687307 139.359641 139.632720 139.621457 139.881029 140.526062
4.205000 138.922329 139.570029 139.831506 139.828257 140.074405 140.700886
4.215000 139.154988 139.784019 140.027915 140.038160 140.289459 140.951455
4.225000 139.378005 139.998643 140.223254 140.250434 140.505939 141.217950
4.235000 139.579898 140.194676 140.436063 140.462381 140.728841 141.447912
4.245000 139.856492 140.391041 140.637755 140.678353 140.951007 141.678919
4.255000 140.118172 140.611563 140.865672 140.903744 141.174966 141.966382
4.265000 140.407686 140.823145 141.080047 141.135905 141.395599 142.283133
4.275000 140.676684 141.037310 141.301886 141.376530 141.682119 142.622079
4.285000 140.910251 141.253249 141.517788 141.621530 142.008459 143.006248
4.295000 141.122673 141.459168 141.739182 141.855599 142.283377 143.299335
4.305000 141.317186 141.666404 141.950034 142.094711 142.578891 143.610160
4.315000 141.526705 141.875123 142.175759 142.335717 142.912636 143.884309
4.325000 141.777283 142.087133 142.387644 142.575954 143.216890 144.280426
4.335000 142.030204 142.302540 142.606811 142.825105 143.537766 144.524823
4.345000 142.247526 142.501844 142.836774 143.062115 143.836994 144.936413
4.355000 142.455998 142.714732 143.054110 143.300727 144.113554 145.200822
4.365000 142.690019 142.946728 143.292526 143.553970 144.381490 145.468235
4.375000 142.861831 143.169342 143.529148 143.804184 144.667337 145.777507
4.385000 143.077259 143.369926 143.762883 144.049102 144.928303 146.114065
4.395000 143.293224 143.583118 144.004898 144.298261 145.214565 146.352769
4.405000 143.520161 143.812949 144.301743 144.565792 145.483258 146.665570
4.415000 143.748994 144.047733 144.567901 144.836947 145.773762 147.044547
4.425000 143.961391 144.291409 144.883686 145.116423 146.030498 147.386463
4.435000 144.192598 144.533818 145.182917 145.419684 146.336864 147.705752
4.445000 144.453240 144.805128 145.532616 145.730749 146.656728 148.161482
4.455000 144.711783 145.087862 145.851803 146.053309 146.973883 148.527719
4.465000 144.932247 145.378481 146.163656 146.384682 147.412197 148.951368
4.475000 145.179320 145.712506 146.518169 146.728453 147.852203 149.352747
4.485000 145.417587 146.055238 146.876451 147.079197 148.209177 149.691687
4.495000 145.678777 146.416380 147.198785 147.424343 148.602642 150.044841
4.505000 145.939729 146.735784 147.565403 147.772091 148.927063 150.474985
4.515000 146.203263 147.069723 147.951203 148.140679 149.317087 150.779181
4.525000 146.475029 147.451812 148.358707 148.534295 149.810031 151.214695
4.535000 146.747144 147.818161 148.766390 148.910287 150.153305 151.563131
4.545000 146.996532 148.193323 149.191683 149.294853 150.547298 151.882986
4.555000 147.313666 148.564735 149.604503 149.678512 150.945025 152.159808
4.565000 147.642366 148.952187 149.980169 150.053816 151.238792 152.510448
4.575000 147.955225 149.372063 150.392367 150.435728 151.576858 152.793883
4.585000 148.260182 149.745606 150.768429 150.824792 151.983677 153.062717
4.595000 148.655388 150.130763 151.183381 151.212405 152.441373 153.361675
4.605000 149.120576 150.522741 151.563562 151.586867 152.774012 153.597801
4.625000 150.045971 151.411453 152.324835 152.376668 153.533214 154.319793
4.635000 150.604342 151.785275 152.710773 152.754717 153.889691 154.728302
4.645000 150.961475 152.208332 153.090140 153.126031 154.228787 154.985642
4.655000 151.293104 152.556455 153.471318 153.487733 154.584818 155.224217
4.665000 151.679879 152.925503 153.852965 153.851413 154.912416 155.568400
4.675000 152.114035 153.252397 154.223755 154.204514 155.215055 155.902528
4.685000 152.635498 153.607288 154.614940 154.551432 155.508847 156.225942
4.695000 153.003759 153.951045 155.003790 154.898878 155.817969 156.532109
4.705000 153.400335 154.269307 155.359422 155.219951 156.110021 156.837881
4.715000 153.750774 154.541043 155.687613 155.533552 156.415222 157.076397
4.725000 154.080972 154.856143 155.996086 155.849940 156.676638 157.390390
4.735000 154.466591 155.216937 156.312323 156.162411 156.961229 157.701141
4.745000 154.796344 155.576576 156.615327 156.469224 157.216586 157.995591
4.755000 155.065430 155.892610 156.885428 156.765685 157.488381 158.287954
4.765000 155.367248 156.223677 157.174890 157.065793 157.768812 158.566175
4.775000 155.649596 156.535340 157.453764 157.355504 158.071181 158.807111
4.785000 155.961504 156.880045 157.731546 157.650705 158.370433 159.077306
4.795000 156.178633 157.188213 158.004618 157.940714 158.680314 159.390932
4.805000 156.482191 157.516558 158.273967 158.240962 159.009540 159.658986
4.815000 156.829108 157.851350 158.564488 158.542032 159.320665 159.958369
4.825000 157.158469 158.158839 158.867833 158.855824 159.619983 160.265746
4.835000 157.509002 158.501167 159.153454 159.163361 159.926873 160.581187
4.845000 157.902293 158.820549 159.450483 159.480605 160.244706 160.999922
4.855000 158.222378 159.173609 159.739969 159.794155 160.545264 161.285878
4.865000 158.512692 159.466725 160.023898 160.101969 160.863319 161.598159
4.875000 158.948343 159.761953 160.353015 160.406441 161.154912 161.915383
4.885000 159.280610 160.044275 160.644253 160.711915 161.469760 162.175553
4.895000 159.686200 160.316988 160.963460 161.020082 161.782706 162.491255
4.905000 160.122041 160.591821 161.253058 161.316431 162.064418 162.878103
4.915000 160.395673 160.877443 161.547365 161.596381 162.326584 163.167702
4.925000 160.594096 161.163914 161.840794 161.881930 162.595438 163.474806
4.935000 160.868742 161.407090 162.112346 162.155594 162.865474 163.891170
4.945000 161.199248 161.679702 162.388052 162.426911 163.114180 164.312892
4.955000 161.498733 161.941002 162.626387 162.684187 163.345309 164.621898
4.965000 161.775940 162.216225 162.899055 162.957641 163.620340 165.008972
4.975000 161.999086 162.478145 163.185685 163.227509 163.884587 165.265974
4.985000 162.211504 162.713493 163.452809 163.495997 164.173772 165.446205
4.995000 162.491300 162.979922 163.736652 163.773385 164.454139 165.725325
5.005000 162.752067 163.251654 164.027574 164.055773 164.780730 165.902849
5.015000 163.016713 163.523577 164.296367 164.338047 165.093730 166.220431
5.025000 163.257395 163.823297 164.586616 164.631716 165.418137 166.478594
5.035000 163.538251 164.108519 164.877235 164.922493 165.703821 166.759544
5.045000 163.759748 164.393209 165.147341 165.220707 166.040007 167.040458
5.055000 164.059404 164.680879 165.444067 165.514723 166.369545 167.331670
5.065000 164.294609 164.917500 165.753151 165.815782 166.702845 167.632466
5.075000 164.588664 165.211850 166.087632 166.128767 167.079491 167.876610
5.085000 164.905369 165.477050 166.405252 166.439433 167.423883 168.217213
5.095000 165.130577 165.725530 166.732272 166.737464 167.703453 168.502861
5.105000 165.390957 166.018977 167.051730 167.041733 167.973213 168.808899
5.115000 165.641743 166.328108 167.369802 167.343561 168.268548 169.123264
5.125000 165.928014 166.638196 167.693179 167.646159 168.601692 169.387297
5.135000 166.232738 166.968411 168.011137 167.963263 168.913579 169.626737
5.145000 166.522912 167.278694 168.321464 168.289498 169.203330 169.932025
5.155000 166.789735 167.642134 168.662367 168.607026 169.480128 170.234741
5.165000 167.081524 168.051350 169.006647 168.950162 169.805271 170.533768
5.175000 167.453473 168.426521 169.340912 169.304972 170.164577 170.942523
5.185000 167.907533 168.874200 169.711452 169.685377 170.494395 171.362537
5.195000 168.243275 169.287619 170.103515 170.087274 170.897331 171.709726
5.205000 168.735063 169.702248 170.474668 170.484078 171.297386 172.221187
5.215000 169.249620 170.158704 170.875851 170.904131 171.725019 172.581122
5.225000 169.689227 170.584107 171.325224 171.344817 172.169078 173.011678
5.235000 170.109432 170.996531 171.748377 171.781141 172.632550 173.355164
5.245000 170.613940 171.422378 172.230080 172.244019 173.076501 173.837298
5.255000 170.990321 171.809535 172.666728 172.665363 173.519729 174.325494
5.265000 171.334161 172.204250 173.087280 173.072129 173.936962 174.775161
5.275000 171.672137 172.562404 173.512759 173.473551 174.372040 175.156119
5.285000 171.912714 172.974354 173.915781 173.861968 174.749664 175.478312
5.295000 172.276831 173.350527 174.287322 174.240907 175.130901 175.754693
5.305000 172.759554 173.754444 174.659504 174.599589 175.458212 176.026997
5.325000 173.682525 174.557382 175.392050 175.314570 176.079698 176.550013
5.335000 174.074654 174.959270 175.763595 175.683406 176.382548 176.830896
5.345000 174.470942 175.328111 176.110680 176.018490 176.673197 177.117693
5.355000 174.818563 175.723029 176.438110 176.343942 176.953263 177.380901
5.365000 175.191966 176.069170 176.742351 176.660761 177.224433 177.656529
5.375000 175.628823 176.409420 177.044206 176.968723 177.493061 177.930952
5.385000 175.964769 176.729906 177.337653 177.255115 177.771594 178.225993
5.395000 176.346017 177.039878 177.611534 177.540898 178.036419 178.510595
5.405000 176.692900 177.329640 177.877456 177.821338 178.296840 178.786565
5.415000 177.027190 177.614908 178.136504 178.104654 178.551377 179.096488
5.425000 177.303691 177.885994 178.393885 178.375961 178.845073 179.427590
5.435000 177.558945 178.135613 178.651677 178.645328 179.150630 179.781965
5.445000 177.863308 178.414809 178.895740 178.919883 179.431535 180.107726
5.455000 178.182447 178.709407 179.152596 179.198273 179.744539 180.385844
5.465000 178.425269 178.971427 179.404628 179.466729 180.011646 180.722254
5.475000 178.638851 179.224584 179.652458 179.745541 180.356310 181.024948
5.485000 178.889862 179.496343 179.915385 180.028465 180.662543 181.441056
5.495000 179.235800 179.741673 180.214632 180.316434 180.967105 181.821486
5.505000 179.512292 179.991756 180.488536 180.610594 181.265994 182.245517
5.515000 179.802583 180.264794 180.778146 180.910395 181.593225 182.652076
5.525000 180.067373 180.550300 181.133802 181.228820 181.911381 183.050503
5.535000 180.319877 180.816614 181.486707 181.560389 182.254715 183.550963
5.545000 180.606249 181.111153 181.828289 181.909249 182.655533 183.883456
5.555000 180.988686 181.441402 182.221451 182.286962 183.061504 184.232256
5.565000 181.245033 181.792085 182.606534 182.662927 183.442619 184.688304
5.575000 181.517432 182.170276 183.010347 183.057430 183.893200 185.051671
5.585000 181.877233 182.585218 183.454818 183.496291 184.355294 185.399889
5.595000 182.212983 182.999365 183.911564 183.914025 184.778886 185.878138
5.605000 182.546343 183.397666 184.326151 184.314911 185.178830 186.294078
5.615000 182.983906 183.897898 184.728360 184.750900 185.653685 186.595141
5.625000 183.378313 184.315746 185.164989 185.182374 186.066999 186.962238
5.635000 183.722888 184.800895 185.587608 185.619959 186.549446 187.327426
5.645000 184.159684 185.222225 186.046525 186.056533 186.958384 187.680083
5.655000 184.652176 185.670148 186.531397 186.478068 187.321537 188.005206
5.665000 184.998253 186.040849 186.926478 186.877534 187.723710 188.374034
