depth(m) lower_95(kyr) lower_68(kyr) median(kyr) mean(kyr) upper_68(kyr) upper_95(kyr)
5.700000 93.684973 96.120958 100.873281 100.185028 103.518547 105.607632
5.750000 94.403734 97.071643 101.919249 101.114273 104.496299 106.612401
5.800000 95.186084 97.842558 102.864138 102.084563 105.376802 108.222180
5.850000 96.040430 98.568144 103.679000 103.008606 106.471774 110.394306
5.900000 96.700552 99.480362 104.435280 103.902353 107.448341 111.777687
5.950000 97.522776 100.273269 105.284653 104.851392 108.806238 113.033832
5.990000 98.102553 100.977913 106.081209 105.645857 109.657590 113.764798
6.000000 98.321827 101.122764 106.243558 105.841694 109.917070 113.921923
6.100000 99.875515 102.805087 108.992100 108.319643 113.298363 115.387020
6.200000 101.413000 105.051492 111.844208 110.741798 114.980300 116.423948
6.300000 103.857524 109.729944 114.167785 113.122006 116.181463 117.464967
6.400000 106.841139 113.955211 115.907088 115.346063 117.422476 118.514666
6.500000 113.030925 116.042784 117.594303 117.346112 118.825903 119.792959
6.600000 117.090408 118.405470 119.584686 119.490323 120.550151 121.445802
6.700000 119.044793 120.155767 121.150847 121.139787 122.092058 123.140758
6.800000 120.529658 121.545341 122.516637 122.510964 123.497106 124.538963
6.900000 121.882130 122.799926 123.825972 123.830438 124.852191 126.039815
7.000000 123.194794 124.117363 125.124429 125.143242 126.162290 127.317244
7.100000 124.441530 125.416774 126.468925 126.498909 127.554544 128.639383
7.200000 126.045023 127.055137 128.053465 128.134613 129.268287 130.689339
7.300000 127.775673 128.843745 130.042764 130.115024 131.435549 132.609029
7.400000 129.583850 130.913476 132.411360 132.314955 133.684973 134.863260
7.500000 131.765929 133.772905 135.346324 135.273028 136.763278 138.182750
7.600000 134.170795 135.872591 137.322624 137.379879 138.990727 140.629265
7.700000 136.020652 137.548600 138.899550 139.097999 140.674209 142.671113
7.800000 137.793720 139.057566 140.550533 140.747039 142.509184 144.491414
7.900000 139.666487 140.840862 142.542737 142.709457 144.622029 146.525570
8.000000 141.849345 143.301224 145.114571 145.209176 147.082453 148.931621
8.100000 143.634327 145.412474 147.469664 147.361285 149.245460 150.825136
8.200000 145.593154 147.331445 149.346511 149.253353 151.123961 152.892096
8.300000 147.315832 148.996997 150.997335 150.972824 152.897261 154.817900
8.400000 148.803650 150.607276 152.725262 152.679895 154.566363 157.084858
8.500000 150.329309 152.321705 154.398366 154.310581 156.044189 158.683797
8.600000 151.972038 154.376449 156.200066 156.175261 157.964352 160.059004
8.700000 153.757349 156.308249 157.935569 157.963516 159.783831 161.635108
8.800000 155.647947 158.071200 159.640684 159.762619 161.716087 163.553152
8.900000 157.727332 159.651166 161.149481 161.399803 163.492844 164.993753
9.000000 159.470211 161.032036 162.534677 162.884490 165.008382 166.399220
9.100000 161.165120 162.464613 163.947094 164.418736 166.597422 167.781828
9.105000 161.233191 162.566823 164.024701 164.505311 166.718885 167.886561
9.140000 161.778501 163.089441 164.580861 165.117128 167.296006 168.270142
9.165000 162.157077 163.481573 165.042896 165.567415 167.755858 168.736637
9.185000 162.486196 163.802920 165.424521 165.947767 168.109918 168.992527
9.200000 162.764894 164.051759 165.737776 166.242195 168.402188 169.304313
9.204000 162.849688 164.125121 165.815006 166.323116 168.510256 169.365612
9.227000 163.345355 164.571293 166.242589 166.786566 168.980934 169.790375
9.235000 163.548083 164.739552 166.406057 166.960298 169.141839 170.003720
9.252500 163.925900 165.132119 166.807320 167.346613 169.559226 170.323183
9.267500 164.186707 165.483766 167.236966 167.690713 169.887627 170.586778
9.275000 164.332718 165.631955 167.395912 167.860269 170.056574 170.782434
9.280000 164.427991 165.734271 167.522346 167.973184 170.166721 170.901068
9.285000 164.502828 165.830282 167.667413 168.083373 170.269036 170.972475
9.300000 164.909209 166.231177 168.056325 168.442577 170.614271 171.480001
9.360000 166.018749 167.587281 170.084425 170.023041 171.977201 175.212778
9.400000 166.818907 168.536189 171.140162 171.118417 173.204383 176.899123
9.500000 169.124592 171.560598 174.304932 174.539036 177.219118 182.478797
9.600000 171.191555 174.537680 177.872806 178.076212 182.057942 185.710530
9.700000 173.205345 177.708494 181.213194 181.474890 185.872208 187.884357
9.800000 175.190656 181.245048 185.545196 184.816970 188.422601 189.997781
9.900000 178.907023 184.866618 188.627285 187.712758 190.116711 191.817609
10.000000 184.073039 188.820678 190.473725 190.135764 191.628181 193.655358
10.100000 189.185507 190.771694 191.979064 192.015846 193.202030 195.709869
10.200000 191.314234 192.400767 193.480240 193.819849 194.896373 199.064501
10.300000 192.814735 193.847984 194.880100 195.421687 196.647741 202.002680
10.400000 194.053350 195.223053 196.197840 196.945883 198.189617 204.422514
10.500000 195.521156 196.628275 197.648864 198.579049 200.754936 206.196494
10.600000 197.321713 198.276077 199.430342 200.461146 203.416699 207.874531
10.700000 199.248283 200.260294 201.799013 202.647352 205.678274 209.194131
10.800000 201.152004 202.756545 204.922612 205.269695 207.989470 210.630476
10.900000 203.272027 205.316245 207.860448 207.799273 210.088459 212.243393
11.000000 205.894219 208.601278 210.824382 210.607882 212.671974 214.774684
11.100000 209.057858 211.596510 213.510992 213.363705 215.249735 216.632934
11.200000 211.644602 214.502279 216.310190 216.055593 217.592852 218.893552
11.300000 216.649988 217.970490 219.165296 219.216541 220.472931 222.111531
11.400000 219.467124 220.617782 221.883035 222.041400 223.640209 225.046877
11.500000 221.297836 222.668501 224.226264 224.264376 225.858027 227.644011
11.600000 223.136998 224.706740 226.273098 226.361911 228.143587 229.821876
11.700000 224.989502 226.763419 228.500399 228.533678 230.377713 231.818678
11.800000 227.592314 229.360788 231.332024 231.136617 232.849161 234.045762
11.900000 230.708199 232.692233 234.369945 234.207665 235.576153 237.048535
12.000000 234.028712 235.743505 237.299729 237.261560 238.837074 240.324534
12.100000 235.738034 237.871593 239.746608 239.581927 241.345659 242.761203
12.200000 238.023046 240.282611 242.097295 241.869760 243.423599 244.673280
12.300000 241.795718 243.441452 244.862851 244.823729 246.231003 247.577694
12.400000 244.498092 245.867030 247.195123 247.227710 248.593126 250.088483
12.500000 246.560588 248.043931 249.430629 249.531192 251.060264 252.965349
12.600000 248.478428 249.948014 251.362816 251.550940 253.208528 255.580859
12.700000 250.303454 251.724755 253.247629 253.419919 255.038897 257.724231
12.800000 252.075622 253.637556 255.259534 255.486413 257.246367 259.968883
12.900000 254.191381 255.609272 257.410521 257.654265 259.711144 262.569282
13.000000 256.112335 257.665246 259.701800 259.862577 261.976861 265.121411
13.100000 257.822734 259.880653 262.062713 262.156472 264.384882 267.280038
13.200000 259.736613 261.967753 264.429200 264.526750 267.050752 269.557957
13.300000 261.545070 264.047258 266.708792 266.673957 269.274581 271.574138
13.400000 263.962076 266.416781 268.976325 268.951990 271.433260 273.654679
13.500000 266.197581 268.889942 271.185585 271.214931 273.600497 276.068018
13.600000 269.324964 271.577475 273.881389 273.862737 276.249585 278.171125
13.700000 272.655623 274.843887 277.374389 277.190559 279.419168 280.962925
13.800000 277.880947 280.219893 281.856400 281.798316 283.308633 285.290849
13.900000 282.058889 283.607867 284.962404 284.970496 286.452249 287.763246
14.000000 285.055627 286.659347 287.977004 287.960998 289.253538 291.030008
14.100000 288.557582 289.916424 291.328371 291.572791 293.350649 295.683420
14.200000 290.647044 292.135928 293.919966 294.210422 296.313324 298.813909
14.300000 292.713017 294.475329 296.578135 296.738105 299.000115 301.761223
14.400000 294.963452 296.999928 299.638303 299.735032 302.288724 305.661520
