depth(m) lower_95(kyr) lower_68(kyr) median(kyr) mean(kyr) upper_68(kyr) upper_95(kyr)
141.000000 103.473411 105.102348 106.530288 106.741733 108.621226 110.273775
141.144928 103.528821 105.173392 106.595630 106.818151 108.687987 110.357359
141.289855 103.603533 105.242966 106.668344 106.891145 108.793133 110.444970
141.434783 103.670598 105.294675 106.750396 106.957034 108.862958 110.492722
141.579710 103.743094 105.357046 106.819992 107.019722 108.917191 110.546319
141.724638 103.822178 105.427005 106.861393 107.079768 108.976345 110.604101
141.869565 103.882738 105.479918 106.930548 107.137296 109.017352 110.663199
142.014493 103.943110 105.526575 107.003791 107.192622 109.073801 110.717155
142.159420 103.985396 105.594385 107.056808 107.248519 109.126684 110.771567
142.304348 104.043829 105.642892 107.107419 107.302671 109.156166 110.836423
142.449275 104.087612 105.705733 107.168613 107.355406 109.205609 110.905352
142.594203 104.141894 105.758175 107.212420 107.407397 109.263548 110.943307
142.739130 104.184639 105.819957 107.292794 107.460549 109.313855 110.999538
142.884058 104.224459 105.866558 107.355950 107.512398 109.346071 111.041266
143.028986 104.289121 105.915600 107.383549 107.562570 109.395278 111.073660
143.173913 104.340135 105.968192 107.429680 107.612560 109.445094 111.117595
143.318841 104.408195 106.036151 107.460454 107.662525 109.486126 111.173287
143.463768 104.458330 106.109446 107.511196 107.713513 109.535504 111.235567
143.608696 104.534100 106.156975 107.579140 107.763412 109.582180 111.285384
143.753623 104.569462 106.208880 107.625011 107.814060 109.627791 111.354512
143.898551 104.614504 106.259897 107.676551 107.860876 109.679307 111.386534
144.043478 104.670841 106.309114 107.730266 107.910447 109.728915 111.429986
144.188406 104.721611 106.386348 107.766389 107.959566 109.770945 111.507253
144.333333 104.792433 106.436170 107.826786 108.007519 109.807832 111.565206
144.478261 104.852999 106.486978 107.891540 108.055882 109.856623 111.629503
144.623188 104.907591 106.544996 107.929490 108.103736 109.906525 111.675716
144.768116 104.952235 106.612973 107.973652 108.150900 109.950547 111.707486
144.913043 105.022319 106.666538 108.018709 108.200558 109.993677 111.744692
145.057971 105.073922 106.718004 108.060546 108.249614 110.051088 111.789669
145.202899 105.104031 106.774980 108.113194 108.297617 110.106552 111.842247
145.347826 105.179353 106.827745 108.158676 108.345163 110.148234 111.903390
145.492754 105.238911 106.887699 108.201805 108.393006 110.197008 111.941356
145.637681 105.303139 106.934403 108.254200 108.441693 110.240126 111.988503
145.782609 105.361247 106.986725 108.304750 108.491558 110.285887 112.040631
145.927536 105.422028 107.042451 108.359875 108.541337 110.318814 112.107901
146.072464 105.471941 107.090813 108.423739 108.588874 110.354697 112.143134
146.217391 105.509330 107.147416 108.459189 108.637012 110.403912 112.178850
146.362319 105.555171 107.199358 108.502774 108.685855 110.460662 112.254191
146.507246 105.614179 107.255078 108.548272 108.733929 110.493711 112.319493
146.652174 105.673732 107.304998 108.605723 108.781787 110.528646 112.373268
146.797101 105.705903 107.360590 108.643163 108.830451 110.574488 112.420545
146.942029 105.726133 107.411813 108.679274 108.877540 110.620662 112.487346
147.086957 105.766342 107.458861 108.731616 108.926277 110.672891 112.522441
147.231884 105.808567 107.504515 108.785427 108.974524 110.713708 112.593500
147.376812 105.836073 107.550005 108.836801 109.021241 110.749564 112.642299
147.521739 105.877717 107.597990 108.878218 109.070444 110.796221 112.690610
147.666667 105.927543 107.643506 108.924328 109.118853 110.830145 112.719310
147.811594 105.982473 107.695149 108.986190 109.168856 110.884018 112.755942
147.956522 106.015897 107.735297 109.038745 109.217738 110.932095 112.839601
148.101449 106.059858 107.770369 109.116396 109.266976 110.966030 112.873694
148.246377 106.117375 107.820904 109.147041 109.315947 111.009219 112.909672
148.391304 106.159057 107.862855 109.206151 109.363672 111.047968 112.959036
148.536232 106.230833 107.903195 109.276105 109.412973 111.086027 112.992812
148.681159 106.261459 107.962960 109.328337 109.462515 111.140972 113.033930
148.826087 106.333126 108.017304 109.375872 109.510931 111.186646 113.085065
148.971014 106.390253 108.057474 109.414678 109.560718 111.230901 113.134738
149.115942 106.436729 108.100226 109.474992 109.608607 111.269602 113.206445
149.260870 106.496923 108.143658 109.522830 109.657900 111.321610 113.266622
149.405797 106.538333 108.193706 109.573877 109.707353 111.383153 113.342713
149.550725 106.585607 108.236920 109.631499 109.755854 111.424157 113.404245
149.695652 106.623588 108.278033 109.672974 109.803759 111.480431 113.444822
149.840580 106.688852 108.311624 109.714978 109.852373 111.526713 113.481038
149.985507 106.730160 108.356386 109.767321 109.901197 111.577109 113.534856
150.130435 106.784658 108.406280 109.819396 109.950125 111.609210 113.641100
150.275362 106.826799 108.450435 109.882623 109.999726 111.685767 113.677587
150.420290 106.857921 108.497581 109.940567 110.048685 111.720240 113.726726
150.565217 106.892736 108.531977 109.971116 110.098351 111.780403 113.770660
150.710145 106.933935 108.569939 110.025446 110.148019 111.829297 113.812150
150.855072 106.990461 108.621711 110.079019 110.197002 111.880832 113.893395
151.000000 107.039683 108.668564 110.137875 110.246916 111.933832 113.924355
151.144928 107.089544 108.724337 110.196012 110.296890 112.011528 113.965889
151.289855 107.165203 108.759055 110.253435 110.347213 112.073387 114.018500
151.434783 107.201717 108.804543 110.297988 110.397649 112.141025 114.067842
151.579710 107.279003 108.857436 110.340612 110.448866 112.187526 114.111947
151.724638 107.339482 108.895581 110.394386 110.501931 112.265947 114.202753
151.869565 107.402688 108.942391 110.450701 110.553629 112.311170 114.258214
152.014493 107.441463 108.979679 110.493522 110.603845 112.380697 114.309546
152.159420 107.478921 109.017920 110.560594 110.656318 112.432270 114.358279
152.304348 107.525516 109.062871 110.593997 110.707859 112.491747 114.417172
152.449275 107.576552 109.118026 110.643252 110.761242 112.552106 114.447421
152.594203 107.624829 109.169200 110.684224 110.813476 112.619643 114.506069
152.739130 107.683716 109.223614 110.730666 110.866564 112.676091 114.571275
152.884058 107.750900 109.269725 110.784999 110.917794 112.721562 114.605857
153.028986 107.815727 109.325400 110.845009 110.971972 112.794249 114.639038
153.173913 107.882412 109.378958 110.913533 111.026060 112.847836 114.689584
153.318841 107.950958 109.419779 110.968225 111.078935 112.896624 114.732037
153.463768 107.990713 109.455883 111.004619 111.131719 112.980544 114.790369
153.608696 108.024662 109.508442 111.039879 111.185950 113.033571 114.840036
153.753623 108.068134 109.566435 111.091389 111.239803 113.103189 114.890628
153.898551 108.125772 109.613755 111.137892 111.292021 113.147181 114.928167
154.043478 108.162653 109.654661 111.178939 111.343908 113.224604 114.978039
154.188406 108.209449 109.717525 111.218806 111.398702 113.266911 115.019849
154.333333 108.276245 109.765865 111.258812 111.451724 113.325116 115.089718
154.478261 108.332417 109.808093 111.308891 111.503108 113.375856 115.124936
154.623188 108.378420 109.861246 111.360544 111.555843 113.463648 115.172086
154.768116 108.443825 109.893847 111.420997 111.608611 113.533200 115.207603
154.913043 108.490331 109.925550 111.490999 111.659486 113.601882 115.240275
155.057971 108.544283 109.971295 111.542528 111.712752 113.656197 115.285088
155.202899 108.588414 110.016956 111.594040 111.765987 113.709120 115.404577
155.347826 108.630647 110.050030 111.641590 111.817682 113.785579 115.472349
155.492754 108.667236 110.087103 111.689150 111.870931 113.839473 115.532148
155.637681 108.694314 110.125280 111.737281 111.925170 113.892667 115.591770
155.782609 108.734582 110.174868 111.786949 111.977533 113.946502 115.644076
155.927536 108.776369 110.208205 111.842733 112.030255 114.005547 115.687078
156.072464 108.825454 110.253236 111.897942 112.082397 114.061534 115.736148
156.217391 108.900105 110.308888 111.952036 112.135698 114.151844 115.793225
156.362319 108.940812 110.341805 112.013418 112.187824 114.225029 115.821733
156.507246 109.002416 110.388806 112.055568 112.241511 114.278998 115.850841
156.652174 109.057872 110.413559 112.102069 112.294539 114.336804 115.896640
156.797101 109.119966 110.456760 112.150121 112.347451 114.401806 115.961670
156.942029 109.164021 110.503673 112.190925 112.400243 114.449615 116.051891
157.086957 109.194677 110.538525 112.227823 112.452064 114.504218 116.121557
157.231884 109.238323 110.575417 112.283529 112.504526 114.578703 116.174367
157.376812 109.303803 110.620007 112.350230 112.557859 114.645215 116.223900
157.521739 109.347208 110.665611 112.391064 112.611930 114.714855 116.266015
157.666667 109.419888 110.710321 112.450984 112.664671 114.784908 116.328920
157.811594 109.457185 110.749134 112.499158 112.718667 114.845737 116.394335
157.956522 109.521405 110.791947 112.542446 112.773351 114.917486 116.484831
158.101449 109.586128 110.821955 112.584712 112.826800 115.006994 116.550462
158.246377 109.625131 110.866834 112.648148 112.880490 115.070801 116.603779
158.391304 109.667841 110.908368 112.719953 112.934046 115.143623 116.655436
158.536232 109.713156 110.944893 112.761526 112.986397 115.214192 116.712887
158.681159 109.746585 110.999166 112.795632 113.040047 115.284948 116.793761
158.826087 109.788371 111.047994 112.863525 113.094973 115.345154 116.845472
158.971014 109.825570 111.081258 112.914721 113.149291 115.432154 116.903868
159.115942 109.872986 111.120431 112.971519 113.203601 115.490445 116.969216
159.260870 109.911607 111.160626 113.022803 113.257817 115.555785 117.076202
159.405797 109.942607 111.204985 113.079052 113.312728 115.619444 117.133702
159.550725 109.993061 111.258243 113.115488 113.369836 115.673921 117.218788
159.695652 110.034834 111.293091 113.159274 113.425179 115.739439 117.281719
159.840580 110.075255 111.344927 113.212339 113.478824 115.809135 117.323872
159.985507 110.108141 111.402792 113.251238 113.534469 115.893147 117.374832
160.130435 110.137277 111.446837 113.296617 113.591925 115.958986 117.446091
160.275362 110.220135 111.486701 113.356207 113.648594 116.020176 117.515570
160.420290 110.280129 111.529716 113.406259 113.706386 116.088724 117.570687
160.565217 110.325073 111.586369 113.456670 113.766825 116.154500 117.629148
160.710145 110.404791 111.641933 113.511688 113.827392 116.218248 117.693639
160.855072 110.499001 111.705578 113.570811 113.890850 116.285028 117.757138
161.000000 110.552448 111.791899 113.632135 113.957836 116.395797 117.816634
161.144928 110.675908 111.837347 113.672614 114.027680 116.471169 117.873078
161.289855 110.745447 111.942195 113.728496 114.100045 116.529421 117.976974
161.434783 110.866204 112.024632 113.839316 114.176075 116.598514 118.046560
161.579710 111.000752 112.096179 113.906407 114.257522 116.658881 118.136219
161.724638 111.076446 112.212436 113.992188 114.336742 116.710818 118.210471
161.869565 111.144044 112.318588 114.060189 114.416304 116.761404 118.271772
162.014493 111.250605 112.435462 114.142504 114.505085 116.821313 118.324722
162.159420 111.326999 112.566221 114.214972 114.594358 116.902534 118.458018
162.304348 111.407136 112.694324 114.336374 114.684325 116.960281 118.565870
162.449275 111.571889 112.807983 114.430084 114.773412 117.026293 118.739831
162.594203 111.677130 112.945656 114.512398 114.865409 117.089567 118.797794
162.739130 111.757126 113.023146 114.649902 114.954710 117.178300 118.856205
162.884058 111.813312 113.109242 114.736993 115.042360 117.259806 118.923075
163.028986 111.888885 113.206203 114.845794 115.131055 117.318614 118.984918
163.173913 112.006274 113.345266 114.946378 115.220441 117.410273 119.049676
163.318841 112.096819 113.464395 115.048491 115.306097 117.498464 119.153851
163.463768 112.180005 113.534488 115.117203 115.392047 117.575359 119.230720
163.608696 112.341059 113.669441 115.205013 115.479262 117.637794 119.265051
163.753623 112.397048 113.756437 115.296418 115.566276 117.701718 119.332547
163.898551 112.468776 113.828162 115.397907 115.659288 117.760425 119.381553
164.043478 112.565547 113.925807 115.493279 115.749520 117.838812 119.493182
164.188406 112.686048 114.002400 115.583563 115.838708 117.911875 119.614794
164.333333 112.824433 114.114341 115.693205 115.927708 117.997955 119.691283
164.478261 112.945642 114.199735 115.787271 116.015181 118.074049 119.816958
164.623188 113.005441 114.256207 115.882054 116.102618 118.147440 119.886155
164.768116 113.125465 114.364452 115.988988 116.189974 118.225270 120.037083
164.913043 113.188636 114.441175 116.060588 116.278398 118.282188 120.097655
165.057971 113.288258 114.533777 116.138627 116.367469 118.373243 120.181274
165.202899 113.383175 114.647247 116.234788 116.455949 118.437854 120.261841
165.347826 113.454279 114.716468 116.344107 116.544673 118.520806 120.400826
165.492754 113.518690 114.792928 116.442553 116.631916 118.617909 120.544760
165.637681 113.576883 114.851625 116.525397 116.721670 118.720469 120.585555
165.782609 113.650335 114.953056 116.606054 116.814171 118.819644 120.667414
165.927536 113.762175 115.052289 116.717516 116.904001 118.902565 120.742849
166.072464 113.830640 115.138575 116.826953 116.992652 118.991813 120.813341
166.217391 113.909099 115.209215 116.923946 117.086010 119.057830 120.906144
166.362319 113.985270 115.285541 117.016702 117.173393 119.198483 121.025110
166.507246 114.055693 115.360130 117.102269 117.258416 119.258050 121.116463
166.652174 114.165067 115.435764 117.188089 117.345017 119.355073 121.241063
166.797101 114.237260 115.529918 117.296821 117.435067 119.440254 121.358903
166.942029 114.319006 115.597328 117.381220 117.522540 119.539423 121.504016
167.086957 114.439252 115.677126 117.463335 117.611815 119.646451 121.650319
167.231884 114.491907 115.744532 117.555502 117.696580 119.736979 121.725038
167.376812 114.552078 115.809958 117.634251 117.784089 119.818550 121.782747
167.521739 114.646206 115.905526 117.716100 117.871346 119.912948 121.836361
167.666667 114.715587 116.000401 117.832660 117.963027 120.011922 121.931430
167.811594 114.781775 116.070155 117.907683 118.051568 120.083162 122.058474
167.956522 114.832530 116.132855 117.970766 118.138274 120.152158 122.135845
168.101449 114.888171 116.205023 118.061665 118.225697 120.258022 122.247892
168.246377 114.958356 116.284387 118.130715 118.314777 120.330603 122.472104
168.391304 115.029438 116.363964 118.213359 118.402324 120.445488 122.590079
168.536232 115.088638 116.428934 118.322370 118.492633 120.515205 122.772518
168.681159 115.137224 116.523419 118.389402 118.580993 120.636865 122.838103
168.826087 115.208524 116.585216 118.475597 118.667456 120.730684 122.999071
168.971014 115.264307 116.657667 118.567485 118.755643 120.841868 123.120369
169.115942 115.322847 116.732032 118.671147 118.846943 120.953693 123.330148
169.260870 115.401941 116.796445 118.752002 118.935021 121.056703 123.457919
169.405797 115.473950 116.909180 118.833272 119.025606 121.146030 123.560328
169.550725 115.555308 116.988932 118.924987 119.114834 121.296614 123.658239
169.695652 115.622481 117.055583 118.991032 119.200788 121.409441 123.739063
169.840580 115.673082 117.141570 119.083271 119.292475 121.501701 123.871546
169.985507 115.793101 117.210773 119.174765 119.382013 121.591046 123.988036
170.130435 115.868540 117.314963 119.248645 119.473779 121.699830 124.116352
170.275362 115.915128 117.417193 119.355254 119.567449 121.799261 124.269322
170.420290 115.958374 117.483811 119.475053 119.662940 121.893800 124.364887
170.565217 116.005386 117.575070 119.588657 119.758247 122.029855 124.492538
170.710145 116.058642 117.656126 119.670502 119.858175 122.116090 124.563626
170.855072 116.108416 117.725368 119.766352 119.959074 122.178807 124.703560
171.000000 116.219406 117.854478 119.879218 120.061928 122.270964 124.812000
171.144928 116.299637 117.936341 120.005203 120.164140 122.375441 124.940234
171.289855 116.415648 118.005551 120.111716 120.265838 122.469302 125.012636
171.434783 116.599594 118.196811 120.201443 120.372678 122.577511 125.114603
171.579710 116.709374 118.333424 120.317530 120.478158 122.674682 125.213339
171.724638 116.761368 118.469865 120.423202 120.588656 122.794313 125.350136
171.869565 116.835677 118.570003 120.550877 120.699265 122.876494 125.526320
172.014493 116.964124 118.680411 120.646081 120.810229 122.949983 125.618597
172.159420 117.089406 118.834777 120.757461 120.919647 123.081804 125.734773
172.304348 117.169642 118.955372 120.897378 121.031273 123.160866 125.822707
172.449275 117.372243 119.100554 121.008619 121.146682 123.261916 125.909756
172.594203 117.444553 119.283432 121.137016 121.264714 123.347455 125.985476
172.739130 117.506671 119.418406 121.256629 121.381554 123.439793 126.073690
172.884058 117.607346 119.538044 121.398226 121.497446 123.582732 126.127080
173.028986 117.678278 119.680567 121.499377 121.614795 123.676279 126.192909
173.173913 117.730253 119.817687 121.583664 121.730608 123.731034 126.259825
173.318841 117.791902 119.961862 121.667694 121.848388 123.822410 126.291768
173.463768 117.838307 120.097463 121.792554 121.967410 123.896822 126.360297
173.608696 117.904008 120.251065 121.933501 122.084274 124.019472 126.429514
173.753623 117.956748 120.354727 122.082787 122.207096 124.146207 126.505056
173.898551 118.016280 120.515621 122.218144 122.325775 124.234834 126.552281
174.043478 118.084573 120.710943 122.333311 122.443333 124.320833 126.625348
174.188406 118.133047 120.834315 122.448734 122.560106 124.454054 126.713386
174.333333 118.185221 120.973494 122.558903 122.678446 124.542906 126.817936
174.478261 118.261999 121.099778 122.700616 122.792359 124.665582 126.967816
174.623188 118.345190 121.249070 122.830638 122.903900 124.756447 127.062030
174.768116 118.400867 121.342599 122.940304 123.015760 124.876409 127.164733
174.913043 118.495370 121.480009 123.076540 123.129653 124.982643 127.229630
175.057971 118.528398 121.638070 123.184514 123.246543 125.053747 127.331324
175.202899 118.578652 121.745576 123.339354 123.366759 125.172161 127.410342
175.347826 118.622474 121.885326 123.449919 123.485730 125.307486 127.485109
175.492754 118.671931 121.998253 123.585918 123.605599 125.441082 127.575481
175.637681 118.717634 122.153615 123.729846 123.724411 125.552399 127.698583
175.782609 118.774808 122.278894 123.843676 123.839811 125.678135 127.795459
175.927536 118.868143 122.375043 123.958344 123.956017 125.822091 127.941608
176.072464 118.964480 122.482267 124.088242 124.065133 125.930378 128.066599
176.217391 119.016234 122.590908 124.210694 124.181608 126.007852 128.169638
176.362319 119.084496 122.708850 124.321173 124.294549 126.123236 128.246767
176.507246 119.143580 122.858469 124.460577 124.411702 126.262657 128.307581
176.652174 119.198247 122.952082 124.577873 124.522368 126.391921 128.420302
176.797101 119.258868 123.098596 124.685687 124.642582 126.497117 128.546828
176.942029 119.310409 123.237507 124.847334 124.761975 126.620594 128.719001
177.086957 119.356852 123.351164 124.951847 124.880777 126.754948 128.828575
177.231884 119.383715 123.455843 125.072131 124.999090 126.871493 128.951794
177.376812 119.424813 123.590371 125.182185 125.112714 126.978103 129.069900
177.521739 119.474468 123.696677 125.286897 125.233429 127.077015 129.201773
177.666667 119.528779 123.795645 125.404353 125.351429 127.161192 129.314306
177.811594 119.553931 123.899180 125.533120 125.466812 127.282760 129.459604
177.956522 119.581935 124.032605 125.675748 125.580438 127.395777 129.580305
178.101449 119.642244 124.143696 125.806888 125.697209 127.514049 129.712273
178.246377 119.690920 124.258293 125.922161 125.817205 127.638309 129.846278
