depth(m) lower_95(kyr) lower_68(kyr) median(kyr) mean(kyr) upper_68(kyr) upper_95(kyr)
2.120000 96.968991 99.443036 102.139836 102.115393 104.623737 106.937150
2.170000 99.581501 101.743932 104.105457 104.247623 106.736366 109.175697
2.220000 101.892126 104.156306 106.462188 106.585583 109.170099 111.522843
2.270000 104.746263 106.668861 109.196326 109.180684 111.696654 113.495672
2.320000 107.179974 109.709944 112.366973 112.007315 114.086917 115.613330
2.370000 111.198908 114.008412 115.517148 115.394321 116.891018 118.148034
2.420000 115.907567 117.214641 118.644784 118.679606 120.131638 121.527063
2.470000 118.437871 119.942081 121.493634 121.540016 123.187385 124.908459
2.520000 120.387223 122.026135 123.894745 123.863132 125.626007 127.202884
2.570000 122.862225 124.570698 126.414985 126.402621 128.173390 130.071936
2.620000 127.320125 128.471815 129.997682 130.112414 131.816378 133.065850
2.670000 130.035686 131.528576 133.164570 132.989037 134.377752 135.484192
2.720000 132.991521 134.487314 135.809327 135.815337 137.142108 138.603560
2.770000 135.124781 136.386897 137.706586 137.792252 139.231806 140.802936
2.820000 136.769462 138.097519 139.426244 139.512616 140.947234 142.828734
2.870000 138.123883 139.637367 141.140015 141.255242 142.827611 145.486299
2.920000 139.719410 141.184493 142.798683 143.025752 144.870530 147.926524
2.970000 141.235993 142.814600 144.672189 144.984435 147.281730 150.766059
3.020000 142.861288 144.531250 146.828609 147.184099 149.961987 153.058514
3.070000 144.240229 146.360695 149.227823 149.517889 152.726566 155.347460
3.120000 146.135912 148.596192 152.035867 151.871024 154.961128 157.208850
3.170000 147.929928 151.107067 154.350749 154.055458 156.858337 159.117293
3.220000 150.306766 153.677533 156.294527 156.134506 158.621396 160.937734
3.270000 153.245347 156.077580 158.379322 158.279152 160.563970 162.858533
3.320000 155.655924 158.415795 160.526457 160.549755 162.700863 165.495803
3.370000 158.413311 160.657134 162.775304 162.977713 165.268794 168.807747
3.420000 160.605913 162.850477 165.132089 165.512322 168.176526 172.293748
3.470000 163.013798 165.103487 167.970283 168.326326 171.329188 176.845602
3.520000 165.010544 167.503791 170.887171 171.263776 174.989893 179.750146
3.570000 167.016242 169.917922 174.127106 174.156287 178.138331 182.556531
3.620000 168.963624 172.803249 177.259611 177.055459 181.121238 184.314663
3.670000 171.350109 176.188173 179.870242 179.750212 184.028830 186.486985
3.720000 174.045679 179.021717 182.292566 182.426427 186.530959 188.394985
3.770000 177.580337 182.097592 185.029288 185.169511 188.818970 190.301008
3.820000 181.993297 185.403759 188.303567 188.017168 190.608782 192.299446
3.870000 188.096575 190.199571 191.827458 191.760287 193.470536 195.234134
3.920000 191.644656 193.093599 194.776673 194.747678 196.361109 197.746262
3.970000 194.078533 195.851552 197.459017 197.443210 198.932808 200.999104
4.020000 196.573220 198.321222 199.703240 199.865347 201.459884 203.875586
4.070000 198.651959 200.197708 201.761248 202.018161 203.991718 206.759279
4.120000 200.646213 202.008622 203.927957 204.207440 206.544703 208.964846
4.170000 202.468501 204.188202 206.497386 206.609844 209.135460 210.916488
4.220000 204.618727 206.925601 209.307205 209.107957 211.198268 212.667939
4.270000 207.200715 210.147490 212.040851 211.736559 213.322699 214.559390
4.320000 209.953594 212.571367 214.132542 213.928090 215.324863 216.743167
4.370000 212.448841 214.883051 216.159055 216.059976 217.320266 218.602103
4.420000 215.623601 217.121966 218.241397 218.315763 219.560506 221.189101
4.470000 218.153094 219.209299 220.587756 220.947972 222.810608 225.636191
4.520000 219.997554 221.062608 222.844688 223.238556 225.820390 228.163797
4.570000 221.893291 223.325823 225.401402 225.622058 228.066711 229.942667
4.620000 224.045691 225.896355 228.307027 228.162050 230.361409 231.686763
4.670000 226.917783 229.182236 231.224704 230.963763 232.653333 233.817062
4.720000 229.655993 231.973159 233.424023 233.195499 234.458549 235.430349
4.770000 232.884831 234.280836 235.465349 235.457293 236.551589 238.075914
4.820000 234.936696 236.105515 237.173278 237.280871 238.535480 240.088857
4.870000 236.669648 237.870084 239.098898 239.179131 240.566974 241.921894
4.920000 238.630873 239.942657 241.254066 241.339074 242.837562 244.106373
4.970000 240.999652 242.639093 243.966353 243.988745 245.359714 246.991995
5.020000 244.338997 245.770317 247.393627 247.532267 249.385583 251.606526
5.070000 246.538352 248.071497 249.887174 249.971742 251.779227 254.252229
5.120000 248.352393 250.147795 251.992472 252.054859 253.816794 256.556703
5.170000 249.994419 252.056034 253.812083 254.076333 255.992675 259.247182
5.220000 251.835908 254.135542 255.981272 256.399076 259.058046 262.320431
5.270000 253.951657 255.953025 258.019113 258.556091 261.711187 264.966289
5.320000 255.824636 257.895758 260.273066 260.743185 263.965152 266.898447
5.370000 257.902260 260.064861 262.853859 263.088419 266.306269 269.432264
5.420000 259.873631 262.355045 265.686929 265.626771 268.648794 272.123886
5.470000 262.062122 265.004946 268.587711 268.296288 271.158238 274.159346
5.520000 264.505377 268.087370 271.070317 270.935934 273.791142 276.223580
5.570000 268.062917 271.428348 273.842394 273.705333 276.259687 278.184598
5.620000 272.485231 274.738674 277.112165 276.918314 279.043996 280.121224
5.670000 276.535234 278.773658 280.482219 280.198676 281.471664 282.388100
5.720000 279.859723 281.478361 282.624732 282.531836 283.620363 284.482672
5.770000 281.855334 283.155239 284.163437 284.157349 285.203783 286.024123
5.820000 283.713385 284.676641 285.669258 285.641581 286.599562 287.559934
5.870000 285.198681 286.222982 287.141909 287.155174 288.054690 289.190995
5.920000 287.021181 287.804387 288.742600 288.840588 289.775594 291.318277
5.970000 288.428970 289.407413 290.492155 290.804289 292.159527 295.525759
6.020000 289.751335 290.807565 292.296870 292.934598 295.325559 299.213465
6.070000 291.216295 292.318274 294.431698 295.256163 298.805779 302.366926
6.120000 292.664883 294.170515 296.888279 297.562470 301.379358 305.110110
