depth(m) lower_95(kyr) lower_68(kyr) median(kyr) mean(kyr) upper_68(kyr) upper_95(kyr)
26.900000 98.971408 100.603568 101.908682 101.914242 103.247928 104.569226
26.985000 99.310292 100.884572 102.205327 102.171040 103.520299 104.839182
27.070000 99.559301 101.110739 102.471080 102.425779 103.753753 105.043732
27.160000 100.075234 101.435463 102.737512 102.709322 103.984037 105.346875
27.305000 100.607130 101.878435 103.203409 103.154969 104.341717 105.794028
27.450000 101.253992 102.390308 103.647768 103.609877 104.717216 106.126889
27.560000 101.570233 102.791100 103.969474 103.961668 105.082739 106.410873
27.670000 101.871497 103.225754 104.314543 104.322892 105.433304 106.665602
27.740000 102.116358 103.470270 104.520115 104.549208 105.618153 106.863185
27.876667 102.778612 103.963098 104.976787 105.005065 106.058838 107.254310
28.013333 103.366988 104.444500 105.388690 105.443184 106.494525 107.719391
28.150000 103.894448 104.966186 105.760338 105.870491 106.919077 108.333662
28.275000 104.260098 105.325849 106.091802 106.227891 107.263513 108.738784
28.400000 104.724371 105.696567 106.427807 106.576280 107.576645 109.087516
28.545000 105.288374 106.037146 106.806083 106.940286 107.886697 109.394652
28.690000 105.740749 106.390681 107.118718 107.281966 108.181320 109.751907
28.795000 106.024877 106.620854 107.361993 107.525577 108.418464 110.027563
28.900000 106.292974 106.871221 107.585521 107.761247 108.645734 110.240547
29.025000 106.561745 107.158558 107.856477 108.026335 108.903315 110.503008
29.150000 106.890318 107.445382 108.107924 108.282393 109.155094 110.750035
29.275000 107.145626 107.678405 108.364393 108.540698 109.368037 110.995496
29.400000 107.432017 107.968771 108.605729 108.790284 109.614928 111.264676
29.525000 107.705191 108.210092 108.846907 109.035204 109.839367 111.524651
29.650000 107.903832 108.487499 109.079397 109.275940 110.058078 111.791125
29.760000 108.069524 108.701338 109.302081 109.484883 110.292835 111.992398
29.870000 108.269605 108.915520 109.503372 109.695765 110.518893 112.240135
29.980000 108.489575 109.134147 109.708484 109.905219 110.709075 112.478351
30.090000 108.704331 109.348078 109.911424 110.115172 110.951152 112.680181
30.200000 108.891585 109.572238 110.112712 110.323999 111.172215 112.864860
30.310000 109.113687 109.764559 110.323285 110.537506 111.372184 113.129594
30.420000 109.326092 109.985233 110.535133 110.753724 111.602963 113.380548
30.510000 109.511761 110.169009 110.717853 110.939417 111.816188 113.611923
30.600000 109.669970 110.358972 110.906110 111.126632 111.996083 113.814814
30.640000 109.745019 110.465774 110.994403 111.217447 112.082054 113.899940
30.770000 110.018928 110.721912 111.279151 111.489479 112.321483 114.228617
30.900000 110.309042 110.970589 111.536727 111.766595 112.607439 114.519824
31.025000 110.583348 111.230942 111.786599 112.029268 112.866458 114.760217
31.150000 110.843641 111.505646 112.070087 112.303217 113.179575 115.026462
31.245000 111.153273 111.700889 112.312597 112.547374 113.420088 115.274168
31.340000 111.383844 111.937015 112.564487 112.795030 113.627576 115.482319
31.400000 111.598936 112.119279 112.760124 112.988402 113.851248 115.681820
31.525000 111.975574 112.547430 113.268731 113.483750 114.434467 115.977103
31.650000 112.418217 113.044746 113.901435 114.043332 115.079829 116.459190
31.775000 112.972861 113.641091 114.637882 114.787676 115.879636 117.255657
31.900000 113.479086 114.404956 115.463141 115.523417 116.660245 117.751949
32.000000 114.153594 115.196777 116.178593 116.242274 117.311494 118.264549
32.100000 115.027734 116.025452 116.987194 116.975690 117.999087 118.873808
32.200000 115.542139 116.520542 117.595811 117.536990 118.507817 119.478838
32.300000 116.045690 117.085647 118.096191 118.066378 118.996526 119.886343
32.400000 116.778828 117.694711 118.633245 118.586429 119.434825 120.355444
32.525000 117.336394 118.306590 119.158317 119.139282 119.974107 120.826775
32.650000 118.030215 118.935365 119.636079 119.673913 120.492065 121.374306
32.750000 118.290807 119.338783 119.950881 120.016728 120.806621 121.687717
32.850000 118.651488 119.653775 120.252087 120.332982 121.123849 121.968432
32.900000 118.825283 119.787332 120.391593 120.474187 121.280415 122.190104
33.025000 119.116950 120.105305 120.677681 120.779675 121.574154 122.532958
33.150000 119.506429 120.388681 120.969902 121.079345 121.873448 122.903774
33.275000 119.963496 120.695317 121.276899 121.398474 122.167848 123.212009
33.400000 120.368303 120.995643 121.599857 121.722725 122.465312 123.656355
33.500000 120.704795 121.234350 121.847168 121.974291 122.715800 123.916160
33.600000 121.005244 121.480807 122.091434 122.230528 122.964048 124.217423
33.650000 121.206137 121.617452 122.238639 122.364446 123.067144 124.323036
33.725000 121.411200 121.796869 122.450734 122.559019 123.262749 124.581998
33.800000 121.621957 121.992304 122.662473 122.748831 123.432655 124.762355
33.900000 121.856989 122.225077 122.928914 122.995991 123.674218 125.025497
34.000000 122.108267 122.456170 123.162409 123.236815 123.919105 125.234893
34.100000 122.352013 122.699990 123.411439 123.477592 124.139260 125.487105
34.150000 122.465736 122.820849 123.528092 123.604015 124.263735 125.585253
34.250000 122.702725 123.036542 123.795127 123.837854 124.503557 125.804564
34.350000 122.909724 123.265454 124.032219 124.078791 124.749891 125.992705
34.400000 123.005437 123.389464 124.158861 124.206434 124.876963 126.097782
34.495000 123.210655 123.595854 124.425444 124.442743 125.137598 126.314684
34.590000 123.416197 123.831034 124.679250 124.684389 125.377747 126.500277
34.650000 123.600848 123.986523 124.848695 124.847345 125.518419 126.681036
34.760000 123.849635 124.259881 125.135586 125.139496 125.858953 126.886438
34.870000 124.141749 124.567535 125.437779 125.432262 126.184653 127.142257
34.985000 124.374750 124.870320 125.721413 125.735605 126.517408 127.407407
35.100000 124.693573 125.188728 126.044740 126.051328 126.827382 127.672606
35.240000 125.049110 125.611933 126.407638 126.436836 127.246395 128.072933
35.380000 125.404732 125.987376 126.794080 126.816474 127.628906 128.425151
35.522000 125.708576 126.407963 127.185459 127.213629 128.034999 128.804285
35.664000 126.066735 126.824083 127.574485 127.615613 128.474661 129.271733
35.806000 126.403422 127.228486 128.004669 128.040977 128.895276 129.652319
35.948000 126.808223 127.613721 128.427565 128.446232 129.314379 130.055047
36.090000 127.193363 128.052655 128.855675 128.858223 129.700123 130.463414
36.175000 127.420669 128.299445 129.129330 129.114306 129.944483 130.705101
36.260000 127.622652 128.561246 129.391950 129.375861 130.229573 130.872659
36.375000 127.984940 128.895735 129.778328 129.733562 130.579190 131.252083
36.490000 128.389495 129.192365 130.137829 130.087563 130.933111 131.592660
36.600000 128.720094 129.548348 130.546727 130.459464 131.298466 131.936565
36.680000 128.963096 129.854823 130.848391 130.744339 131.562255 132.165037
36.760000 129.203581 130.119484 131.170728 131.048444 131.888009 132.425883
36.880000 129.654243 130.576606 131.622809 131.500718 132.295378 132.926190
37.010000 130.187428 131.303147 132.104990 132.010706 132.766343 133.358219
37.070000 130.355898 131.500925 132.338960 132.240917 133.003834 133.568150
37.165000 130.805893 131.891299 132.704159 132.613008 133.347065 133.923489
37.260000 131.168688 132.323277 133.075073 132.997093 133.673837 134.247546
37.350000 131.538232 132.711017 133.464370 133.391342 134.052697 134.634789
37.430000 132.095878 133.063198 133.795558 133.722401 134.369158 134.936280
37.510000 132.406042 133.400313 134.108292 134.041257 134.663447 135.216924
37.635000 133.145016 133.959988 134.590548 134.569611 135.191682 135.831646
37.760000 133.758261 134.424102 135.050631 135.068651 135.733752 136.424270
37.880000 134.175205 134.883676 135.521386 135.541329 136.210948 136.998972
38.000000 134.689356 135.282179 135.943574 135.990632 136.725601 137.607016
38.100000 134.967926 135.604323 136.327865 136.341031 137.103714 137.969078
38.236667 135.304303 136.044307 136.760947 136.811221 137.605496 138.548107
38.373333 135.882953 136.456913 137.224302 137.284752 138.104154 139.216779
38.510000 136.246697 136.859916 137.662432 137.756712 138.691289 139.780708
38.635000 136.558987 137.240306 138.071662 138.195263 139.175663 140.342649
38.760000 136.979183 137.622449 138.528034 138.639545 139.664279 140.790222
38.850000 137.282927 137.914761 138.851090 138.967266 139.998868 141.254849
38.986667 137.673809 138.363342 139.320217 139.466787 140.580638 141.938235
39.123333 138.082333 138.798197 139.830266 139.949189 141.083358 142.442446
39.260000 138.515050 139.226464 140.367698 140.461296 141.683039 142.981848
39.385000 138.905101 139.675633 140.868261 140.978366 142.284455 143.538998
39.510000 139.290653 140.146852 141.399482 141.525711 142.911621 144.423650
39.585000 139.577512 140.473156 141.737472 141.867084 143.285569 144.751409
39.660000 139.876826 140.838460 142.090398 142.231756 143.660705 145.042511
39.792000 140.418714 141.602569 142.928078 143.064677 144.617341 146.145638
39.924000 140.992939 142.375381 143.780917 143.951885 145.516834 147.569151
40.056000 141.728563 143.127327 144.693176 144.819099 146.473856 149.154144
40.188000 142.372129 143.942502 145.498971 145.712778 147.331754 150.712073
40.320000 142.972065 144.715951 146.341642 146.572639 148.132506 152.111452
40.440000 143.799742 145.284663 146.892058 147.237228 148.861159 153.439763
40.560000 144.348756 145.908180 147.433365 147.906438 149.685154 154.699686
40.700000 144.952961 146.490278 148.046281 148.665181 150.541251 156.747660
40.840000 145.554886 147.092102 148.618386 149.386451 151.244565 158.417588
40.955000 145.952259 147.590263 149.155231 149.977424 151.879360 159.653256
41.070000 146.434714 148.116203 149.591251 150.521825 152.413446 160.764378
41.210000 147.034488 148.666307 150.155260 151.192488 153.270991 161.574528
41.350000 147.675417 149.253391 150.735806 151.860314 154.052740 162.357837
41.455000 148.058843 149.683284 151.185298 152.357166 154.562354 163.003624
41.560000 148.342207 150.067295 151.705573 152.871129 155.287928 163.378508
41.690000 148.716885 150.522060 152.515424 153.555911 156.215496 163.829525
41.820000 149.158999 150.996106 153.207543 154.240974 157.160287 164.403004
41.945000 149.535123 151.461690 154.096302 154.967583 158.221433 164.958976
42.070000 149.827862 151.901962 155.014561 155.699527 159.370263 165.484764
42.195000 150.243594 152.278453 155.978818 156.430060 160.396910 165.855680
42.320000 150.680292 152.877024 156.819059 157.195057 161.200274 166.493890
42.445000 151.240744 153.332165 157.829054 157.976732 161.992140 167.054493
42.570000 151.684907 153.829018 158.839948 158.780890 163.113213 167.775845
42.710000 152.241169 154.498681 159.955084 159.743930 164.488842 168.571286
42.850000 152.767372 155.146724 160.967341 160.694328 165.624575 169.741338
42.985556 153.227050 156.174155 161.806278 161.553249 166.532987 170.822473
43.121111 153.654521 156.956472 162.558941 162.428163 167.368618 171.884743
43.256667 154.233974 157.874379 163.513013 163.265616 168.271185 172.879713
43.392222 154.938908 158.747099 164.334090 164.150258 169.039356 173.929308
43.527778 155.631242 159.599074 165.089299 165.003682 169.901594 174.820848
43.663333 156.311871 160.488598 165.987349 165.886340 171.023094 175.889288
43.798889 157.118440 161.430473 166.774932 166.828071 172.059525 176.787794
43.934444 158.066847 162.579240 167.681158 167.785602 173.097307 178.111079
44.070000 159.219198 163.698942 168.627437 168.769616 174.072012 178.922069
44.212308 160.322908 164.528241 169.570952 169.776777 175.080641 180.511931
44.354615 161.282126 165.710053 170.641069 170.821593 176.274130 181.243809
44.496923 162.201957 166.778422 171.796725 171.883681 177.215329 181.673111
44.639231 163.388171 168.008231 172.747803 172.911499 178.062308 182.557837
44.781538 164.753878 169.082028 173.911746 173.994660 178.944038 183.677175
44.923846 165.697393 170.440627 174.920789 175.069961 179.701406 184.672289
45.066154 167.514993 171.788579 176.041033 176.165342 180.903314 185.231385
45.208462 169.026588 173.036789 177.122064 177.260843 181.772825 185.742253
45.350769 170.146679 174.220037 178.047876 178.311487 182.670443 186.574933
45.493077 171.805277 175.432308 179.267130 179.424544 183.785618 187.432890
45.635385 173.131734 176.716562 180.350750 180.580947 184.763316 188.014063
45.777692 174.832166 178.023735 181.591005 181.682330 185.494072 188.754417
45.920000 176.541894 179.624592 182.572978 182.808283 186.394782 189.331518
46.062308 177.776832 180.984178 183.773135 183.950928 187.257654 190.141566
46.204615 179.310085 182.095774 184.893594 185.023469 188.111129 190.801683
46.346923 180.649522 183.413162 186.053204 186.073459 188.845269 191.473638
46.489231 182.019785 184.598400 187.064823 187.135199 189.727837 192.377921
46.631538 183.443030 185.855147 188.189385 188.232827 190.644700 193.081125
46.773846 184.910273 187.102734 189.389502 189.355143 191.680629 193.708516
46.916154 186.375514 188.301351 190.395459 190.411336 192.595168 194.368498
47.058462 187.830027 189.547139 191.466800 191.496694 193.454353 195.285082
47.200769 189.179153 190.759515 192.562601 192.564468 194.349109 196.016090
47.343077 190.368872 191.927062 193.595518 193.579163 195.243032 196.658363
47.485385 191.510572 193.196660 194.644962 194.629022 196.108524 197.409275
47.627692 192.920651 194.286406 195.581878 195.609868 196.977028 198.089234
47.770000 194.068702 195.496684 196.579153 196.549815 197.697684 198.586298
47.875000 194.760573 196.120287 197.143877 197.119351 198.201592 199.041079
47.980000 195.524890 196.669463 197.664132 197.655954 198.652413 199.395152
48.020000 195.649528 196.855467 197.812604 197.797907 198.803187 199.497312
48.130000 196.174089 197.243202 198.187773 198.152379 199.136900 199.764114
48.240000 196.487212 197.634389 198.552954 198.495752 199.450726 200.052542
48.360000 196.937283 197.988752 198.904863 198.839384 199.741024 200.309277
48.480000 197.314807 198.313350 199.236116 199.176388 200.056180 200.617085
48.620000 197.654219 198.640820 199.621732 199.516639 200.379620 200.891796
48.760000 197.908918 198.954111 199.981735 199.851495 200.698404 201.200476
48.875000 198.159142 199.252605 200.264203 200.128966 200.963384 201.410556
48.990000 198.341734 199.522093 200.561356 200.392245 201.189454 201.672682
49.110000 198.582412 199.789734 200.866183 200.676436 201.473661 201.962229
49.230000 198.843209 200.046480 201.160108 200.950496 201.710366 202.139400
49.375000 199.069198 200.457196 201.472448 201.272687 202.005587 202.436705
49.520000 199.314216 200.821043 201.797663 201.587894 202.303454 202.764538
49.540000 199.358048 200.859815 201.840093 201.635647 202.343496 202.788537
49.660000 199.672671 201.151390 202.078410 201.882298 202.560527 203.014833
49.780000 200.049513 201.414391 202.299153 202.121381 202.764851 203.241173
49.918000 200.325244 201.715350 202.542010 202.385444 202.995693 203.502410
50.056000 200.665369 202.021698 202.790539 202.648907 203.225934 203.716975
50.194000 200.960898 202.295034 203.042154 202.908356 203.461688 203.947848
50.332000 201.287775 202.561427 203.305132 203.173460 203.695817 204.163008
50.470000 201.582564 202.863427 203.573154 203.431416 203.949450 204.404855
50.555000 201.709296 203.055211 203.736014 203.597600 204.101148 204.594591
50.640000 201.907114 203.224776 203.897540 203.760291 204.258909 204.824651
50.743333 202.127509 203.412526 204.090895 203.959145 204.446256 205.043125
50.846667 202.354470 203.617453 204.287182 204.156106 204.632414 205.255291
50.950000 202.573968 203.843882 204.470525 204.353585 204.820610 205.432906
51.070000 202.893892 204.088459 204.691660 204.582191 205.031461 205.656858
51.190000 203.214131 204.349453 204.911081 204.811059 205.258582 205.909545
51.330000 203.533707 204.597579 205.166017 205.062429 205.485342 206.171599
51.470000 203.835096 204.862810 205.407456 205.319297 205.716622 206.494121
51.585000 204.012167 205.150624 205.600008 205.533166 205.900967 206.729341
51.700000 204.216319 205.371675 205.805772 205.746445 206.089395 207.005585
51.790000 204.374526 205.544695 205.973616 205.918354 206.234823 207.189724
51.880000 204.615061 205.748606 206.140996 206.091506 206.402527 207.498829
52.010000 204.876306 205.997978 206.369080 206.330715 206.639540 207.790142
52.140000 205.005433 206.245280 206.587374 206.566614 206.868474 208.151480
52.243333 205.256232 206.414285 206.764387 206.748359 207.046164 208.364576
52.346667 205.453775 206.610596 206.935333 206.929670 207.218980 208.522612
52.450000 205.609991 206.810617 207.104742 207.112519 207.403180 208.721912
52.570000 205.770222 207.007215 207.299027 207.320147 207.617561 209.080723
52.690000 206.002443 207.210906 207.495145 207.528202 207.813981 209.311550
52.830000 206.348209 207.442294 207.723465 207.763960 208.037130 209.657567
52.970000 206.661190 207.648398 207.950139 207.995238 208.271241 209.956041
53.085000 206.907958 207.839930 208.136195 208.192976 208.459617 210.162503
53.200000 207.119991 208.040875 208.326248 208.391916 208.665213 210.378335
53.335000 207.463908 208.250931 208.543443 208.618054 208.904576 210.656680
53.470000 207.656281 208.475684 208.772964 208.846981 209.110928 210.946685
53.580000 207.863524 208.656754 208.950013 209.035910 209.335772 211.161713
53.690000 208.019938 208.826343 209.131275 209.227404 209.513878 211.355289
53.820000 208.285383 209.048334 209.346858 209.450057 209.743956 211.561016
53.950000 208.489228 209.254655 209.548793 209.674176 209.998603 211.928012
54.070000 208.847483 209.453452 209.750878 209.885571 210.229951 212.141596
54.190000 209.137325 209.648723 209.948478 210.105004 210.499693 212.323851
54.330000 209.451064 209.882006 210.193372 210.358880 210.763514 212.632018
54.470000 209.710422 210.111298 210.442752 210.616103 211.035791 212.945492
54.585000 209.846026 210.312138 210.643121 210.840118 211.336189 213.269999
54.700000 210.069790 210.505509 210.872502 211.077414 211.593264 213.510270
54.840000 210.308943 210.742817 211.132417 211.354677 211.971493 213.803320
54.980000 210.545732 210.969017 211.405713 211.641840 212.352296 214.029085
55.085000 210.746850 211.163647 211.624959 211.874021 212.668068 214.234870
55.190000 210.936306 211.350905 211.852682 212.112319 212.939404 214.404818
55.320000 211.150345 211.593700 212.155077 212.398147 213.288906 214.645820
55.450000 211.327793 211.825269 212.457053 212.683757 213.671109 214.936663
55.570000 211.583649 212.038434 212.729543 212.950694 213.976281 215.276682
55.690000 211.821068 212.260912 213.036724 213.220462 214.276216 215.592644
55.830000 212.046231 212.559945 213.385501 213.545683 214.733782 215.729771
55.970000 212.331012 212.875375 213.699271 213.868439 215.082718 216.012948
56.090000 212.569557 213.131293 214.013203 214.137904 215.356444 216.345668
56.210000 212.766396 213.385836 214.293707 214.398515 215.619075 216.548765
56.330000 213.026019 213.646205 214.563975 214.664536 215.876527 216.728983
56.450000 213.309990 213.913380 214.818025 214.929492 216.075133 216.909262
56.594000 213.639981 214.266000 215.117316 215.237489 216.319679 217.176204
56.738000 213.915373 214.594466 215.433706 215.540722 216.600279 217.404658
56.882000 214.244889 214.946284 215.721393 215.852128 216.873908 217.646113
57.026000 214.579159 215.270781 216.059296 216.160842 217.133316 217.852046
57.170000 214.850813 215.613256 216.374479 216.466808 217.387209 218.095341
57.305000 215.194715 215.904118 216.674163 216.748997 217.650464 218.438629
57.440000 215.517952 216.164058 216.999662 217.040167 217.920275 218.686336
57.575000 215.821150 216.452723 217.315219 217.319194 218.150858 218.985173
57.710000 216.208319 216.759323 217.624964 217.613288 218.424814 219.228841
57.840000 216.445730 217.007947 217.900617 217.881560 218.658869 219.562121
57.970000 216.679036 217.241352 218.161950 218.152453 218.966366 219.962404
