depth(m) lower_95(kyr) lower_68(kyr) median(kyr) mean(kyr) upper_68(kyr) upper_95(kyr)
4.390000 96.337972 98.638133 100.839106 100.748934 102.969827 104.888348
4.490000 98.765485 100.970915 103.384455 103.325409 105.574604 107.789376
4.585000 100.909986 103.337431 105.720533 105.678171 108.168082 110.133051
4.680000 103.326607 105.629871 108.048170 108.049450 110.494651 112.161869
4.780000 105.918857 108.247652 110.848981 110.596356 112.760794 114.023255
4.880000 108.469716 111.415495 113.647904 113.289865 115.072675 116.116989
4.970000 111.432888 113.956387 115.679415 115.611262 117.082596 119.001174
5.060000 115.587656 116.739571 117.979234 118.256403 119.353206 126.207967
5.170000 117.825235 119.554696 121.842063 122.238709 124.686596 129.801761
5.280000 120.509134 123.473744 126.534856 126.542690 129.540700 132.580956
5.380000 129.326612 131.052680 133.389612 133.130184 134.971384 136.374085
5.480000 132.537150 134.195035 135.595626 135.512336 136.802515 138.171267
5.580000 134.663025 136.054286 137.289209 137.261306 138.387614 139.843506
5.680000 136.445599 137.621511 138.779148 138.792709 139.877449 141.316201
5.780000 137.849109 139.033056 140.233332 140.293476 141.411249 143.049550
5.880000 139.322274 140.618635 141.783323 141.938372 143.236939 145.289066
5.980000 140.743358 142.251645 143.629612 143.957668 145.565461 149.200130
6.080000 142.486068 144.007791 145.871746 146.469302 149.318580 152.792180
6.170000 143.983329 145.682739 148.411328 148.858164 152.085451 155.498330
6.270000 145.556736 147.695851 151.664064 151.540509 155.361936 157.698470
6.370000 147.321836 150.359581 154.390273 154.080271 157.683258 159.643009
6.470000 149.855712 153.436706 156.985323 156.586593 159.587737 161.708360
6.570000 152.780333 156.376522 159.387083 159.100017 161.685410 163.731747
6.670000 155.850487 159.503482 161.874413 161.717183 164.028964 166.179398
6.770000 160.117400 162.411042 164.467729 164.541109 166.700529 169.282460
6.840000 162.266586 164.127958 166.359431 166.448236 168.613160 171.541463
6.870000 163.037295 164.838936 167.064386 167.186096 169.497146 172.300887
6.955000 164.586887 166.660796 168.952408 169.095979 171.663768 174.553311
7.040000 166.353286 168.476353 170.681616 170.984213 173.831051 176.252798
7.070000 167.106153 169.186470 171.411475 171.702832 174.577950 176.836318
7.140000 168.629880 170.722798 173.238449 173.335008 176.003764 178.128302
7.170000 169.190055 171.457325 174.033012 174.043151 176.672073 178.656139
7.240000 170.606947 172.846823 175.768261 175.533856 178.125080 179.708176
7.270000 171.337869 173.489085 176.412242 176.179781 178.751897 180.259511
7.340000 172.977679 175.245646 177.654284 177.569721 179.918756 181.631444
7.370000 173.675738 176.023420 178.320979 178.224973 180.427552 182.203799
7.440000 175.321529 177.631433 179.648466 179.607316 181.665552 183.379616
7.470000 176.192747 178.217604 180.270091 180.210633 182.222964 183.921281
7.540000 177.491941 179.604555 181.559137 181.480464 183.381258 184.955104
7.570000 178.135977 180.225647 182.190038 182.078260 183.944768 185.502568
7.640000 179.498016 181.712075 183.570396 183.404581 185.033323 186.568009
7.740000 182.122109 183.968266 185.508130 185.393945 186.777208 187.977235
7.760000 182.653345 184.479132 185.931036 185.841330 187.222837 188.277196
7.840000 184.751824 186.329433 187.681876 187.523805 188.739114 189.627391
7.860000 185.326707 186.812373 188.149867 188.030446 189.186330 190.043354
7.940000 188.095845 189.115344 190.066837 190.036442 190.976421 191.843334
7.960000 188.642526 189.589651 190.505520 190.509630 191.434565 192.295914
8.040000 190.156700 191.105742 192.026463 192.063129 193.010222 194.101602
8.060000 190.573837 191.506500 192.486842 192.515436 193.505528 194.553073
8.140000 192.000145 192.940223 193.893224 193.979533 195.027089 196.140499
8.240000 193.505431 194.594965 195.742716 195.803328 196.806137 198.410979
8.340000 195.436280 196.672001 197.842425 198.096254 199.310949 202.701766
8.440000 197.737238 198.766713 200.141117 200.574840 202.239454 206.678434
8.540000 199.143921 200.418545 202.551051 203.236905 206.629656 209.438595
8.640000 200.573034 202.119318 205.337968 205.635994 209.462294 211.366958
8.740000 202.169823 204.180367 208.758049 208.170010 211.492771 213.093700
8.840000 203.940008 207.375825 211.220432 210.545771 213.143518 214.480385
8.940000 206.068318 210.720499 213.089248 212.609954 214.659287 215.860128
9.040000 207.698711 212.964439 214.915557 214.462685 216.214960 217.382289
9.140000 209.977437 215.025419 216.740950 216.341302 217.955669 219.183908
9.240000 213.734888 216.959142 218.467662 218.345983 219.941539 221.656763
9.340000 218.778960 219.916076 221.360623 221.642124 223.551193 225.770446
9.440000 220.681967 222.094160 224.030630 224.280979 226.585486 229.206013
9.540000 222.682198 224.370048 226.642164 226.854328 229.491539 231.609648
9.640000 224.836183 227.171633 229.879654 229.866797 232.699440 234.236620
9.740000 227.572403 230.544037 233.334977 232.940884 235.184966 236.485769
9.840000 233.128701 234.997671 236.212645 236.094800 237.215361 238.358554
9.940000 236.907506 237.670716 238.439474 238.467286 239.292434 240.020623
9.960000 237.516089 238.152645 238.875722 238.916086 239.696317 240.516897
10.040000 238.832254 239.594471 240.376682 240.412628 241.232097 242.228617
10.060000 239.214322 240.036364 240.918160 240.966287 241.862688 242.908139
10.160000 241.719745 243.093078 244.744747 244.877984 246.578422 248.932260
10.260000 244.115596 245.556169 247.430232 247.720170 249.784276 253.092247
10.360000 246.224422 247.610749 249.602861 250.009352 252.522430 255.756617
10.450000 248.150013 249.691147 251.807296 252.136151 254.649035 257.512586
10.550000 250.105471 251.949758 254.126972 254.369546 256.955636 259.594692
10.650000 252.055979 254.153180 256.446456 256.581268 258.944265 261.661186
10.750000 254.046667 256.141650 258.574247 258.610267 260.947401 263.919564
10.850000 255.876454 257.917799 260.328181 260.460875 262.955669 265.667196
10.950000 257.664270 259.600951 262.437123 262.338333 264.878832 267.487890
11.050000 259.478826 261.394897 264.220461 264.212979 266.866700 269.457242
11.150000 261.383065 263.502348 266.268440 266.199777 268.870595 271.200593
11.250000 263.174950 265.727071 268.267012 268.276794 271.064393 273.173291
11.350000 265.403910 268.035609 270.412786 270.416546 272.912570 274.976250
11.450000 267.986216 270.622504 272.990679 272.893629 275.194928 276.917679
11.550000 271.303618 273.675721 276.050535 275.832617 277.934327 279.323613
11.650000 275.309530 277.954138 279.828212 279.534335 280.959764 282.177947
11.750000 280.196849 282.048395 283.560178 283.450759 284.882272 286.098286
11.850000 282.887139 284.725198 286.076449 285.954539 287.220964 288.360124
11.940000 285.474126 286.935674 288.076373 287.997996 289.088621 290.105389
12.040000 288.232358 289.154214 290.199041 290.236710 291.321231 292.686499
12.140000 290.012552 290.794142 291.882276 292.016952 293.219360 294.701770
12.240000 291.556550 292.406067 293.554238 293.736706 295.095174 296.700501
12.340000 293.074343 293.950807 295.284012 295.490525 297.006728 299.030762
12.440000 294.671726 295.743497 297.233247 297.506354 299.141093 301.852150
