depth(m) lower_95(kyr) lower_68(kyr) median(kyr) mean(kyr) upper_68(kyr) upper_95(kyr)
57.350000 1400.366155 1401.272938 1402.123536 1402.113287 1402.968772 1403.765079
57.425000 1402.305050 1403.352337 1404.546865 1404.797107 1406.168616 1408.647138
57.500000 1404.332392 1405.616678 1407.321962 1407.444465 1409.251636 1411.368955
57.585000 1405.938963 1407.510527 1409.758330 1409.739002 1411.799069 1413.818572
57.670000 1407.683244 1409.486494 1411.888478 1411.820623 1413.940043 1416.093850
57.800000 1410.017440 1412.529238 1414.806080 1414.766604 1417.049815 1419.628747
57.930000 1412.443145 1415.434302 1417.646382 1417.671782 1420.100244 1422.251650
58.030000 1414.598810 1417.729143 1420.068545 1420.059617 1422.678995 1424.712660
58.140000 1418.053488 1420.941242 1423.445719 1423.581822 1426.167359 1429.894510
58.250000 1422.466035 1424.811756 1427.060940 1427.478417 1429.833345 1435.696662
58.325000 1425.153407 1427.462881 1430.058111 1430.512382 1433.552815 1438.761139
58.400000 1427.673964 1430.098566 1433.022956 1433.455493 1437.012487 1441.537839
58.475000 1429.401738 1432.195886 1435.601240 1435.939099 1439.750865 1444.332227
58.550000 1431.419071 1434.206807 1438.101646 1438.327133 1442.485925 1446.179764
58.625000 1433.359444 1436.452291 1440.875774 1440.829636 1445.164788 1448.254189
58.700000 1435.439681 1439.129940 1443.474842 1443.299988 1447.412192 1450.162408
58.800000 1438.315269 1443.113707 1447.068368 1446.718977 1450.240367 1452.259564
58.900000 1443.351259 1447.317378 1450.477003 1450.025522 1452.570597 1454.353332
59.000000 1448.256619 1451.332344 1453.026854 1452.900584 1454.624170 1456.461976
59.140000 1452.464116 1454.108693 1455.486264 1455.477655 1456.964625 1458.450414
59.210000 1453.840888 1455.159005 1456.618854 1456.639542 1458.061246 1459.557619
59.290000 1455.008962 1456.425072 1457.922178 1457.905773 1459.380512 1460.890087
59.370000 1456.260229 1457.746114 1459.116110 1459.162290 1460.616060 1462.072753
59.450000 1457.618180 1459.024485 1460.454093 1460.469109 1461.927286 1463.330776
59.535000 1458.887393 1460.459558 1461.925135 1461.982560 1463.510930 1465.250665
59.620000 1460.607151 1462.055794 1463.536852 1463.604815 1465.136999 1467.183930
59.760000 1463.132894 1464.971932 1466.734948 1467.024315 1469.040950 1472.682338
59.900000 1466.178299 1467.982351 1470.265432 1470.625087 1473.250903 1476.848930
60.000000 1467.808923 1470.111580 1472.765679 1473.109593 1476.105498 1480.380144
60.100000 1470.048007 1472.191438 1475.097276 1475.428996 1478.785235 1482.382728
60.200000 1472.042540 1474.363846 1477.402058 1477.737704 1481.305701 1484.661996
60.300000 1473.864863 1476.495156 1479.868189 1479.978706 1483.630768 1486.375750
60.400000 1475.866000 1478.693537 1482.302504 1482.232422 1485.647569 1488.272979
60.500000 1477.847232 1481.279667 1484.628754 1484.523318 1487.788749 1490.005606
60.575000 1479.381599 1483.188088 1486.889705 1486.408624 1489.379191 1491.305113
60.650000 1481.861903 1485.503143 1488.997397 1488.496459 1491.216807 1492.855669
60.760000 1486.620280 1490.154705 1492.863965 1492.616267 1495.037225 1497.372229
60.870000 1493.675634 1495.105759 1496.591484 1496.692547 1498.361534 1500.159712
60.950000 1495.421392 1496.808558 1498.306572 1498.425181 1500.097895 1501.574738
61.035000 1496.936594 1498.251053 1499.858495 1499.933302 1501.619988 1503.067235
61.120000 1498.253608 1499.756831 1501.308949 1501.332972 1503.028402 1504.383735
61.250000 1500.314152 1501.780225 1503.509041 1503.475092 1505.179427 1506.690789
61.325000 1501.316677 1503.069990 1504.869978 1504.790298 1506.452882 1508.084601
61.400000 1502.807092 1504.458585 1506.275593 1506.173385 1507.769604 1509.420962
61.480000 1504.391621 1505.997409 1507.677135 1507.663628 1509.307254 1511.173680
61.550000 1505.659326 1507.472866 1509.090347 1509.229869 1511.008714 1513.473772
61.625000 1507.297758 1509.201728 1511.103746 1511.304392 1513.447800 1516.603602
61.700000 1509.120651 1511.086464 1513.079909 1513.364057 1515.574786 1518.861288
61.775000 1510.563543 1512.752449 1514.888472 1515.197581 1517.908667 1520.722477
61.850000 1512.168595 1514.176395 1516.673366 1516.964085 1519.804710 1522.773854
61.925000 1513.418940 1515.738274 1518.577928 1518.745560 1521.911578 1524.539800
62.000000 1514.903856 1517.400796 1520.500258 1520.617824 1523.843709 1526.383146
62.080000 1516.640395 1519.417827 1522.787280 1522.708201 1525.812414 1528.489843
62.180000 1518.546118 1522.253849 1525.770151 1525.509646 1528.612551 1531.283462
62.280000 1520.876916 1525.374074 1528.544281 1528.278814 1531.275344 1533.376497
62.380000 1524.481861 1528.553618 1531.183477 1530.963237 1533.437819 1535.761413
62.490000 1527.627868 1530.776669 1533.198995 1533.095200 1535.482662 1537.919889
62.600000 1529.675337 1532.677822 1535.035977 1535.005038 1537.361206 1539.637178
62.710000 1532.355314 1534.663261 1536.931937 1536.938219 1539.277606 1541.593885
62.785000 1533.770812 1535.974754 1538.301692 1538.330480 1540.740397 1543.343393
62.860000 1535.078611 1537.306695 1539.625022 1539.693557 1542.046216 1544.901107
62.985000 1537.294050 1539.511472 1541.806638 1541.963479 1544.444496 1547.960667
63.110000 1539.701979 1541.644788 1544.073737 1544.320859 1546.923532 1550.332373
63.220000 1541.676769 1543.669673 1546.299989 1546.597747 1549.641579 1553.124316
63.326667 1543.354906 1545.824066 1548.604475 1548.928804 1552.284725 1555.487683
63.433333 1545.017098 1547.813098 1551.280871 1551.220467 1554.694007 1557.366702
63.540000 1546.903206 1550.077340 1553.953583 1553.644757 1557.202466 1559.461064
63.620000 1548.789342 1551.875768 1555.773107 1555.496916 1559.037708 1560.732602
63.690000 1550.182936 1553.553329 1557.512339 1557.105639 1560.510975 1562.224070
63.775000 1552.114258 1555.613855 1559.368600 1558.889463 1562.018746 1563.840724
63.860000 1553.701364 1557.500994 1561.076854 1560.538892 1563.330102 1565.215626
63.990000 1557.162726 1560.307345 1563.310592 1562.857907 1565.246741 1566.803013
64.120000 1559.868929 1562.999134 1565.507708 1565.179862 1567.280885 1568.763982
64.210000 1561.996708 1564.839503 1567.218841 1566.932651 1568.898471 1570.328892
64.285000 1564.250376 1566.942702 1568.783375 1568.600865 1570.268898 1571.818057
64.360000 1566.544260 1568.758415 1570.278474 1570.182048 1571.693280 1573.164666
64.440000 1568.680888 1570.282469 1571.643793 1571.658563 1573.121811 1574.446425
64.525000 1570.191632 1571.615988 1572.961770 1572.986233 1574.444690 1575.667297
64.610000 1571.643003 1572.900648 1574.230679 1574.261130 1575.667142 1577.001587
64.740000 1573.342261 1574.674735 1576.040648 1576.058758 1577.497248 1578.747938
64.815000 1574.403830 1575.722937 1577.089930 1577.151301 1578.598558 1580.093194
64.890000 1575.579275 1576.763842 1578.214413 1578.278081 1579.725229 1581.302055
65.020000 1577.239135 1578.651488 1580.115015 1580.256910 1581.887894 1583.849592
65.105000 1578.373694 1579.995254 1581.572161 1581.679718 1583.363556 1585.927686
65.190000 1579.802358 1581.261861 1582.973411 1583.163342 1585.052426 1587.903408
65.265000 1581.040097 1582.558759 1584.313246 1584.561447 1586.609432 1589.618791
65.340000 1582.120137 1583.869805 1585.775663 1585.976289 1588.199896 1591.097473
65.440000 1583.593995 1585.445775 1587.453210 1587.738426 1590.194315 1592.817495
65.540000 1585.244598 1587.069286 1589.134206 1589.449205 1591.924637 1594.395304
65.640000 1586.950730 1588.725870 1591.022041 1591.180527 1593.728351 1596.327393
65.710000 1588.284971 1589.947543 1592.468728 1592.555849 1595.080843 1597.419001
65.835000 1590.398284 1592.521464 1595.371192 1595.282988 1597.924911 1600.104062
65.960000 1592.558021 1595.130663 1598.128756 1597.940838 1600.682859 1602.650204
66.090000 1594.634788 1597.636913 1600.539178 1600.367622 1603.027436 1605.281796
66.220000 1597.382419 1599.994425 1602.789430 1602.731195 1605.409636 1607.524827
66.305000 1598.877279 1601.793369 1604.448668 1604.389463 1606.967773 1609.590058
66.390000 1600.781595 1603.827323 1606.222738 1606.195396 1608.572056 1611.295143
66.520000 1603.394084 1606.821423 1609.284310 1609.269222 1611.651083 1615.341532
66.605000 1605.457833 1608.437667 1611.056421 1611.134456 1613.728379 1617.385875
66.690000 1607.422497 1610.257321 1612.858017 1613.021383 1615.775112 1619.872897
66.765000 1608.770233 1611.750858 1614.509577 1614.683963 1617.735838 1621.571020
66.840000 1609.946405 1613.231466 1616.198093 1616.356514 1619.657084 1623.437146
66.915000 1611.245549 1614.768709 1617.837460 1618.000436 1621.523852 1625.264139
66.990000 1612.646665 1616.065758 1619.487535 1619.669721 1623.349563 1626.817354
67.065000 1613.876711 1617.605555 1621.276681 1621.399751 1625.175168 1628.663580
67.140000 1615.464253 1619.351343 1623.296716 1623.279862 1626.988443 1631.285368
67.200000 1616.811382 1620.966951 1624.879404 1624.902979 1628.733004 1633.219992
67.320000 1619.996619 1624.747753 1628.953066 1628.877177 1633.180435 1637.056724
67.440000 1623.719692 1629.086128 1633.424601 1633.146956 1637.189341 1640.377865
67.525000 1625.293508 1631.691689 1636.508211 1635.906815 1639.916586 1643.212180
67.610000 1627.943568 1634.402348 1639.295136 1638.553268 1642.222285 1645.371355
67.740000 1633.597775 1639.492213 1642.872401 1642.512369 1645.731168 1648.775464
67.840000 1636.917743 1641.994873 1645.000183 1644.917814 1648.190355 1651.134892
67.940000 1640.568340 1644.414115 1647.243994 1647.230609 1650.235159 1653.354298
68.040000 1643.644220 1646.537593 1649.308800 1649.321751 1652.187587 1655.644835
68.115000 1645.197377 1648.029908 1650.645300 1650.743998 1653.590437 1657.147228
68.190000 1646.556836 1649.332003 1652.016856 1652.135003 1655.036787 1658.455677
68.290000 1648.537365 1651.042188 1653.763953 1653.926512 1656.849918 1660.299834
68.390000 1650.421655 1652.856209 1655.574885 1655.715174 1658.576510 1661.950190
68.490000 1652.526006 1654.629509 1657.321383 1657.505133 1660.179640 1664.063838
68.565000 1653.894377 1656.184141 1658.693840 1659.042927 1661.835498 1665.949743
68.640000 1655.590095 1657.724422 1660.354737 1660.697482 1663.575852 1667.790393
68.750000 1657.891316 1660.364288 1663.482969 1663.724399 1666.922544 1672.002465
68.860000 1660.569206 1663.467017 1666.759300 1667.104053 1670.773926 1675.549399
68.975000 1663.033413 1666.218554 1669.958844 1670.465177 1674.737517 1680.107379
69.090000 1665.520759 1669.101093 1673.276388 1673.855628 1678.549139 1683.953170
69.165000 1667.392347 1671.101437 1675.763639 1675.952196 1681.063538 1686.418323
69.240000 1669.455284 1673.065424 1677.927823 1678.041399 1683.050921 1688.430756
69.315000 1671.095050 1674.848705 1680.014592 1679.954123 1684.907095 1690.106116
69.390000 1672.781262 1676.789009 1682.038696 1681.872334 1686.702898 1691.540787
69.465000 1674.370613 1678.550490 1683.908557 1683.814354 1688.897421 1693.174508
69.540000 1676.119477 1680.243151 1685.874918 1685.759064 1691.038775 1694.723898
69.615000 1677.424388 1682.585853 1687.864809 1687.711787 1692.806564 1696.635554
69.690000 1679.050088 1684.629896 1689.815962 1689.628945 1694.847501 1698.966401
69.765000 1680.699407 1686.588087 1691.889818 1691.644807 1696.858217 1701.198672
69.840000 1682.524664 1688.605026 1693.902704 1693.740510 1698.854139 1704.279297
69.915000 1684.564319 1690.361353 1695.689967 1695.625641 1700.834683 1706.292884
69.990000 1686.405791 1692.071168 1697.636128 1697.425005 1702.599403 1708.157735
70.120000 1691.349705 1695.171434 1701.189145 1700.939150 1706.367598 1711.810617
70.200000 1693.130068 1696.960536 1703.081885 1702.992359 1708.707055 1713.689493
70.280000 1694.678941 1698.587197 1705.242315 1705.063480 1711.374990 1716.029466
70.360000 1696.066768 1700.204912 1707.081533 1706.950399 1713.664927 1718.167509
70.440000 1697.590522 1701.642855 1708.930982 1708.754288 1715.489523 1720.233146
70.525000 1698.900724 1703.131532 1710.651609 1710.552091 1717.526761 1722.314933
70.610000 1700.193098 1705.293793 1712.369436 1712.360039 1719.355289 1723.850664
70.720000 1702.715358 1707.716621 1714.468219 1714.607309 1721.613379 1726.942157
70.805000 1704.372097 1709.453617 1716.195272 1716.346091 1723.358884 1728.809068
70.890000 1705.907252 1711.058229 1717.827568 1718.063777 1724.983035 1730.572105
70.965000 1707.418049 1712.896192 1719.363929 1719.686324 1726.467896 1732.211257
71.040000 1709.058000 1714.576672 1721.275829 1721.368866 1727.950990 1733.729546
71.115000 1710.822380 1716.389849 1723.227299 1723.116411 1729.599321 1735.083492
71.190000 1712.928564 1718.121886 1724.949585 1724.844242 1731.060610 1736.333927
71.285000 1715.801924 1720.768834 1727.292931 1727.081792 1733.137872 1737.928810
71.380000 1718.180966 1723.148295 1729.691841 1729.304671 1735.210742 1739.460311
71.465000 1720.075625 1725.127603 1731.797894 1731.338599 1737.175367 1741.226904
71.550000 1721.780954 1727.362939 1733.947844 1733.345555 1739.019457 1742.657507
71.630000 1723.316376 1729.697183 1736.049363 1735.273773 1740.696080 1744.417005
71.710000 1725.242159 1731.823606 1737.901818 1737.204418 1742.402564 1746.120952
71.810000 1727.769684 1734.133818 1740.008528 1739.523421 1744.760772 1748.205820
71.910000 1730.684586 1736.937660 1742.325440 1741.849762 1746.759128 1750.322216
72.010000 1733.451188 1739.237525 1744.432976 1744.037095 1748.793974 1752.054680
72.150000 1737.039191 1742.526796 1747.319915 1747.038854 1751.391787 1755.099008
72.230000 1739.201179 1744.363659 1749.140843 1748.865080 1753.133742 1757.729016
72.310000 1741.571230 1746.534517 1751.006566 1750.727009 1754.754227 1758.982563
72.450000 1745.477615 1749.967215 1754.124319 1753.955403 1757.926715 1761.917752
72.525000 1746.935789 1751.731720 1755.977258 1755.885052 1759.891060 1764.725490
72.600000 1748.915710 1753.778715 1758.046993 1757.883092 1761.879047 1766.338406
72.710000 1752.935441 1757.425820 1762.096801 1761.820748 1765.991439 1769.827482
72.785000 1755.138893 1759.543608 1764.199671 1764.027155 1768.484760 1771.923844
72.860000 1757.590723 1761.576697 1766.347360 1766.151894 1770.592239 1774.312286
72.935000 1759.699045 1763.643381 1768.333713 1768.129325 1772.591225 1776.214531
73.010000 1761.530356 1765.690322 1770.391745 1770.120675 1774.487684 1778.266735
73.120000 1763.974892 1768.226988 1773.215953 1772.906323 1777.241026 1781.633768
73.230000 1765.840654 1771.213229 1776.236752 1775.877008 1780.158845 1784.595641
73.310000 1768.040499 1773.449521 1778.240158 1778.036646 1782.566412 1786.692909
73.395000 1769.738422 1776.013253 1780.582513 1780.390937 1785.000943 1788.679203
73.480000 1772.600258 1778.656674 1783.086782 1782.825126 1787.424456 1790.669727
73.620000 1777.576550 1782.647813 1786.952236 1786.757697 1790.944280 1794.972985
73.760000 1782.215540 1786.179184 1790.395416 1790.313284 1794.353787 1797.908731
73.860000 1784.760628 1788.509764 1792.576597 1792.578786 1796.369533 1800.630292
73.960000 1787.354685 1791.128001 1794.737418 1794.854366 1798.655485 1802.984613
74.060000 1789.955440 1793.640546 1796.928843 1797.159655 1800.683219 1805.320463
74.135000 1791.804561 1795.401843 1798.760582 1798.912852 1802.353428 1806.928003
74.210000 1793.575902 1796.974195 1800.604404 1800.652935 1804.066322 1808.962052
74.285000 1795.428446 1798.915774 1802.329315 1802.532609 1806.028786 1811.074472
74.360000 1796.994219 1800.833064 1804.306799 1804.464647 1808.046544 1812.668042
74.435000 1798.823040 1802.657965 1806.273777 1806.532846 1810.581206 1815.275362
74.510000 1801.129786 1804.705718 1808.402575 1808.673846 1812.852828 1818.585912
74.620000 1803.588559 1807.369855 1811.444921 1811.786918 1816.156857 1821.840213
74.730000 1806.302521 1810.184690 1814.207157 1814.894048 1820.161560 1825.164360
74.810000 1808.003450 1812.040776 1816.499179 1817.055956 1822.697705 1828.062568
74.895000 1809.593527 1813.860644 1818.669667 1819.169403 1825.041940 1830.180168
74.980000 1811.336776 1815.592083 1820.695048 1821.263019 1827.163543 1832.503409
75.110000 1814.069097 1818.473188 1823.954486 1824.583902 1830.920410 1837.141427
75.185000 1815.604470 1820.058073 1825.906366 1826.381592 1832.698387 1839.368985
75.260000 1816.824903 1821.739465 1827.992651 1828.201062 1834.601754 1840.881125
75.335000 1818.405059 1823.410333 1830.089208 1830.053452 1836.683999 1843.057094
75.410000 1819.800147 1824.979381 1832.105119 1832.077429 1839.066875 1845.018085
75.485000 1820.850270 1826.689788 1834.422748 1834.158758 1841.441773 1847.243693
75.560000 1822.613171 1828.539418 1836.534833 1836.258555 1843.656775 1849.167202
75.635000 1823.914772 1830.714203 1838.771932 1838.421210 1846.171713 1851.641023
75.710000 1825.285130 1832.922147 1840.682935 1840.560489 1848.396420 1853.238239
75.785000 1826.973502 1834.863092 1843.061180 1842.789877 1850.600099 1855.242758
75.860000 1828.243582 1837.317771 1845.723396 1844.979644 1852.885453 1857.343401
75.935000 1829.753555 1838.885113 1847.883342 1846.908010 1854.743656 1858.965031
76.010000 1831.313088 1841.121508 1849.902592 1848.829197 1856.503387 1860.269046
76.120000 1833.222220 1843.770680 1852.767385 1851.517514 1858.966816 1863.241116
76.230000 1835.175015 1846.103456 1855.893965 1854.211909 1861.712567 1865.458381
76.310000 1836.793521 1847.886593 1858.000687 1856.090561 1863.343062 1867.297734
76.395000 1839.302061 1850.062782 1860.165014 1858.145700 1864.912648 1869.064979
76.480000 1841.586837 1851.895864 1862.156942 1860.090772 1866.479596 1870.333614
76.610000 1844.571639 1855.111741 1864.935683 1862.970778 1869.059328 1872.637132
76.685000 1846.707730 1857.484958 1866.428281 1864.646495 1870.552573 1873.853750
76.760000 1849.181385 1859.500989 1867.950872 1866.208340 1871.911473 1875.033348
76.845000 1851.559386 1861.874263 1869.480343 1867.962296 1873.362495 1876.344538
76.930000 1853.599165 1864.096252 1871.071475 1869.640027 1874.772489 1877.417823
77.060000 1856.982348 1867.814257 1873.601721 1872.226980 1876.921293 1879.116758
77.145000 1859.315070 1869.855774 1875.055469 1873.857380 1878.270386 1880.285593
77.230000 1861.197949 1871.790684 1876.639142 1875.410790 1879.464013 1881.378133
77.360000 1865.206076 1874.204932 1878.742754 1877.672165 1881.366722 1883.054752
77.435000 1867.613848 1875.594207 1879.878383 1878.914333 1882.480796 1884.216925
77.510000 1870.003267 1876.810035 1881.034714 1880.143800 1883.482286 1885.278025
77.620000 1872.138976 1878.516584 1882.776694 1881.817862 1885.005713 1886.564786
77.730000 1874.539616 1880.276183 1884.246396 1883.402985 1886.450600 1887.960733
77.810000 1876.515163 1881.551999 1885.418221 1884.587890 1887.469794 1888.948751
77.910000 1877.994541 1882.942670 1886.813262 1886.007159 1888.752949 1890.284026
78.010000 1879.841362 1884.455207 1888.214279 1887.450228 1890.185114 1891.524346
78.110000 1881.549624 1885.941477 1889.669265 1888.885335 1891.479631 1892.950300
78.185000 1883.086507 1887.175368 1890.716501 1890.033549 1892.518208 1894.031773
78.260000 1884.559502 1888.483408 1891.806789 1891.155611 1893.522024 1894.898391
78.335000 1885.896041 1889.643920 1892.848412 1892.264975 1894.515475 1895.876488
78.410000 1887.424402 1891.065742 1893.919595 1893.403541 1895.598002 1897.010921
78.485000 1888.858030 1892.212734 1894.976727 1894.519354 1896.637315 1897.927902
78.560000 1889.854251 1893.307785 1896.123171 1895.611134 1897.640878 1898.801286
78.635000 1891.225046 1894.506842 1897.228765 1896.755691 1898.729585 1900.040546
78.710000 1892.450279 1895.695290 1898.293239 1897.903419 1899.803086 1901.324710
78.785000 1893.871716 1896.986787 1899.373972 1899.032037 1900.915761 1902.583450
78.860000 1895.427440 1898.077492 1900.491194 1900.145934 1901.995209 1903.825758
78.935000 1896.534820 1899.185394 1901.524887 1901.204285 1903.061596 1904.744382
79.010000 1897.582246 1900.197355 1902.546005 1902.257138 1904.179589 1905.803204
79.120000 1899.040104 1901.570745 1903.925651 1903.683761 1905.671236 1907.245089
79.230000 1900.422319 1903.013713 1905.379747 1905.165923 1907.153205 1908.831410
