depth(m) lower_95(kyr) lower_68(kyr) median(kyr) mean(kyr) upper_68(kyr) upper_95(kyr)
46.830000 1399.196281 1399.973110 1400.963521 1400.944408 1401.878089 1402.789430
46.870000 1400.918722 1402.131408 1403.385108 1403.439829 1404.741259 1406.279771
46.900000 1402.288389 1403.462315 1404.777204 1404.794785 1406.137241 1407.652241
47.000000 1406.070597 1407.559652 1409.015953 1409.168961 1410.928938 1412.821250
47.100000 1408.773796 1410.426401 1412.580861 1412.458391 1414.434999 1416.042016
47.200000 1411.024817 1413.167552 1415.543210 1415.432640 1417.594076 1419.715681
47.300000 1413.664967 1415.989425 1418.317967 1418.257902 1420.478459 1422.604487
47.400000 1416.563940 1418.807690 1421.188214 1421.135002 1423.133553 1425.808224
47.500000 1419.714742 1421.720355 1423.993143 1424.051741 1425.754577 1429.473079
47.600000 1423.812478 1425.863551 1427.812710 1428.827695 1431.180572 1442.061200
47.700000 1427.360941 1429.762973 1433.581528 1435.134073 1441.917861 1447.213106
47.800000 1430.294572 1433.439975 1439.152094 1439.666208 1446.432265 1450.510150
47.933333 1434.774143 1439.904392 1446.421392 1446.045334 1451.965565 1454.934995
48.066667 1441.135554 1447.973893 1452.503044 1452.009795 1456.171028 1458.585549
48.200000 1452.598689 1454.966888 1457.609816 1457.570344 1460.131096 1462.236860
48.300000 1456.464533 1458.666693 1460.865866 1460.870388 1463.020287 1464.936031
48.400000 1459.599389 1461.911871 1464.196558 1464.275762 1466.601967 1469.203364
48.500000 1463.367772 1465.241315 1467.644344 1467.913197 1470.344662 1473.780945
48.600000 1465.939869 1468.376627 1472.141797 1472.824119 1476.978033 1483.428448
48.700000 1468.408068 1470.859305 1475.750946 1476.460164 1481.913494 1487.439963
48.800000 1470.950465 1473.656286 1479.858517 1480.185587 1486.761364 1490.753622
48.900000 1473.173199 1476.688899 1484.133636 1483.889132 1490.515647 1493.314634
49.033333 1477.596153 1482.819960 1489.947265 1489.292838 1495.178286 1498.891718
49.166667 1482.441254 1489.813723 1495.644640 1495.056443 1499.806387 1504.319768
49.300000 1488.674922 1496.557029 1500.949744 1500.878832 1505.464143 1509.846007
49.400000 1491.265978 1499.683491 1504.716028 1505.400634 1512.230967 1516.731787
49.500000 1495.762641 1502.626026 1507.862756 1508.466167 1515.642818 1519.755352
49.600000 1500.378243 1505.607006 1510.876995 1511.440545 1518.509859 1521.894400
49.700000 1505.123704 1508.670948 1513.563193 1514.406586 1521.262934 1524.517371
49.800000 1509.115491 1512.239918 1517.705699 1517.804940 1523.765765 1526.590048
49.900000 1512.440746 1515.980909 1521.637216 1521.305625 1526.332401 1528.904372
50.000000 1515.999841 1520.649587 1525.624033 1525.053666 1528.947742 1531.349255
50.100000 1519.919343 1525.481891 1529.171019 1528.788308 1531.902873 1535.230452
50.200000 1525.560264 1530.210322 1533.111810 1533.084969 1536.329627 1539.921535
50.300000 1531.449944 1534.623028 1537.371804 1537.411244 1540.516459 1543.666304
50.400000 1534.561559 1538.990213 1541.957381 1541.738578 1544.644083 1547.064065
50.500000 1537.964917 1542.465830 1545.412234 1545.313223 1548.426218 1550.919694
50.600000 1541.505469 1545.118249 1548.181396 1548.057750 1551.093297 1553.607506
50.700000 1544.199822 1547.709272 1550.539026 1550.523816 1553.498902 1555.896758
50.800000 1546.560058 1549.897865 1552.792695 1552.692688 1555.565517 1557.807876
50.900000 1549.309010 1552.202556 1555.109993 1554.930893 1557.685148 1559.850570
51.000000 1551.567635 1554.335661 1557.308824 1557.091363 1559.757895 1561.725491
51.100000 1553.895718 1556.441093 1559.430398 1559.202251 1561.885921 1563.677400
51.200000 1555.951326 1558.652359 1561.515252 1561.326662 1564.002330 1565.669128
51.300000 1558.057370 1560.827271 1563.618169 1563.440519 1565.999342 1567.634751
51.400000 1560.221587 1563.071502 1565.717541 1565.607277 1568.135014 1569.989156
51.500000 1562.499115 1565.233577 1567.984633 1567.861708 1570.366789 1572.793031
51.600000 1564.692370 1567.496035 1570.100687 1570.166046 1572.556630 1577.138628
51.733333 1567.397417 1570.374808 1573.160878 1573.393286 1576.291650 1581.095930
51.866667 1569.999645 1573.213650 1576.323560 1576.627798 1579.777653 1585.021286
52.000000 1572.899047 1576.239547 1579.650014 1579.897321 1583.223026 1589.270517
52.133333 1575.938037 1579.283717 1583.096586 1583.290452 1586.856758 1592.523420
52.266667 1579.060400 1582.473940 1586.388398 1586.734115 1590.664353 1597.825953
52.400000 1582.382190 1585.810686 1590.006116 1590.312504 1594.489481 1601.795755
52.500000 1585.089924 1588.521209 1592.884227 1593.320186 1597.858967 1605.334526
52.600000 1587.580773 1591.316061 1596.216519 1596.679371 1601.971228 1607.636935
52.700000 1590.567798 1594.271084 1599.297748 1599.944438 1605.730440 1610.307151
52.800000 1594.138819 1597.975749 1603.324762 1603.428751 1609.050236 1612.884260
52.900000 1598.229219 1602.712501 1607.363936 1607.239230 1611.982662 1614.794451
53.000000 1603.252158 1608.687569 1612.212392 1611.771720 1615.001838 1617.442402
53.100000 1607.173481 1613.314603 1616.021366 1615.573734 1618.090059 1620.101405
53.120000 1607.540259 1614.173065 1616.720622 1616.260088 1618.717485 1620.644740
53.170000 1609.016136 1615.984906 1618.352605 1617.902503 1620.118690 1622.189700
53.200000 1611.132809 1617.266391 1619.246501 1618.899456 1620.969280 1623.112821
53.220000 1611.751256 1617.897634 1619.915397 1619.550630 1621.552794 1623.652816
53.270000 1614.188893 1619.338506 1621.328075 1621.010435 1622.976618 1625.195790
53.300000 1615.454318 1620.228556 1622.212540 1621.943773 1623.933528 1626.083064
53.320000 1616.329296 1620.841112 1622.792156 1622.575350 1624.624446 1626.984873
53.370000 1618.665049 1622.221842 1624.251323 1624.177124 1626.367807 1628.673097
53.400000 1620.180827 1623.086697 1625.148685 1625.153356 1627.573263 1629.638135
53.420000 1620.851994 1623.731695 1625.789359 1625.825477 1628.298668 1630.267493
53.470000 1622.856761 1625.323853 1627.577253 1627.539697 1629.852034 1632.081238
53.500000 1623.645235 1626.278179 1628.685144 1628.545219 1630.809296 1632.846056
53.520000 1624.442711 1626.957371 1629.407517 1629.205663 1631.386591 1633.374358
53.570000 1625.991708 1628.381434 1630.997461 1630.791694 1633.030934 1634.871182
53.620000 1627.546498 1629.998240 1632.481277 1632.331988 1634.508886 1636.531876
53.670000 1628.999042 1631.537305 1634.074121 1633.899628 1636.170646 1638.139779
53.720000 1630.356583 1633.383248 1635.737066 1635.554468 1637.827570 1639.586978
53.770000 1632.232849 1635.098922 1637.474108 1637.331209 1639.692010 1641.359336
53.820000 1633.755618 1636.623371 1639.160090 1639.048390 1641.533211 1643.435601
53.870000 1635.994669 1638.348129 1640.587027 1640.630888 1642.975203 1645.478415
53.920000 1638.059688 1640.150100 1642.367925 1642.436426 1644.705334 1647.741249
54.020000 1640.846518 1642.867853 1644.905139 1645.231238 1647.663133 1651.244333
54.120000 1643.248857 1645.136187 1647.455482 1647.780747 1650.330602 1654.358299
54.170000 1644.619181 1646.368660 1648.839770 1649.147788 1651.911735 1656.053895
54.270000 1646.828609 1648.802779 1651.474096 1651.736210 1654.662350 1658.018285
54.320000 1647.980380 1650.226936 1652.932942 1653.161823 1656.159289 1659.375069
54.420000 1650.473491 1653.023471 1656.003100 1655.942554 1658.733393 1661.670018
54.470000 1652.041275 1654.523147 1657.574190 1657.488268 1660.276350 1662.924526
54.520000 1653.483849 1656.074643 1659.199759 1659.117694 1661.939200 1664.307995
54.570000 1654.733443 1658.094776 1661.202430 1660.976435 1663.809317 1666.011040
54.620000 1656.403642 1659.875834 1662.790069 1662.648971 1665.607372 1668.062351
54.670000 1658.405195 1661.452784 1664.468686 1664.443173 1667.381259 1670.144957
54.720000 1659.996474 1663.281447 1666.072078 1666.160496 1668.977279 1672.119776
54.845000 1663.688528 1667.096564 1669.806704 1670.086952 1673.204983 1677.231423
54.970000 1667.255882 1670.472946 1673.536221 1673.940873 1677.712732 1681.872202
55.045000 1669.114688 1672.445557 1675.787483 1676.254759 1680.294046 1684.550183
55.120000 1671.076308 1674.438646 1678.016231 1678.460204 1682.463818 1686.877095
55.220000 1673.818406 1677.309202 1681.255322 1681.496890 1685.715982 1690.012897
55.320000 1676.777624 1680.141181 1684.502381 1684.631447 1689.044362 1693.510552
55.420000 1679.320324 1683.278550 1688.044522 1688.116290 1692.621543 1698.846423
55.470000 1680.759446 1684.833341 1690.081004 1690.072746 1694.694681 1701.672433
55.603333 1683.805003 1689.577423 1696.789805 1696.925039 1704.274047 1711.663267
55.736667 1687.588246 1695.119421 1704.150670 1703.845133 1712.089214 1719.805857
55.870000 1690.480330 1702.048487 1712.239631 1710.874657 1718.550810 1725.174797
55.970000 1693.009206 1708.496922 1717.446583 1716.021945 1723.493935 1729.169987
56.070000 1695.387206 1713.396512 1721.572175 1720.059933 1727.480860 1732.717488
56.170000 1698.323661 1716.770122 1724.937569 1723.568902 1730.884667 1736.608418
56.220000 1700.265506 1718.494730 1726.688368 1725.263949 1732.383632 1738.101153
56.345000 1705.024628 1723.440078 1730.688329 1729.496405 1735.922575 1741.290399
56.470000 1712.980765 1727.956178 1734.427652 1733.602232 1739.312851 1745.770272
56.520000 1717.784019 1729.916667 1735.860411 1735.292628 1740.694660 1747.378394
56.630000 1724.002296 1734.184570 1739.610859 1739.147750 1743.960343 1750.127874
56.730000 1729.736981 1739.376913 1743.500299 1743.164459 1747.482993 1752.639201
56.830000 1734.414407 1742.924484 1747.225399 1746.840904 1751.088536 1755.352857
56.930000 1739.388624 1746.217338 1750.768759 1750.389274 1754.895786 1758.807632
57.030000 1742.635525 1749.625362 1754.256770 1753.849600 1758.142796 1763.524388
57.130000 1746.712672 1753.146031 1757.834928 1757.441847 1761.716711 1767.469026
57.230000 1750.876979 1756.806174 1761.163506 1761.058517 1765.426410 1771.607841
57.330000 1754.496644 1760.276387 1764.523154 1764.634987 1769.184268 1775.266944
57.430000 1757.332339 1763.459243 1767.791620 1767.943746 1773.025073 1779.263998
57.530000 1761.305349 1766.277481 1770.685404 1771.265448 1776.432923 1785.019562
57.658571 1764.758095 1769.586950 1774.835063 1775.824409 1782.711433 1793.120537
57.787143 1767.985829 1773.223423 1779.064568 1780.468734 1788.512322 1800.246890
57.915714 1771.438689 1776.535746 1783.646122 1785.141400 1795.104181 1805.517477
58.044286 1774.829116 1779.957726 1788.640998 1789.893141 1801.018172 1811.060937
58.172857 1777.388820 1783.030053 1793.795824 1794.570394 1807.070214 1815.763180
58.301429 1780.722311 1786.237282 1799.164642 1799.349870 1812.024148 1821.466779
58.430000 1784.100076 1789.949232 1804.554801 1804.245319 1817.688237 1825.997119
58.530000 1787.682801 1794.321149 1807.874963 1808.046426 1821.363980 1829.714564
58.630000 1791.871889 1799.148659 1811.779433 1812.011609 1825.059486 1833.227007
58.730000 1796.493697 1803.832680 1815.550871 1815.972982 1828.354983 1836.333710
58.830000 1801.327347 1808.433834 1819.957196 1819.906909 1831.716070 1838.803409
58.930000 1805.707721 1812.455605 1824.589338 1823.851417 1834.707575 1841.407169
59.030000 1809.057409 1816.512025 1828.826723 1827.743049 1837.975460 1844.294076
59.130000 1813.371163 1821.366019 1832.505995 1831.762230 1841.918480 1846.967771
59.230000 1817.408029 1826.438527 1836.583906 1835.846826 1844.949361 1849.442428
59.330000 1824.346983 1832.271329 1840.882252 1840.118465 1848.174568 1852.016497
59.430000 1829.171009 1837.825477 1845.372327 1844.466074 1851.202303 1854.744087
59.530000 1834.514508 1842.423599 1849.013579 1848.340982 1854.366699 1857.140792
59.630000 1838.891727 1846.416829 1852.531834 1851.666755 1856.841011 1859.606931
59.730000 1842.906891 1849.674075 1855.609330 1854.687996 1859.378519 1862.431760
59.830000 1846.434695 1853.137940 1858.356829 1857.431890 1861.891480 1865.008280
59.930000 1849.167690 1855.977646 1860.983773 1860.114306 1864.034357 1867.305187
60.030000 1851.465996 1858.993793 1863.501976 1862.681473 1866.511847 1869.423654
60.130000 1854.904246 1861.735197 1865.924038 1865.265880 1868.895855 1871.761289
60.230000 1858.437933 1864.605222 1868.310898 1867.811934 1871.061797 1873.876564
60.330000 1862.381769 1867.401611 1870.893655 1870.363423 1873.419995 1876.133388
60.430000 1865.710165 1870.062573 1873.245184 1872.913285 1876.003785 1878.529574
60.530000 1868.494748 1872.605755 1875.533173 1875.336695 1878.411866 1880.917165
60.640000 1871.702473 1875.370816 1878.106461 1877.970450 1880.799688 1883.947737
60.740000 1874.864384 1877.890497 1880.568025 1880.505521 1883.420108 1886.348717
60.840000 1877.501347 1880.307524 1883.145413 1883.091990 1886.094424 1888.728094
60.940000 1879.836982 1882.803096 1885.756074 1885.701188 1888.769789 1891.594027
61.040000 1882.507131 1885.438445 1888.624437 1888.465272 1891.579825 1893.747176
61.140000 1884.754518 1888.266639 1891.671971 1891.210001 1894.080242 1895.893396
61.240000 1887.591329 1891.496065 1894.298746 1893.987272 1896.569584 1898.678578
61.340000 1891.518447 1894.395058 1896.800212 1896.529364 1898.785986 1900.682278
61.440000 1894.695094 1897.213543 1899.183421 1899.126143 1901.184453 1903.134953
61.540000 1897.417906 1899.508657 1901.366818 1901.369992 1903.294038 1905.361988
61.640000 1899.449639 1901.574681 1903.454196 1903.433938 1905.356560 1907.802622
61.740000 1901.405305 1903.585268 1905.544735 1905.515349 1907.532160 1910.045204
61.840000 1903.486736 1905.429923 1907.539787 1907.561877 1909.678644 1912.297516
61.930000 1905.277901 1907.208890 1909.431452 1909.487226 1911.795496 1914.344083
62.030000 1907.325136 1909.355895 1911.642180 1911.745134 1914.294946 1917.034564
62.140000 1909.834069 1911.918235 1914.508631 1914.626436 1917.343693 1920.958498
62.240000 1912.015584 1914.488252 1917.298473 1917.509894 1920.624893 1924.063864
62.340000 1914.855126 1917.494262 1920.825677 1921.045323 1924.558741 1928.469103
62.440000 1917.702072 1920.934899 1924.901067 1924.998549 1928.993535 1933.951835
62.540000 1921.182122 1924.844806 1929.262954 1929.186838 1933.504561 1937.392440
62.640000 1924.867548 1929.055823 1933.789963 1933.584877 1938.300769 1941.641383
62.740000 1928.692669 1933.916386 1938.867432 1938.517551 1943.064822 1947.039236
62.840000 1933.969762 1939.889968 1943.803249 1943.587501 1947.624330 1951.084425
62.940000 1942.890551 1945.548230 1948.390071 1948.559025 1951.710793 1955.002325
63.040000 1946.863062 1949.791251 1952.792555 1952.861037 1955.902744 1959.557622
63.090000 1949.516115 1952.157239 1955.292967 1955.295714 1958.297890 1961.706193
63.140000 1951.092652 1954.219558 1957.142928 1957.276734 1960.601792 1963.848718
63.190000 1952.871645 1956.324436 1959.383675 1959.358392 1962.667530 1965.393499
63.240000 1954.835400 1957.930768 1961.180805 1961.131244 1964.429412 1966.993928
63.290000 1957.012714 1959.667849 1963.031970 1962.863846 1965.959522 1968.679283
63.340000 1958.279171 1961.477021 1964.831940 1964.508138 1967.537561 1970.176934
63.390000 1959.983236 1963.418687 1966.564343 1966.337055 1969.289012 1972.142692
63.440000 1962.302262 1965.471178 1968.442343 1968.297711 1971.192663 1974.117358
63.490000 1964.260680 1967.409673 1970.313050 1970.325856 1973.308208 1976.466124
63.540000 1966.898158 1969.636396 1972.391283 1972.553908 1975.562560 1978.998772
63.590000 1969.152200 1971.785688 1974.622190 1974.865168 1978.071120 1981.746790
63.640000 1971.257984 1973.848100 1976.760006 1977.076532 1980.537130 1984.185584
63.690000 1973.120097 1975.617630 1979.213960 1979.271730 1982.956981 1986.255784
63.740000 1974.535388 1977.591684 1981.511918 1981.391279 1985.140154 1988.587028
63.790000 1976.088164 1979.404363 1983.626241 1983.549976 1987.586003 1991.243220
63.890000 1979.638670 1983.628273 1987.870753 1987.746904 1992.089442 1995.681184
63.990000 1983.999288 1988.366856 1992.595709 1992.220266 1995.917238 1999.248336
64.090000 1990.168645 1993.717067 1996.579216 1996.483124 1999.524087 2002.509708
64.190000 1995.371568 1997.713537 2000.235052 2000.250591 2002.784974 2005.685760
64.240000 1996.841718 1999.488570 2001.912136 2001.931377 2004.482858 2007.477147
64.290000 1998.758945 2001.125668 2003.742102 2003.701080 2006.238633 2009.290636
64.340000 2000.213429 2002.859247 2005.459970 2005.491108 2008.242679 2011.120154
64.390000 2001.893722 2004.556990 2007.011753 2007.166474 2010.038546 2013.251869
64.440000 2003.396114 2006.218734 2008.804695 2008.925380 2011.921018 2014.820046
64.490000 2005.325068 2007.937684 2010.597415 2010.674938 2013.663383 2016.391039
64.540000 2007.270364 2009.731536 2012.333549 2012.453864 2015.506192 2017.808420
64.590000 2009.265576 2011.366375 2014.112135 2014.191231 2017.238215 2019.843065
64.640000 2010.657828 2012.881976 2015.791347 2015.807417 2018.853008 2021.419077
64.690000 2012.303172 2014.621852 2017.348817 2017.436610 2020.391639 2023.096911
64.740000 2013.904301 2016.322015 2019.075991 2019.166499 2022.066786 2024.968483
64.790000 2015.677561 2018.358635 2021.223077 2021.117676 2023.907572 2026.659887
64.840000 2017.695979 2020.085197 2023.038109 2022.892982 2025.676101 2028.081524
64.890000 2019.349829 2021.879402 2024.732636 2024.586936 2027.203845 2029.480486
64.940000 2021.184159 2023.708236 2026.409951 2026.236972 2028.735182 2030.702896
64.990000 2022.868345 2025.678109 2027.998497 2027.917839 2030.307831 2032.237980
65.040000 2024.728405 2027.368364 2029.620163 2029.548871 2031.753696 2033.795946
65.090000 2026.455150 2029.118458 2031.378014 2031.243156 2033.580648 2035.325917
65.140000 2027.973359 2030.886850 2033.063690 2032.932540 2035.152379 2037.280100
65.190000 2029.856533 2032.722694 2034.800809 2034.677054 2036.705973 2038.817431
65.240000 2031.669673 2034.271424 2036.289948 2036.200876 2038.448845 2040.277421
65.290000 2033.127812 2035.569014 2037.698626 2037.612148 2039.765397 2041.502683
65.340000 2034.858094 2037.071418 2039.213142 2039.084705 2041.188781 2042.959137
65.390000 2036.830901 2038.643743 2040.634716 2040.576238 2042.564757 2044.325882
65.440000 2038.272634 2040.062477 2042.108602 2042.010796 2043.965593 2045.551717
65.490000 2039.735987 2041.505832 2043.480927 2043.416448 2045.377643 2046.944752
65.540000 2041.015628 2043.072403 2044.934023 2044.820981 2046.724851 2048.376194
65.590000 2042.333734 2044.424464 2046.257585 2046.198638 2048.084806 2049.879654
65.640000 2043.606694 2045.803497 2047.637020 2047.554992 2049.518324 2051.430211
65.690000 2044.964860 2047.080621 2048.963488 2048.941372 2050.840324 2052.831349
65.765000 2046.882744 2048.898915 2050.768147 2050.694604 2052.532709 2054.439048
65.840000 2048.717974 2050.603114 2052.502395 2052.448075 2054.287592 2056.131473
65.940000 2050.745911 2052.671124 2054.643707 2054.603034 2056.474583 2058.108397
66.040000 2052.879548 2054.792696 2056.879761 2056.770724 2058.719629 2060.544596
66.140000 2055.136817 2057.024933 2059.087312 2059.001906 2060.930925 2062.812931
66.240000 2057.754211 2059.606389 2061.448208 2061.468988 2063.401934 2065.382809
66.340000 2060.757599 2062.582759 2064.234019 2064.377991 2066.121518 2068.516615
66.390000 2062.603682 2064.394071 2066.113361 2066.314900 2068.161266 2071.303172
66.440000 2064.565600 2066.077170 2067.902606 2068.150800 2070.217716 2073.054666
66.540000 2067.238505 2068.883565 2071.371513 2071.434678 2073.929975 2076.751429
66.615000 2068.994451 2071.249955 2074.004478 2074.112562 2076.918431 2079.853350
66.690000 2070.932443 2073.661450 2076.512873 2076.636033 2079.532973 2082.719404
66.765000 2073.135893 2075.807314 2078.881253 2078.968838 2082.135001 2085.552719
66.840000 2075.336991 2077.880948 2081.179893 2081.243877 2084.452771 2087.980794
66.890000 2076.869548 2079.668923 2082.688046 2082.829529 2086.118354 2089.296590
66.940000 2078.389481 2081.276821 2084.300946 2084.394636 2087.574097 2090.602922
67.040000 2081.572702 2084.616674 2087.594118 2087.631412 2090.671156 2093.434497
67.140000 2085.371722 2088.228773 2091.227085 2091.188263 2094.117040 2096.793501
