depth(m) lower_95(kyr) lower_68(kyr) median(kyr) mean(kyr) upper_68(kyr) upper_95(kyr)
46.440000 1399.003451 1399.956372 1400.823389 1400.767427 1401.594690 1402.295105
46.540000 1401.755070 1402.817060 1403.801839 1403.869303 1404.897409 1406.603231
46.640000 1404.471356 1405.549204 1406.789854 1407.107454 1408.729320 1411.241165
46.720000 1406.828078 1407.956580 1409.667877 1409.961006 1412.053697 1414.685997
46.740000 1407.370335 1408.566420 1410.397016 1410.670869 1412.900038 1415.343356
46.820000 1409.430506 1411.062463 1413.312496 1413.462742 1415.863126 1418.872543
46.920000 1412.106856 1414.679619 1417.877402 1417.982338 1421.403612 1424.425428
47.020000 1417.343447 1422.366972 1427.920940 1427.351795 1431.868914 1434.869398
47.120000 1420.760503 1426.550062 1431.683623 1431.018913 1435.101413 1437.948884
47.220000 1425.075599 1430.156853 1434.497290 1434.050561 1437.922283 1440.438171
47.320000 1429.273160 1433.321785 1437.420747 1436.925937 1440.361135 1442.959562
47.420000 1432.141986 1436.013686 1440.039001 1439.553362 1442.884443 1444.883541
47.520000 1435.429835 1439.053976 1442.652339 1442.231408 1445.276931 1447.207192
47.620000 1438.821232 1442.084342 1445.462086 1445.004336 1447.775192 1449.517895
47.720000 1442.746462 1445.418006 1448.177581 1447.863194 1450.118581 1451.818299
47.820000 1446.173995 1449.100108 1451.117076 1450.883274 1452.710320 1454.100526
47.920000 1450.672297 1452.840080 1454.295793 1454.250483 1455.840997 1457.207919
48.020000 1453.810015 1455.453448 1456.904148 1456.921033 1458.363600 1459.968665
48.120000 1456.100418 1457.687745 1459.356019 1459.268578 1460.757201 1461.998416
48.220000 1458.383731 1460.081271 1461.661539 1461.645186 1463.166683 1464.380805
48.320000 1461.025954 1462.813368 1464.397363 1464.360118 1465.902077 1467.611874
48.420000 1464.155090 1465.840826 1467.559101 1467.963991 1470.159760 1473.914991
48.520000 1466.977061 1468.559487 1470.407589 1471.117132 1473.671293 1479.068641
48.620000 1469.627126 1471.484858 1474.020797 1474.800820 1478.786168 1483.184488
48.720000 1472.725868 1474.773486 1478.529934 1478.897125 1483.343856 1486.399104
48.820000 1475.657150 1478.760266 1483.474733 1483.072564 1487.141262 1489.039244
48.920000 1479.078852 1483.345359 1487.734076 1486.934137 1490.028107 1491.582302
49.020000 1484.228952 1488.572126 1491.020049 1490.613082 1492.808204 1494.429946
49.120000 1489.343994 1491.409965 1493.076151 1493.112435 1494.716957 1497.258398
49.220000 1492.478436 1493.759741 1495.349515 1495.677513 1497.441936 1501.351567
49.320000 1494.681521 1495.984673 1497.882060 1498.270220 1500.496324 1504.122842
49.420000 1496.840840 1498.429476 1500.736686 1500.945288 1503.409657 1506.400604
49.520000 1499.054214 1501.013531 1503.528814 1503.685758 1506.308197 1508.917175
49.620000 1501.799564 1504.146262 1506.720984 1506.830283 1509.317363 1512.939019
49.720000 1505.110488 1507.668688 1509.961467 1510.206068 1512.595572 1517.082996
49.820000 1509.074527 1511.211794 1513.811790 1514.000120 1516.793167 1520.253371
49.920000 1512.001827 1514.114933 1517.083438 1517.263124 1520.533000 1523.388523
50.020000 1514.524014 1516.818720 1520.258752 1520.288408 1523.668035 1526.476563
50.120000 1517.376364 1520.226817 1523.567580 1523.505636 1526.628419 1528.986178
50.220000 1520.729478 1524.503557 1527.577468 1527.277449 1530.188557 1532.226021
50.320000 1526.824765 1529.745005 1532.286727 1532.069087 1534.357441 1536.368723
50.420000 1530.784897 1532.979609 1535.137433 1535.089184 1537.153348 1539.184814
50.520000 1533.198236 1535.659407 1537.806718 1537.748781 1539.891144 1542.226555
50.620000 1535.710856 1538.166881 1540.491220 1540.406035 1542.618293 1545.063708
50.720000 1538.341742 1540.666833 1542.955869 1543.089153 1545.503379 1548.401540
50.820000 1540.936674 1543.312820 1545.788066 1546.077978 1548.893281 1552.877613
50.920000 1543.514862 1545.811503 1548.720165 1549.075520 1552.403591 1556.652593
51.020000 1545.773541 1548.379679 1551.949273 1552.218817 1556.281726 1560.287654
51.120000 1548.716348 1551.716614 1555.432137 1555.777123 1559.982800 1563.304236
51.220000 1551.255662 1555.397908 1559.945676 1559.481624 1563.375807 1566.020750
51.320000 1554.376055 1559.108808 1563.937974 1563.083328 1566.702523 1568.898457
51.420000 1558.057981 1563.191288 1567.369751 1566.656447 1569.813188 1572.172214
51.520000 1561.815250 1567.115584 1570.277222 1569.839789 1572.590988 1574.901206
51.620000 1567.773883 1571.101857 1573.360021 1573.246920 1575.422244 1577.562231
51.720000 1571.246661 1574.077909 1576.258186 1576.086793 1578.106415 1580.311371
51.820000 1573.937987 1576.639435 1578.830034 1578.766766 1580.840139 1583.201698
51.920000 1577.026477 1579.337457 1581.348837 1581.486904 1583.545421 1586.409982
52.020000 1579.912423 1581.997869 1584.182848 1584.362786 1586.805978 1589.900411
52.120000 1582.583040 1584.678322 1587.047698 1587.257935 1589.849578 1592.781288
52.210000 1585.076264 1587.360113 1589.690203 1589.952115 1592.355373 1595.046663
52.220000 1585.423037 1587.686077 1590.022277 1590.274131 1592.731594 1595.395645
52.320000 1588.269345 1590.661037 1593.069821 1593.269030 1595.675208 1598.834720
52.410000 1590.932065 1593.508303 1595.948167 1596.117217 1598.340432 1601.607403
52.510000 1594.500235 1597.033091 1599.123391 1599.382812 1601.519917 1604.458592
52.610000 1597.441416 1599.859581 1602.016010 1602.313949 1604.414912 1607.794351
52.710000 1600.689256 1602.710930 1604.929676 1605.293380 1607.264426 1612.521539
52.810000 1603.604573 1605.753841 1607.948334 1608.696927 1611.151576 1617.101550
52.910000 1606.300606 1608.782780 1611.275033 1612.195382 1615.504193 1621.787233
53.010000 1609.016833 1611.765250 1614.831521 1615.815674 1619.766322 1625.735001
53.110000 1611.962060 1614.863330 1618.991487 1619.540168 1623.902598 1628.892556
53.210000 1615.197634 1618.631513 1623.851857 1623.811841 1628.107533 1632.259689
53.310000 1618.772720 1622.907804 1628.581027 1628.195304 1632.192652 1635.381433
53.410000 1621.985714 1627.404346 1632.271281 1631.890269 1635.560974 1638.491982
53.510000 1626.993225 1631.514309 1635.584690 1635.403522 1638.509229 1641.568160
53.610000 1631.429524 1635.530513 1638.814690 1638.851207 1641.562695 1644.631262
53.710000 1636.273471 1639.583840 1642.300281 1642.581505 1645.108427 1648.161983
53.810000 1639.692960 1642.780280 1645.280910 1645.877983 1648.527172 1652.236481
53.910000 1642.578260 1645.439214 1648.347680 1648.873074 1651.688885 1655.820561
54.010000 1645.267770 1648.023258 1651.045234 1651.727169 1654.562564 1660.179939
54.110000 1647.851496 1650.626562 1653.877120 1654.829588 1657.605687 1664.721282
54.210000 1650.552694 1653.603903 1656.746767 1657.843268 1660.628053 1671.107617
54.310000 1653.460032 1656.562175 1659.597018 1660.923292 1663.633600 1683.741537
54.410000 1656.324694 1659.685040 1662.835669 1664.395965 1667.047183 1697.557829
54.510000 1660.001374 1662.914443 1666.405856 1668.232393 1670.887641 1703.375860
54.610000 1664.116349 1666.768539 1670.409924 1672.965013 1676.461664 1711.697402
54.710000 1666.908922 1670.026735 1674.353071 1677.735472 1683.601304 1718.885590
54.810000 1669.162145 1673.029737 1677.894348 1682.450496 1692.550815 1728.141928
54.910000 1672.100396 1676.030053 1680.943745 1687.271085 1702.428805 1738.372253
55.010000 1674.996754 1679.139917 1684.114032 1692.049492 1715.381244 1751.188650
55.110000 1678.247980 1682.223222 1687.213871 1696.510892 1722.604679 1763.214311
55.210000 1681.107007 1685.553501 1690.375774 1700.853599 1727.939501 1771.401580
55.310000 1685.041256 1689.354306 1693.635696 1705.222272 1732.813990 1779.905321
55.410000 1689.313301 1693.621211 1697.750767 1710.005191 1738.012786 1788.045478
55.510000 1693.835199 1697.557674 1702.049653 1714.606303 1741.920324 1793.077742
55.610000 1697.949546 1701.108111 1706.305966 1718.973191 1745.589938 1797.105627
55.710000 1701.459920 1704.652303 1710.509913 1723.419234 1749.348591 1800.713241
55.810000 1704.690498 1708.542479 1715.212198 1728.363204 1753.745791 1804.926424
55.910000 1708.527886 1713.195177 1721.678289 1733.985792 1759.166748 1809.613902
56.010000 1712.561831 1718.769975 1728.062842 1740.141315 1765.867220 1817.250645
56.090000 1714.691840 1722.822994 1733.420454 1745.036494 1771.289776 1822.807908
56.110000 1715.154290 1724.085783 1734.521104 1746.168764 1772.433407 1823.497012
56.190000 1717.529267 1729.216867 1741.816949 1751.591854 1776.738207 1828.608400
56.290000 1720.796054 1738.161101 1750.004684 1758.205734 1780.868773 1832.532387
56.390000 1723.574948 1745.615733 1757.913202 1765.088195 1784.265742 1837.872668
56.410000 1724.392273 1746.711838 1759.394961 1766.179810 1785.143786 1838.876637
56.490000 1727.408214 1752.937521 1770.641081 1771.499573 1787.943816 1841.861189
56.510000 1727.927424 1753.991995 1772.020271 1772.570069 1788.540605 1842.643800
56.590000 1731.644471 1758.726578 1781.119107 1778.388767 1791.243160 1845.299975
56.610000 1732.456243 1760.016707 1782.258743 1779.489539 1791.886147 1845.952339
56.710000 1737.630382 1776.490760 1788.767087 1787.478523 1795.145961 1850.587286
56.790000 1741.414485 1787.905824 1793.441714 1792.634365 1798.145686 1853.910642
56.810000 1742.498970 1789.488897 1794.450024 1793.700631 1799.166355 1854.907511
56.890000 1746.464133 1794.167688 1798.132705 1797.294602 1802.175943 1857.009888
56.910000 1747.241454 1795.235181 1799.114958 1798.282171 1803.014667 1857.809669
56.990000 1751.148109 1798.615629 1802.878021 1802.235231 1807.248762 1860.752736
57.010000 1752.049041 1799.385719 1803.883678 1803.210591 1808.350283 1861.630467
57.090000 1755.138755 1802.761828 1807.396999 1806.999046 1813.474692 1864.237634
57.190000 1760.414085 1807.220226 1812.430266 1812.392441 1820.922674 1867.624345
57.290000 1764.054415 1810.417912 1817.173410 1817.412672 1827.707669 1871.063857
57.390000 1767.766434 1814.112196 1821.542316 1822.358884 1835.133843 1874.303697
57.490000 1771.067595 1817.555619 1826.292603 1827.681421 1841.665262 1877.719925
57.590000 1775.657968 1821.285668 1831.364007 1833.354555 1850.698934 1879.990391
57.690000 1785.860877 1824.724442 1836.928829 1840.271899 1863.394209 1882.568088
57.790000 1800.851865 1828.315935 1843.063218 1847.108421 1875.483998 1885.543106
57.890000 1809.770273 1832.060481 1849.432708 1853.122812 1882.213935 1888.426398
57.990000 1818.272565 1836.262751 1856.443856 1858.790625 1886.481342 1891.495709
58.090000 1825.652882 1840.448714 1865.273492 1864.648242 1890.189036 1894.664537
58.190000 1833.261566 1844.638469 1873.881491 1870.911217 1893.596773 1897.573878
58.290000 1839.124539 1848.690535 1883.077961 1877.037168 1897.047466 1900.685250
58.390000 1843.920898 1852.815110 1894.328820 1883.477901 1900.475943 1903.559342
58.490000 1848.217633 1856.659843 1900.505972 1889.153732 1903.744125 1906.398056
58.590000 1852.420903 1860.192856 1903.974258 1893.002600 1906.992248 1909.626402
58.690000 1856.765842 1864.002353 1907.318696 1896.637866 1910.343893 1912.848020
58.790000 1860.790443 1868.425659 1910.611297 1900.336024 1913.599645 1916.546312
58.890000 1863.649028 1872.798213 1913.928096 1904.078678 1916.945317 1920.005342
58.990000 1868.704304 1877.153957 1917.192630 1907.876691 1920.459921 1923.270620
59.090000 1872.194750 1881.579623 1920.541310 1911.636821 1923.785018 1926.481934
59.190000 1875.826438 1884.858739 1923.730192 1915.716764 1926.784746 1929.531744
59.290000 1879.319185 1888.768178 1926.922976 1919.556893 1929.912628 1932.675431
59.390000 1882.494256 1892.107041 1930.294995 1923.192503 1933.231939 1935.728339
59.490000 1885.662746 1894.802641 1933.567127 1926.670606 1936.450651 1938.713777
59.590000 1889.927508 1898.652716 1937.128587 1930.240432 1939.597474 1941.754873
59.690000 1893.747530 1901.978893 1941.281813 1934.415740 1943.408041 1946.148444
59.790000 1898.549612 1908.192166 1945.492147 1939.026501 1948.111258 1951.443170
59.890000 1902.641887 1912.945224 1949.298143 1943.078741 1952.414194 1957.194915
59.990000 1907.187135 1918.481538 1953.273111 1947.652158 1957.693346 1963.200327
60.090000 1911.043656 1925.159303 1958.212742 1952.831181 1964.039340 1969.902441
60.190000 1915.358425 1940.337550 1963.402673 1958.538225 1970.865126 1980.939099
60.290000 1920.267063 1954.868684 1968.630907 1964.427575 1979.071920 1990.613588
60.390000 1924.905958 1960.885281 1973.625092 1970.727380 1987.026629 1997.594904
60.490000 1930.095230 1964.387635 1981.611227 1977.382893 1993.831678 2007.344746
60.590000 1935.005085 1968.332541 1990.566843 1984.914953 2002.924361 2012.823398
60.690000 1941.202653 1972.080305 1999.638747 1992.533999 2010.628097 2017.397164
60.790000 1951.056435 1978.668701 2008.213247 1999.302812 2016.388262 2021.910138
60.890000 1962.411865 1985.657945 2013.323499 2005.401495 2020.503950 2025.794774
60.990000 1966.683609 1992.680152 2017.989628 2011.116649 2024.360598 2030.038316
61.090000 1971.094024 2010.127492 2021.972416 2016.516694 2028.182503 2034.413349
61.150000 1973.358842 2014.102051 2024.341731 2019.205660 2030.291553 2036.562679
61.190000 1975.133954 2016.342279 2026.036023 2020.942743 2032.056490 2038.199546
61.250000 1977.200663 2019.401966 2028.357020 2023.303871 2034.509892 2041.447246
61.290000 1978.860777 2021.590730 2029.977273 2025.101813 2036.810825 2044.925530
61.370000 1981.781671 2024.975571 2033.323529 2029.021363 2041.871062 2052.424236
61.470000 1985.225069 2028.555183 2038.324685 2034.756250 2050.977081 2056.801289
61.530000 1987.355893 2031.077380 2041.479147 2038.140196 2054.452550 2058.862533
61.650000 1992.307261 2039.706776 2054.845976 2046.766676 2061.126905 2063.415841
61.750000 1995.761486 2048.709319 2062.838021 2053.994300 2065.645328 2068.017157
61.850000 1998.609811 2061.608086 2066.440554 2058.389480 2069.070787 2071.719278
61.950000 2001.267044 2065.892546 2069.673555 2061.743712 2072.177441 2074.514320
62.050000 2003.722923 2069.435590 2072.846329 2064.903365 2075.017940 2077.591812
62.150000 2006.436172 2072.572295 2075.979944 2068.110017 2078.232111 2081.149473
62.240000 2008.891548 2075.454714 2078.669188 2071.094661 2081.144682 2084.359488
62.340000 2012.615370 2078.097070 2081.635717 2074.557861 2084.489127 2087.963593
62.440000 2016.255895 2080.728749 2084.407018 2077.805553 2087.495197 2091.056892
62.540000 2020.828765 2083.478690 2087.312934 2081.059430 2090.631942 2093.997989
62.640000 2028.530141 2086.186031 2090.125176 2084.315031 2093.562279 2097.559004
62.740000 2039.056941 2088.940469 2093.032140 2087.662881 2096.845738 2100.562657
62.860000 2044.325510 2092.546370 2096.804720 2091.546876 2100.983398 2104.303603
62.960000 2049.354206 2095.540075 2100.319047 2095.037419 2104.204990 2107.907077
63.040000 2052.565665 2098.101594 2103.194790 2097.948700 2107.164761 2110.408000
63.140000 2057.589642 2101.158313 2106.770746 2101.572736 2110.513574 2113.480530
63.240000 2065.012155 2104.367283 2109.940067 2105.308348 2113.432366 2116.094361
63.340000 2073.634316 2107.586361 2112.872407 2108.771254 2116.044311 2118.400953
63.440000 2079.549683 2110.671075 2115.614754 2112.125500 2118.467809 2120.754321
63.540000 2084.028288 2113.955761 2118.366704 2115.350832 2120.984109 2123.370932
63.640000 2089.293011 2117.069031 2121.009629 2118.625959 2123.534255 2125.818148
63.730000 2094.459623 2119.905094 2123.557630 2121.625547 2126.074392 2128.093038
63.830000 2101.484945 2123.406201 2126.495062 2125.212070 2129.096953 2131.474289
63.930000 2110.512905 2127.113608 2129.865806 2129.260751 2132.612783 2135.458764
64.030000 2126.101814 2131.149611 2133.658293 2133.443866 2136.532082 2139.448686
64.130000 2130.881070 2134.813320 2137.879422 2137.712518 2141.002734 2143.727878
64.230000 2135.446032 2139.479882 2143.035780 2142.761357 2145.934387 2148.676814
64.350000 2144.830438 2148.193293 2151.210001 2151.423933 2154.700775 2158.599815
64.450000 2149.159048 2153.092648 2156.807513 2156.712637 2160.387015 2163.594911
64.530000 2152.754757 2157.048307 2160.762512 2160.612811 2164.163742 2166.897469
64.630000 2158.701963 2162.259620 2165.738490 2165.379894 2168.456343 2170.633121
64.730000 2163.666553 2167.043510 2170.054356 2169.674514 2172.157509 2174.133281
64.830000 2168.631417 2171.411494 2173.636856 2173.427902 2175.404484 2177.265497
64.930000 2172.464838 2175.068374 2176.741031 2176.756753 2178.546397 2180.588513
65.030000 2175.880906 2178.079455 2179.734292 2179.774190 2181.529386 2183.772640
65.130000 2178.980483 2180.747996 2182.609889 2182.640155 2184.480067 2186.512549
65.220000 2181.557479 2183.407834 2185.278862 2185.264676 2187.099323 2189.213756
65.320000 2184.711867 2186.515124 2188.364646 2188.546317 2190.584539 2192.915052
65.420000 2187.811929 2189.730213 2191.756801 2192.037904 2194.367277 2197.502881
65.520000 2190.562931 2192.578074 2194.870326 2195.264717 2197.875847 2202.400766
65.620000 2193.452033 2196.011388 2198.413727 2198.780376 2201.616542 2205.922299
65.720000 2196.839788 2199.554345 2202.416524 2202.648964 2205.523972 2210.934059
65.840000 2201.142867 2204.617763 2207.508514 2207.940556 2211.229462 2217.294610
65.940000 2205.118635 2208.376338 2211.457581 2212.261786 2216.608631 2222.334093
66.020000 2208.297429 2211.320343 2214.935387 2215.739586 2220.591607 2225.902809
66.120000 2211.917638 2214.858220 2219.549122 2220.164607 2225.424844 2230.381587
66.220000 2215.198662 2219.539492 2224.873477 2225.130587 2229.809191 2234.453601
66.320000 2220.314262 2225.481006 2230.264228 2230.269577 2233.576977 2238.789534
66.420000 2227.474631 2231.690877 2234.933893 2235.448031 2237.901142 2246.560375
66.520000 2232.604504 2235.738907 2238.481132 2239.532520 2241.818891 2262.752728
66.620000 2236.155492 2238.723659 2241.545768 2243.384957 2245.177155 2276.406642
66.710000 2238.831883 2241.419709 2244.124105 2247.032414 2248.466085 2280.012709
66.810000 2241.850617 2244.411637 2247.524465 2251.846140 2257.694760 2284.083282
66.910000 2244.763703 2247.934552 2251.969805 2258.335705 2274.699012 2289.912333
67.010000 2249.286937 2253.945083 2269.022596 2269.102939 2279.130896 2308.749646
67.110000 2255.096825 2272.629889 2277.627170 2279.796091 2283.389499 2317.402677
67.210000 2270.974873 2278.590473 2282.786085 2285.696472 2287.706457 2322.873997
67.330000 2279.736957 2284.689141 2288.262984 2292.158819 2294.841792 2328.615803
67.430000 2285.665639 2289.530846 2293.347854 2297.839525 2303.650141 2332.923752
67.510000 2290.410317 2293.944116 2297.957594 2302.447339 2310.088016 2337.069664
67.610000 2294.759774 2298.738748 2304.430719 2309.058051 2325.455882 2342.429610
67.710000 2299.839282 2305.954413 2314.570613 2317.921421 2332.440553 2349.282927
67.810000 2308.595030 2317.850476 2327.925217 2328.297874 2337.779394 2361.287646
67.890000 2317.475991 2329.096346 2335.375678 2336.117739 2343.027399 2374.038786
67.910000 2319.129290 2330.678901 2336.778804 2337.469943 2344.065543 2374.816439
67.990000 2325.575456 2335.722140 2342.697439 2342.612240 2348.282180 2379.762349
68.010000 2327.010066 2336.875332 2344.068720 2343.826520 2349.270165 2381.129556
68.090000 2331.082519 2341.800490 2349.192736 2348.990067 2354.247012 2385.198984
68.190000 2339.077077 2348.128481 2353.720047 2354.765186 2360.030353 2389.933076
68.290000 2351.165298 2355.278820 2359.617695 2361.079171 2365.210918 2395.517769
68.390000 2356.426128 2361.092332 2366.346841 2367.186296 2370.724769 2399.501167
68.490000 2363.224518 2369.296929 2373.375028 2374.888464 2378.344189 2403.963635
68.590000 2374.454591 2377.801363 2381.574281 2383.867448 2389.277925 2409.830363
68.690000 2379.572644 2385.183332 2391.709277 2392.913204 2400.956360 2413.695552
68.790000 2388.096577 2394.673972 2402.561620 2402.280603 2409.699427 2418.012355
68.890000 2398.127684 2407.226850 2413.130865 2412.585049 2418.297267 2422.752120
68.990000 2409.086292 2415.720664 2421.516074 2420.476012 2425.401386 2427.814044
69.090000 2423.102128 2426.932781 2429.175378 2428.934538 2431.099132 2433.381080
