depth(m) lower_95(kyr) lower_68(kyr) median(kyr) mean(kyr) upper_68(kyr) upper_95(kyr)
43.970000 1401.372785 1402.225189 1403.002765 1403.034005 1403.883186 1404.687147
44.070000 1403.997307 1404.976239 1405.982713 1406.156086 1407.226189 1409.560861
44.180000 1406.958405 1408.308945 1410.124568 1410.312098 1412.256378 1415.018433
44.270000 1409.202143 1411.450003 1413.603330 1413.645824 1415.668042 1418.674644
44.370000 1412.094701 1415.474268 1417.564814 1417.578221 1419.899656 1422.426795
44.470000 1415.204734 1418.565358 1420.841394 1420.763722 1423.038903 1425.103872
44.570000 1418.883568 1421.667147 1423.768442 1423.721789 1425.770263 1427.665833
44.670000 1422.893850 1425.204751 1427.240684 1427.397895 1429.538517 1433.223882
44.770000 1425.773842 1427.562490 1429.714428 1430.203186 1432.922566 1437.001004
44.880000 1428.395184 1430.184948 1432.791538 1433.344401 1436.641819 1441.244250
44.970000 1430.528897 1432.442452 1435.605771 1436.081598 1439.681513 1443.934718
45.070000 1433.096430 1435.261986 1438.884288 1439.142284 1442.982648 1446.946914
45.170000 1435.603242 1438.598019 1442.354719 1442.456208 1446.441164 1449.686651
45.270000 1438.901014 1442.500788 1446.694976 1446.323931 1450.128600 1452.271544
45.370000 1443.321037 1447.864642 1451.531082 1450.890427 1453.885146 1455.559162
45.470000 1451.444662 1453.587466 1455.296486 1455.149236 1456.723073 1457.937675
45.570000 1454.989606 1456.252088 1457.665491 1457.630480 1458.996819 1460.079044
45.660000 1456.733949 1458.254323 1459.589586 1459.521927 1460.822172 1461.924419
45.680000 1457.125825 1458.742687 1460.053567 1459.999426 1461.308192 1462.386097
45.760000 1458.972044 1460.393930 1461.655937 1461.645318 1462.919969 1464.020745
45.860000 1461.134478 1462.434337 1463.745471 1463.705098 1464.963911 1466.191925
45.960000 1463.213462 1464.448300 1465.767209 1465.771307 1467.049960 1468.292753
46.060000 1465.198744 1466.606649 1468.039127 1468.127303 1469.503700 1471.877783
46.160000 1467.225607 1468.851211 1470.576808 1471.106885 1473.155773 1478.877754
46.260000 1470.247702 1472.524817 1475.809733 1476.512594 1481.045711 1485.429050
46.360000 1473.152908 1476.567345 1481.102497 1481.039017 1485.730952 1488.135437
46.460000 1475.925215 1480.265542 1485.082982 1484.589248 1488.562359 1490.320489
46.560000 1480.321780 1484.924707 1488.857179 1488.091780 1491.033434 1492.576075
46.660000 1485.229266 1489.888097 1492.068258 1491.669040 1493.552580 1495.114164
46.760000 1492.988280 1494.229351 1495.583780 1495.835712 1497.580999 1499.725015
46.860000 1495.363808 1496.550515 1498.288722 1498.574713 1500.677049 1503.320960
46.960000 1497.173171 1498.668122 1500.657868 1500.931352 1503.286123 1505.941179
47.060000 1499.145657 1500.802730 1503.111661 1503.307126 1505.767797 1508.778268
47.160000 1501.192597 1503.109747 1505.480165 1505.572048 1508.004918 1510.938028
47.260000 1503.793854 1505.889341 1508.255573 1508.454986 1510.986384 1514.186269
47.360000 1507.868718 1510.392115 1512.934464 1513.143536 1515.993811 1519.398875
47.460000 1510.859593 1513.350960 1516.023874 1516.330652 1519.650939 1522.569993
47.560000 1513.367080 1515.923648 1519.103959 1519.172908 1522.488619 1525.032727
47.660000 1515.937742 1518.571429 1522.204065 1522.063547 1525.184228 1527.639665
47.760000 1519.261328 1522.264747 1525.657233 1525.322305 1528.262528 1530.594057
47.860000 1523.870912 1526.933561 1529.595859 1529.414823 1531.663527 1533.983285
47.960000 1528.684252 1530.840180 1532.865969 1532.872474 1534.929693 1537.527455
48.060000 1531.532107 1533.507667 1535.474609 1535.537813 1537.684444 1539.755552
48.160000 1534.049923 1535.904246 1537.979256 1538.044470 1540.191795 1542.290238
48.260000 1536.745582 1538.587834 1540.661896 1540.891466 1543.245004 1545.861561
48.360000 1539.439497 1541.717514 1544.192740 1544.276222 1546.793990 1549.733782
48.460000 1541.919307 1544.281644 1546.956442 1547.021663 1549.717779 1552.605112
48.560000 1544.475775 1546.447472 1549.270701 1549.397489 1552.127387 1555.278004
48.660000 1546.456403 1548.875876 1551.669635 1551.673070 1554.427298 1557.295254
48.760000 1548.530453 1550.892465 1553.643807 1553.709036 1556.444159 1559.115061
48.860000 1550.397873 1553.040789 1555.764686 1555.822473 1558.612038 1561.198281
48.960000 1552.416600 1555.190501 1557.827142 1557.861120 1560.617796 1563.094023
49.060000 1554.605366 1557.307193 1559.953023 1559.967794 1562.620670 1565.180458
49.160000 1556.920044 1559.518196 1562.107666 1562.040730 1564.581120 1566.999939
49.260000 1559.248505 1561.639989 1564.126276 1564.163227 1566.612803 1569.009093
49.360000 1561.254577 1563.812234 1566.197855 1566.325976 1568.785951 1571.523217
49.460000 1563.812537 1565.968927 1568.620535 1568.795504 1571.672109 1574.761731
49.560000 1565.716012 1568.446325 1570.978237 1571.381849 1574.657923 1578.400134
49.660000 1567.986329 1570.573738 1573.185372 1573.717597 1577.102224 1581.983860
49.760000 1570.751734 1573.282465 1575.974412 1576.355741 1579.581471 1584.198790
49.860000 1573.410342 1575.917287 1578.902229 1579.087147 1582.030796 1586.408182
49.960000 1575.870390 1578.781177 1581.879927 1582.057789 1585.388970 1589.330358
50.060000 1578.659082 1581.482399 1584.572672 1584.989007 1588.768893 1592.512475
50.160000 1581.317292 1584.229620 1587.599216 1587.826576 1591.711307 1595.127744
50.260000 1583.661269 1586.583466 1590.400143 1590.474277 1594.400137 1597.966114
50.360000 1585.423281 1589.112180 1593.463827 1593.387288 1597.635898 1601.125267
50.460000 1587.550241 1591.680780 1595.943615 1595.851022 1599.998635 1603.618391
50.560000 1590.493014 1594.226455 1598.497510 1598.320607 1602.120945 1606.498295
50.660000 1593.347555 1596.830230 1600.994296 1600.878983 1604.414568 1608.853164
50.760000 1596.460771 1600.264390 1603.712184 1603.572486 1606.436060 1611.266996
50.860000 1599.677765 1603.361576 1606.313546 1606.254959 1608.804323 1614.261460
50.960000 1603.385844 1606.662857 1608.885887 1609.096902 1611.411203 1616.904568
51.060000 1606.653568 1609.175707 1611.324923 1611.678005 1614.014857 1619.505464
51.160000 1609.163122 1611.527073 1613.695516 1614.134780 1616.679380 1621.960953
51.260000 1611.509463 1613.662998 1616.021199 1616.569941 1619.912103 1624.246478
51.360000 1613.437156 1615.733984 1618.544448 1619.049332 1622.569112 1626.807044
51.460000 1615.636523 1618.085585 1621.226626 1621.679975 1625.452860 1629.074764
51.560000 1618.089403 1620.723252 1624.297661 1624.441222 1628.270058 1631.962872
51.660000 1620.531863 1623.814403 1627.547763 1627.548840 1631.384254 1634.670433
51.760000 1623.299931 1627.680772 1631.075839 1631.068811 1634.713903 1637.552071
51.860000 1626.172311 1630.749992 1634.372318 1634.178278 1637.686081 1640.564526
51.960000 1628.991316 1633.689663 1637.923200 1637.380007 1640.925050 1643.726293
52.060000 1631.190216 1636.925978 1641.113484 1640.758058 1644.386917 1648.518497
52.160000 1633.867779 1639.538470 1644.004290 1643.886411 1648.142555 1653.220699
52.260000 1636.510837 1641.987848 1646.639197 1646.821376 1651.937671 1657.113821
52.360000 1638.223423 1644.109086 1648.959050 1649.273741 1654.748612 1659.989632
52.460000 1641.292048 1646.383624 1651.261806 1651.721530 1657.347173 1663.385857
52.560000 1643.950035 1649.105370 1653.879161 1654.338533 1659.494751 1666.216319
52.660000 1646.602891 1652.037019 1656.690391 1657.081157 1661.690423 1668.522743
52.760000 1648.815492 1655.139753 1659.788855 1660.043909 1664.596899 1671.462558
52.870000 1651.344832 1658.776979 1663.511973 1663.752770 1668.621758 1675.930492
53.008000 1654.626087 1662.522389 1668.617394 1669.081819 1675.998345 1683.152501
53.146000 1657.994110 1666.842523 1674.339226 1674.629311 1682.407591 1692.665822
53.284000 1662.225505 1671.625558 1680.558052 1680.495717 1689.183005 1698.642054
53.422000 1665.352632 1676.566096 1686.882035 1686.200185 1695.277241 1703.191247
53.560000 1669.781178 1683.058027 1693.027044 1691.867971 1700.688866 1708.411156
53.660000 1671.552445 1687.721550 1696.545012 1695.661703 1704.379668 1711.383072
53.760000 1673.670698 1691.762270 1700.665158 1699.438884 1707.876594 1714.017728
53.860000 1675.932036 1696.338629 1704.126489 1703.009351 1711.115829 1717.015961
53.960000 1678.218563 1700.050817 1707.813343 1706.527599 1714.349516 1719.511484
54.060000 1680.406199 1703.903973 1711.351148 1710.095629 1717.665423 1722.171740
54.160000 1681.984209 1707.544154 1715.176190 1713.619936 1720.819874 1725.472508
54.260000 1684.031431 1711.133597 1718.511247 1716.826956 1723.976982 1728.046736
54.370000 1685.775819 1714.543066 1721.861685 1720.116889 1726.668642 1731.275059
54.460000 1687.067408 1717.598516 1724.679984 1722.966752 1729.050047 1734.204563
54.560000 1689.609934 1721.328023 1728.035769 1726.173216 1731.504022 1736.695942
54.660000 1692.554035 1725.088731 1731.166675 1729.368135 1734.280107 1739.437302
54.710000 1693.426691 1726.590580 1732.660063 1731.023610 1735.885332 1740.892233
54.740000 1694.831610 1727.774069 1733.691796 1732.000865 1736.808021 1741.820018
54.810000 1695.803242 1730.750086 1735.807589 1734.282730 1738.727003 1743.930636
54.860000 1697.228162 1733.079316 1737.486558 1735.985903 1740.505451 1745.552035
54.910000 1701.507561 1735.129442 1739.006437 1737.794072 1742.384733 1746.945510
55.010000 1706.916707 1738.412229 1742.369975 1741.510095 1746.683085 1750.909225
55.110000 1713.521056 1741.360069 1745.826082 1745.062949 1750.656283 1755.423484
55.210000 1722.577855 1744.192044 1749.423392 1748.683717 1754.593265 1760.602581
55.350000 1734.859309 1747.618407 1753.552480 1753.099200 1759.538063 1765.395561
55.490000 1739.851480 1751.486444 1757.788505 1757.402061 1763.678934 1770.579527
55.630000 1747.541173 1755.474818 1761.797691 1761.680015 1767.770042 1775.919207
55.770000 1754.687033 1759.991507 1766.029149 1766.333286 1772.079911 1780.572963
55.910000 1760.568632 1765.108878 1770.300937 1771.039149 1776.162532 1784.911324
56.010000 1763.766684 1768.949579 1774.008170 1774.767335 1780.166260 1788.648610
56.110000 1767.830371 1772.475960 1777.833500 1778.559956 1784.082586 1792.355249
56.210000 1771.560257 1776.476405 1782.139564 1782.589467 1787.982008 1796.620677
56.310000 1774.763501 1780.993935 1786.689535 1787.031955 1792.245212 1800.804242
56.410000 1782.064283 1787.161466 1792.603197 1792.846943 1797.449850 1804.878840
56.510000 1787.369220 1791.628624 1797.386148 1797.590301 1802.538277 1809.796194
56.610000 1791.813428 1796.549289 1802.275182 1802.443650 1807.359448 1817.528462
56.710000 1795.247421 1801.890557 1807.624249 1807.846070 1813.696318 1822.611560
56.810000 1801.319120 1806.975509 1812.759905 1813.149882 1819.505786 1828.590953
56.910000 1804.878043 1811.005285 1817.417647 1817.613334 1824.173206 1832.841291
57.030000 1808.080351 1814.943804 1822.537960 1822.686176 1830.453723 1837.584266
57.110000 1811.136148 1817.833567 1825.704383 1825.892400 1834.141728 1841.615430
57.210000 1814.549457 1821.343937 1829.730427 1829.790019 1838.202744 1844.379891
57.310000 1817.939160 1825.651751 1834.013705 1833.741924 1841.669144 1847.763131
57.410000 1822.024220 1830.177965 1837.781872 1837.556058 1845.665431 1850.996179
57.510000 1826.097440 1833.723427 1842.107123 1841.479672 1849.015081 1854.376232
57.610000 1830.119287 1838.007935 1846.170473 1845.422481 1852.544310 1856.992829
57.710000 1835.723135 1842.323604 1849.869046 1849.317690 1855.640449 1860.037863
57.810000 1839.874487 1846.702191 1853.797504 1853.067244 1858.915623 1862.981844
57.910000 1843.849863 1850.941987 1857.465175 1856.685521 1861.938635 1866.365077
58.010000 1847.011088 1854.506677 1860.911882 1859.971995 1864.842759 1868.920167
58.110000 1850.841003 1858.152933 1863.845987 1863.092286 1867.630554 1871.375670
58.210000 1854.488460 1862.121715 1866.734625 1866.150614 1870.492702 1873.627621
58.310000 1857.309908 1865.219870 1869.765426 1868.966492 1873.277251 1875.837817
58.410000 1860.691356 1868.297709 1872.388851 1871.727741 1875.669922 1877.971632
58.530000 1866.504904 1871.449546 1875.638804 1875.027611 1878.456584 1880.964574
58.610000 1869.195554 1873.859053 1877.669684 1877.228768 1880.581496 1882.878390
58.710000 1873.486879 1876.840823 1880.128769 1879.880432 1883.092387 1885.273315
58.810000 1876.806673 1879.615603 1882.617159 1882.514845 1885.239056 1888.083188
58.910000 1879.556777 1882.483017 1885.345517 1885.200791 1887.850873 1890.438434
59.010000 1882.252437 1885.391924 1887.954503 1887.825053 1890.342690 1892.506950
59.110000 1885.030662 1888.118162 1890.538399 1890.378926 1892.653095 1894.757387
59.210000 1887.536738 1890.647099 1893.132305 1892.904627 1895.272677 1896.872496
59.310000 1890.264518 1893.146855 1895.490004 1895.325755 1897.527730 1899.182826
59.410000 1893.307812 1895.591430 1897.843184 1897.698535 1899.747982 1901.692301
59.510000 1896.092106 1898.324615 1900.377649 1900.357590 1902.327720 1904.446676
59.610000 1898.650284 1900.818267 1902.760341 1902.803794 1904.760769 1907.059129
59.710000 1900.895209 1903.037515 1904.978101 1905.063760 1907.147075 1909.545549
59.810000 1902.952614 1905.188871 1907.273629 1907.337929 1909.570004 1912.061206
59.910000 1904.959365 1907.291529 1909.514930 1909.551049 1911.888324 1914.620512
60.010000 1906.897032 1909.159317 1911.573795 1911.634985 1914.134106 1916.458174
60.110000 1909.081829 1911.322518 1913.684118 1913.727731 1916.134983 1918.790477
60.210000 1911.142302 1913.550330 1915.989953 1915.997142 1918.326621 1921.080064
60.310000 1913.478084 1915.858208 1918.394773 1918.428183 1920.781997 1923.631412
60.410000 1915.830468 1918.446873 1920.973930 1921.017494 1923.592671 1926.640868
60.510000 1918.428131 1920.973127 1923.493039 1923.696114 1926.678144 1929.544028
60.610000 1921.348542 1923.626971 1926.402143 1926.618333 1929.654066 1933.117635
60.710000 1924.362445 1927.045646 1929.874690 1930.066607 1933.293326 1936.214551
60.810000 1927.923939 1930.589519 1933.817151 1933.654801 1936.613022 1939.073160
60.910000 1931.318886 1934.749691 1937.971522 1937.712427 1940.300166 1943.224817
61.010000 1938.108190 1941.191455 1943.715929 1944.053926 1947.131362 1951.720124
61.110000 1943.431999 1945.915531 1948.820518 1949.116221 1952.343914 1956.077081
61.210000 1946.228330 1950.578203 1953.927522 1953.922492 1957.227737 1961.538259
61.310000 1950.737407 1954.766251 1958.053574 1958.210956 1961.817069 1965.977798
61.410000 1954.902902 1958.381258 1962.037794 1962.167717 1965.885913 1970.382931
61.530000 1959.451752 1963.740603 1967.550198 1967.736742 1971.782055 1977.043948
61.610000 1963.924411 1967.485623 1971.439776 1971.767940 1975.851516 1980.813216
61.710000 1968.612625 1972.367510 1976.767802 1977.023122 1981.736310 1986.869978
61.810000 1973.250585 1977.181308 1982.200376 1982.042786 1986.587868 1991.078988
61.910000 1977.679501 1982.586227 1987.229836 1986.906824 1991.069261 1994.476889
62.010000 1983.061282 1988.820214 1992.812867 1992.300521 1995.816408 1998.550422
62.110000 1988.779831 1993.120046 1996.424700 1996.096810 1998.990893 2001.660689
62.210000 1993.928098 1997.113980 1999.702151 1999.583526 2002.013787 2004.562756
62.310000 1997.204129 1999.845121 2002.380831 2002.329321 2004.793092 2007.396774
62.410000 1999.404230 2002.322746 2004.787145 2004.868404 2007.406156 2010.194334
62.510000 2002.457489 2004.776114 2007.252826 2007.405677 2010.117977 2012.915648
62.610000 2004.960331 2007.496189 2009.920322 2010.157702 2013.007739 2016.135627
62.630000 2005.438616 2008.054887 2010.580045 2010.783339 2013.714110 2016.725941
62.710000 2008.039093 2010.309671 2013.156966 2013.298676 2016.434953 2019.194504
62.730000 2008.579213 2010.969494 2013.908242 2014.037721 2017.159158 2020.089913
62.830000 2011.985348 2014.856300 2018.397820 2018.475868 2021.800724 2025.358415
62.930000 2015.602560 2018.975030 2022.466031 2022.240340 2025.568507 2028.678012
63.040000 2019.504626 2022.444031 2026.163238 2025.883001 2029.033472 2031.496052
63.120000 2022.485071 2024.887389 2028.818510 2028.495640 2031.502566 2034.067797
63.130000 2022.877696 2025.284756 2029.198642 2028.858636 2031.838871 2034.318116
63.220000 2025.622525 2028.946111 2032.607184 2032.180517 2035.032771 2037.275973
63.230000 2025.878222 2029.333047 2033.062883 2032.590904 2035.499283 2037.525267
63.320000 2030.074801 2034.238585 2037.110133 2036.787798 2039.326509 2041.367095
63.330000 2030.428484 2034.621801 2037.568835 2037.177891 2039.658654 2041.800056
63.420000 2034.971330 2038.323139 2040.757789 2040.492544 2042.420287 2044.746336
63.430000 2035.481823 2038.713879 2041.119250 2040.842149 2042.757332 2045.237133
63.520000 2038.275472 2041.530083 2043.525096 2043.385738 2045.199809 2048.124887
63.530000 2038.568368 2041.868310 2043.809445 2043.681951 2045.564445 2048.327610
63.620000 2040.980782 2044.495577 2046.050841 2046.152174 2048.175502 2050.795439
63.630000 2041.215709 2044.787263 2046.347542 2046.467928 2048.458637 2051.017143
63.720000 2044.332368 2047.287699 2049.044363 2049.153794 2051.266108 2053.403010
63.730000 2044.704430 2047.650570 2049.353794 2049.481556 2051.649323 2053.629752
63.820000 2048.174495 2050.525543 2052.320771 2052.335156 2054.357289 2056.123408
63.840000 2048.964544 2051.086668 2053.013559 2052.979428 2054.921277 2056.805733
63.920000 2051.595815 2053.317678 2055.363055 2055.310852 2057.269324 2059.293250
63.930000 2051.959870 2053.687432 2055.696670 2055.635695 2057.559290 2059.533337
64.020000 2054.545253 2056.406222 2058.479476 2058.369211 2060.315748 2062.116648
64.120000 2057.235078 2059.257425 2061.341253 2061.327269 2063.504022 2065.111334
64.130000 2057.545661 2059.597129 2061.627912 2061.630787 2063.756441 2065.466849
64.220000 2060.037685 2061.954451 2064.004316 2063.920266 2065.888005 2067.550191
64.320000 2062.579537 2064.268213 2066.151962 2066.152144 2067.987214 2069.766238
64.420000 2065.066978 2066.600017 2068.359764 2068.353705 2070.068339 2071.701377
64.520000 2067.111329 2068.752438 2070.467196 2070.503577 2072.275320 2074.101073
64.620000 2069.191677 2070.877888 2072.601086 2072.651265 2074.390497 2076.514907
64.720000 2071.297158 2072.979237 2074.814512 2074.930755 2076.768548 2079.867836
64.820000 2073.459473 2075.322988 2077.284977 2077.653991 2079.817219 2084.500213
64.920000 2076.073072 2077.755406 2080.232836 2080.835665 2084.240818 2088.906181
65.020000 2078.452362 2080.250867 2083.429083 2084.190812 2088.094934 2093.204985
65.140000 2081.234714 2083.238169 2087.324689 2088.115218 2093.192796 2098.688839
65.220000 2082.947414 2085.269042 2089.683403 2090.469016 2095.960913 2101.862348
65.320000 2085.213629 2087.802758 2092.402608 2093.164829 2098.684484 2104.789745
65.420000 2087.629048 2090.673297 2095.105332 2095.902499 2101.680659 2107.089977
65.520000 2090.500842 2093.546791 2098.191274 2098.811253 2104.219972 2109.999742
65.620000 2093.370462 2096.790325 2101.385070 2101.959484 2107.099796 2112.792439
65.720000 2096.170694 2100.020681 2105.164208 2105.158909 2109.992342 2115.626955
65.820000 2099.148842 2103.383388 2108.686154 2108.616159 2113.470040 2118.350469
65.920000 2102.405239 2107.518760 2112.508429 2112.349761 2117.025833 2121.514302
66.020000 2106.948462 2111.897862 2116.323183 2116.198551 2120.517882 2124.898666
66.120000 2111.891468 2116.650569 2120.642990 2120.358485 2123.978375 2127.439778
66.220000 2117.040592 2121.317333 2124.803833 2124.681064 2128.036751 2131.498645
66.320000 2124.142889 2127.398774 2130.337051 2130.339647 2133.376522 2136.391738
66.420000 2128.927891 2131.606522 2134.126035 2134.301634 2137.113874 2139.787487
66.520000 2132.759203 2135.266305 2138.038751 2138.177991 2141.117135 2144.483849
66.620000 2136.589724 2139.668057 2142.722150 2142.857003 2145.868733 2149.904162
66.720000 2141.680108 2144.640528 2147.257220 2147.467533 2150.385880 2154.174577
66.820000 2146.216029 2148.602295 2151.160881 2151.378117 2154.303000 2157.530975
66.920000 2149.553586 2151.955279 2154.740170 2154.823332 2157.766013 2160.002138
