depth(m) lower_95(kyr) lower_68(kyr) median(kyr) mean(kyr) upper_68(kyr) upper_95(kyr)
102.410000 1398.528351 1399.244536 1399.980363 1399.937050 1400.617861 1401.154410
102.450000 1399.017201 1399.750404 1400.433152 1400.399169 1401.060271 1401.502815
102.490000 1399.455142 1400.183945 1400.917932 1400.843998 1401.480883 1401.932065
102.530000 1399.903426 1400.624010 1401.375278 1401.278768 1401.896902 1402.367694
102.550000 1400.218663 1400.861393 1401.596179 1401.519941 1402.121522 1402.615311
102.570000 1400.469505 1401.116854 1401.827448 1401.747499 1402.340311 1402.798596
102.610000 1400.985417 1401.574447 1402.251648 1402.185560 1402.751856 1403.178478
102.630000 1401.299928 1401.830051 1402.502673 1402.435899 1402.989318 1403.368126
102.650000 1401.561998 1402.123880 1402.745554 1402.686414 1403.228676 1403.636746
102.690000 1402.160274 1402.720759 1403.208890 1403.205171 1403.686853 1404.159210
102.710000 1402.488422 1403.018094 1403.468758 1403.483188 1403.935016 1404.425767
102.730000 1402.865185 1403.306884 1403.755771 1403.764726 1404.230196 1404.701425
102.750000 1403.159909 1403.590449 1404.020102 1404.037970 1404.498309 1405.034868
102.770000 1403.467214 1403.871926 1404.275733 1404.307100 1404.770169 1405.286447
102.790000 1403.696322 1404.138490 1404.559344 1404.581143 1405.055225 1405.587500
102.810000 1404.033995 1404.403571 1404.812557 1404.845477 1405.298215 1405.780741
102.830000 1404.272458 1404.640777 1405.098601 1405.105898 1405.588412 1406.047657
102.850000 1404.474861 1404.869418 1405.358048 1405.358496 1405.851495 1406.344934
102.870000 1404.680307 1405.096537 1405.589533 1405.598126 1406.102513 1406.607453
102.890000 1404.940313 1405.323959 1405.824137 1405.836834 1406.359400 1406.868642
102.910000 1405.151650 1405.561267 1406.051614 1406.073130 1406.593774 1407.069026
102.930000 1405.395502 1405.807368 1406.296475 1406.321409 1406.863539 1407.302697
102.950000 1405.604274 1406.043112 1406.527904 1406.566325 1407.140411 1407.537707
102.970000 1405.813948 1406.282371 1406.778122 1406.804286 1407.385034 1407.752333
103.010000 1406.232603 1406.707447 1407.265852 1407.251354 1407.831179 1408.192986
103.030000 1406.464458 1406.941456 1407.507310 1407.488550 1408.068142 1408.434846
103.070000 1406.923251 1407.377644 1407.946704 1407.915418 1408.465319 1408.887163
103.110000 1407.290546 1407.744478 1408.345545 1408.309861 1408.830503 1409.269685
103.130000 1407.466761 1407.939717 1408.556293 1408.521996 1409.048012 1409.472217
103.150000 1407.665396 1408.144978 1408.772003 1408.729241 1409.251676 1409.689861
103.170000 1407.847100 1408.335071 1408.991241 1408.929316 1409.465075 1409.876103
103.205000 1408.155924 1408.654854 1409.307373 1409.249719 1409.787365 1410.205686
103.225000 1408.312468 1408.859648 1409.504930 1409.439305 1409.978821 1410.379076
103.245000 1408.503472 1409.048747 1409.687417 1409.628748 1410.160974 1410.556590
103.285000 1408.854681 1409.412135 1410.049255 1409.987674 1410.536211 1410.952558
103.305000 1409.029338 1409.602674 1410.237157 1410.174206 1410.716805 1411.142341
103.365000 1409.560405 1410.123576 1410.765402 1410.681518 1411.206410 1411.631940
103.385000 1409.731037 1410.302367 1410.953796 1410.869934 1411.391339 1411.813509
103.405000 1409.923620 1410.493627 1411.155896 1411.067472 1411.586477 1412.015808
103.425000 1410.117718 1410.680919 1411.351505 1411.258552 1411.757381 1412.200286
103.465000 1410.500970 1411.062383 1411.689203 1411.608998 1412.095230 1412.555849
103.485000 1410.738126 1411.241759 1411.871192 1411.794350 1412.287269 1412.722545
103.505000 1410.967913 1411.424203 1412.076747 1411.986099 1412.470897 1412.926223
103.525000 1411.157040 1411.600230 1412.258495 1412.174143 1412.644755 1413.150286
103.545000 1411.321840 1411.796887 1412.429528 1412.363408 1412.829821 1413.303644
103.565000 1411.500376 1411.998784 1412.609729 1412.549227 1413.002770 1413.511328
103.605000 1411.860491 1412.367836 1412.940231 1412.890882 1413.365428 1413.880791
103.625000 1412.048788 1412.551765 1413.110360 1413.073722 1413.518147 1414.060793
103.665000 1412.403158 1412.894695 1413.441392 1413.414723 1413.883543 1414.408901
103.705000 1412.731310 1413.232850 1413.784122 1413.760557 1414.228278 1414.756982
103.725000 1412.946985 1413.434786 1413.972285 1413.952249 1414.408653 1414.966772
103.745000 1413.103218 1413.631617 1414.166950 1414.152931 1414.607179 1415.185418
103.765000 1413.319783 1413.847946 1414.373555 1414.359869 1414.821508 1415.351795
103.785000 1413.523782 1414.069318 1414.589577 1414.578357 1415.058726 1415.558166
103.805000 1413.731726 1414.296271 1414.794153 1414.793666 1415.261093 1415.798660
103.825000 1413.964248 1414.511948 1415.014311 1415.017581 1415.492080 1416.081778
103.865000 1414.402340 1414.908875 1415.415919 1415.431450 1415.958813 1416.589150
103.885000 1414.606490 1415.134410 1415.622421 1415.659383 1416.176817 1416.896562
103.905000 1414.834586 1415.354030 1415.869594 1415.899459 1416.391779 1417.257512
103.925000 1415.088692 1415.634142 1416.111157 1416.152649 1416.638780 1417.512568
103.945000 1415.328810 1415.898727 1416.365334 1416.399609 1416.893173 1417.783942
103.965000 1415.598590 1416.137423 1416.602098 1416.650727 1417.177750 1418.070533
103.985000 1415.861694 1416.369776 1416.837191 1416.892650 1417.423650 1418.314430
104.005000 1416.141874 1416.599310 1417.069809 1417.146827 1417.713830 1418.579631
104.025000 1416.361150 1416.840540 1417.308120 1417.392860 1417.998374 1418.787328
104.045000 1416.592065 1417.070225 1417.543340 1417.641478 1418.280286 1419.067490
104.065000 1416.805512 1417.310518 1417.793649 1417.888799 1418.530337 1419.327288
104.125000 1417.422099 1417.942837 1418.466715 1418.543737 1419.195493 1419.892128
104.145000 1417.681194 1418.175938 1418.727542 1418.784730 1419.421691 1420.125564
104.165000 1417.876176 1418.435954 1418.993292 1419.035683 1419.654999 1420.396266
104.185000 1418.160308 1418.689323 1419.298829 1419.308828 1419.919800 1420.609314
104.205000 1418.416800 1418.959029 1419.582712 1419.587473 1420.198662 1420.879568
104.225000 1418.686387 1419.222926 1419.882536 1419.874133 1420.475397 1421.118425
104.245000 1418.977860 1419.509278 1420.187123 1420.176134 1420.767609 1421.476833
104.265000 1419.218057 1419.865591 1420.485363 1420.468258 1421.073119 1421.788948
104.285000 1419.505810 1420.184619 1420.790373 1420.778989 1421.366342 1422.115554
104.305000 1419.768404 1420.513029 1421.075118 1421.084312 1421.654336 1422.450939
104.325000 1420.037383 1420.807453 1421.357119 1421.364660 1421.935595 1422.687751
104.345000 1420.404355 1421.109794 1421.629809 1421.660604 1422.234385 1422.930117
104.365000 1420.742593 1421.405855 1421.923679 1421.949758 1422.535913 1423.230231
104.385000 1421.046134 1421.675415 1422.216107 1422.241787 1422.835565 1423.515247
104.405000 1421.338845 1421.937253 1422.497288 1422.519323 1423.144514 1423.768572
104.425000 1421.639275 1422.188493 1422.751763 1422.793962 1423.423975 1424.033743
104.445000 1421.882842 1422.495453 1423.017163 1423.065544 1423.688232 1424.347195
104.465000 1422.149912 1422.744186 1423.295516 1423.330017 1423.989158 1424.567104
104.485000 1422.506859 1423.010352 1423.571569 1423.609593 1424.251838 1424.850495
104.505000 1422.786340 1423.272344 1423.876271 1423.889101 1424.509864 1425.134703
104.525000 1423.004794 1423.563594 1424.163336 1424.173861 1424.791326 1425.382829
104.545000 1423.320525 1423.829749 1424.479243 1424.473733 1425.101159 1425.678327
104.565000 1423.560901 1424.121972 1424.777488 1424.775198 1425.417923 1425.969986
104.585000 1423.806571 1424.431004 1425.087841 1425.082996 1425.749576 1426.265778
104.605000 1424.033108 1424.743299 1425.380892 1425.383634 1426.017193 1426.577788
104.625000 1424.419971 1425.081372 1425.751035 1425.712848 1426.355892 1426.862761
104.665000 1425.164258 1425.844835 1426.450618 1426.461537 1427.102823 1427.762928
104.685000 1425.525905 1426.190233 1426.826118 1426.828388 1427.477915 1428.172137
104.705000 1425.913100 1426.557165 1427.220953 1427.222003 1427.890856 1428.584125
104.725000 1426.240953 1426.893034 1427.557494 1427.561167 1428.217139 1428.860857
104.745000 1426.558335 1427.242908 1427.868215 1427.884049 1428.551296 1429.205207
104.765000 1426.897064 1427.566758 1428.200624 1428.208546 1428.878484 1429.575522
104.785000 1427.137821 1427.881315 1428.511768 1428.522876 1429.191020 1429.859861
104.805000 1427.562785 1428.191546 1428.821146 1428.830382 1429.461293 1430.141681
104.825000 1427.808098 1428.476927 1429.111872 1429.125870 1429.775468 1430.471011
104.845000 1428.098294 1428.730470 1429.398521 1429.406734 1430.054252 1430.796690
104.865000 1428.358812 1428.998982 1429.679022 1429.683463 1430.338565 1431.112316
104.885000 1428.634054 1429.250332 1429.947798 1429.948980 1430.608484 1431.411873
104.905000 1428.909047 1429.512095 1430.202882 1430.210459 1430.868567 1431.666714
104.925000 1429.161390 1429.757303 1430.472448 1430.473289 1431.187028 1431.916544
104.945000 1429.374396 1430.021266 1430.722100 1430.731750 1431.429180 1432.195188
104.965000 1429.597615 1430.273629 1430.942826 1430.979429 1431.694416 1432.546849
104.985000 1429.837333 1430.496037 1431.166702 1431.214432 1431.948169 1432.799182
105.005000 1430.082841 1430.723111 1431.397314 1431.449605 1432.216321 1433.026263
105.025000 1430.334482 1430.944118 1431.613126 1431.687203 1432.444397 1433.276819
105.045000 1430.561658 1431.224412 1431.853301 1431.927641 1432.669407 1433.481797
105.065000 1430.768402 1431.432329 1432.075043 1432.160279 1432.917228 1433.794852
105.085000 1430.976724 1431.648157 1432.316422 1432.388082 1433.141273 1434.043048
105.105000 1431.211632 1431.867358 1432.539626 1432.618042 1433.390391 1434.291466
105.125000 1431.418668 1432.091627 1432.788587 1432.844523 1433.632890 1434.577653
105.145000 1431.655849 1432.293380 1433.005127 1433.073036 1433.860332 1434.949156
105.185000 1432.090309 1432.688348 1433.443545 1433.496295 1434.251450 1435.413008
105.205000 1432.260389 1432.882896 1433.674375 1433.712979 1434.477024 1435.568025
105.225000 1432.442028 1433.096454 1433.880514 1433.935993 1434.692257 1435.882496
105.245000 1432.665505 1433.338751 1434.089765 1434.159303 1434.934953 1436.254407
105.265000 1432.900583 1433.555409 1434.336445 1434.390611 1435.125251 1436.558402
105.285000 1433.115722 1433.782216 1434.574880 1434.617170 1435.352135 1436.802041
105.305000 1433.308811 1434.017195 1434.808361 1434.842837 1435.580631 1437.091296
105.325000 1433.456505 1434.246747 1435.037250 1435.066808 1435.795875 1437.307992
105.345000 1433.657462 1434.517695 1435.244472 1435.285601 1435.979233 1437.511605
105.365000 1433.830814 1434.760845 1435.451489 1435.507535 1436.170909 1437.711896
105.385000 1434.017205 1434.982865 1435.660784 1435.728098 1436.401948 1437.990149
105.405000 1434.233822 1435.213323 1435.865859 1435.946416 1436.616450 1438.271015
105.425000 1434.402535 1435.455171 1436.059892 1436.170182 1436.860151 1438.511299
105.445000 1434.608033 1435.676688 1436.260607 1436.390035 1437.061975 1438.712087
105.465000 1434.848478 1435.906053 1436.468676 1436.603286 1437.297675 1438.936645
105.505000 1435.193322 1436.322884 1436.841817 1437.021040 1437.835281 1439.514108
105.525000 1435.379577 1436.519284 1437.021475 1437.231773 1438.032738 1439.823119
105.545000 1435.617151 1436.730869 1437.223250 1437.450395 1438.325947 1440.116363
105.565000 1435.826549 1436.959815 1437.425603 1437.675375 1438.635547 1440.457337
105.585000 1436.057599 1437.162599 1437.638008 1437.903299 1438.935483 1440.747091
105.605000 1436.276020 1437.379061 1437.841269 1438.133282 1439.166647 1441.036454
105.625000 1436.547316 1437.577978 1438.054543 1438.363324 1439.486088 1441.197276
105.645000 1436.842857 1437.791950 1438.270211 1438.593893 1439.716800 1441.418712
105.665000 1437.140942 1438.000205 1438.486939 1438.828264 1440.022559 1441.649426
105.685000 1437.405211 1438.209920 1438.698681 1439.069437 1440.280736 1441.866766
105.705000 1437.689541 1438.415233 1438.950001 1439.314424 1440.511049 1442.173032
105.725000 1437.984175 1438.637319 1439.195398 1439.564489 1440.786685 1442.437447
105.745000 1438.267281 1438.848946 1439.457300 1439.821174 1441.093857 1442.691070
105.765000 1438.483529 1439.047333 1439.740149 1440.081411 1441.382557 1442.923329
105.785000 1438.728380 1439.262407 1440.000499 1440.349297 1441.716876 1443.187917
105.805000 1438.923457 1439.497227 1440.273726 1440.618067 1442.012759 1443.452818
105.825000 1439.216861 1439.762068 1440.570314 1440.898036 1442.344673 1443.738684
105.845000 1439.414820 1440.001428 1440.845041 1441.183368 1442.668675 1444.053112
105.865000 1439.672562 1440.241369 1441.183072 1441.476291 1442.947178 1444.339393
105.885000 1439.889549 1440.502789 1441.502077 1441.761821 1443.194294 1444.587176
105.905000 1440.148208 1440.758687 1441.836644 1442.070153 1443.528391 1444.882125
105.925000 1440.396887 1441.055906 1442.149523 1442.380126 1443.815042 1445.166463
105.945000 1440.613280 1441.374790 1442.482047 1442.689213 1444.157569 1445.527551
105.965000 1440.930435 1441.684690 1442.798939 1443.013850 1444.460717 1445.919314
105.985000 1441.246684 1441.963481 1443.198472 1443.345559 1444.740429 1446.318259
106.005000 1441.509921 1442.305389 1443.525199 1443.667995 1445.111494 1446.619395
106.025000 1441.715129 1442.624047 1443.891834 1444.004156 1445.427076 1446.898932
106.045000 1442.040301 1442.937563 1444.249583 1444.333282 1445.753559 1447.200185
106.065000 1442.357105 1443.242892 1444.555054 1444.651923 1446.076832 1447.491750
106.085000 1442.742332 1443.541645 1444.911561 1444.989145 1446.455044 1447.763742
106.105000 1443.038440 1443.885327 1445.252028 1445.332701 1446.805227 1448.061499
106.125000 1443.329518 1444.269940 1445.607511 1445.683255 1447.165536 1448.309510
106.165000 1443.931306 1445.057157 1446.427946 1446.486204 1447.974099 1449.106533
106.185000 1444.245897 1445.443339 1446.867882 1446.879083 1448.361552 1449.494298
106.225000 1445.081801 1446.383423 1447.809143 1447.786842 1449.169041 1450.287034
106.245000 1445.528861 1446.808859 1448.236260 1448.189479 1449.570148 1450.644557
106.285000 1446.855856 1447.974943 1449.331107 1449.254733 1450.467780 1451.414547
106.305000 1447.409165 1448.503420 1449.785098 1449.728269 1450.896640 1451.979889
106.345000 1448.925831 1450.084897 1451.181232 1451.185808 1452.316597 1453.427042
106.385000 1451.124815 1452.050184 1453.085866 1453.082832 1454.128496 1455.100767
106.405000 1451.802864 1452.818922 1453.692310 1453.728880 1454.724607 1455.618844
106.425000 1452.651196 1453.591266 1454.486349 1454.490566 1455.358612 1456.320103
106.445000 1453.286691 1454.305648 1455.147127 1455.128903 1455.940020 1456.955672
106.465000 1454.009875 1454.848222 1455.670807 1455.671118 1456.508037 1457.371707
106.485000 1454.520240 1455.362217 1456.146860 1456.163641 1456.990914 1457.799495
106.505000 1455.047879 1455.765361 1456.563816 1456.578171 1457.409671 1458.196520
106.525000 1455.478228 1456.147829 1456.953567 1456.973969 1457.832401 1458.522291
106.545000 1455.778885 1456.558912 1457.340665 1457.347890 1458.177520 1458.879138
106.565000 1456.112727 1456.890122 1457.676941 1457.695466 1458.511795 1459.196772
106.585000 1456.453005 1457.251207 1458.008163 1458.033962 1458.861466 1459.555238
106.605000 1456.838216 1457.595879 1458.389696 1458.377862 1459.164031 1459.866305
106.625000 1457.220091 1457.903456 1458.718838 1458.711141 1459.534531 1460.262719
106.645000 1457.554768 1458.219892 1459.038119 1459.035037 1459.820109 1460.535117
106.665000 1457.881158 1458.571773 1459.357540 1459.364821 1460.158207 1460.792641
106.685000 1458.233151 1458.907088 1459.695167 1459.682681 1460.473959 1461.000357
106.705000 1458.562019 1459.236706 1459.997149 1459.996816 1460.764738 1461.321161
106.725000 1458.900629 1459.519742 1460.327082 1460.303511 1461.046186 1461.606485
106.745000 1459.183499 1459.825187 1460.642575 1460.610606 1461.345620 1461.950083
106.765000 1459.509912 1460.205534 1460.986564 1460.949450 1461.671667 1462.302881
106.785000 1459.817123 1460.557799 1461.320469 1461.284161 1461.999776 1462.632100
106.805000 1460.085698 1460.904413 1461.642073 1461.633067 1462.370190 1463.022468
106.825000 1460.469232 1461.323725 1461.995679 1462.001925 1462.723334 1463.473316
106.845000 1460.884351 1461.700157 1462.382556 1462.384669 1463.115185 1463.945299
106.865000 1461.252374 1462.062990 1462.776607 1462.776823 1463.520469 1464.326614
106.885000 1461.657061 1462.458372 1463.194910 1463.209391 1463.967133 1464.745257
106.905000 1462.168826 1462.940196 1463.659461 1463.684933 1464.440844 1465.215714
106.925000 1462.680924 1463.388630 1464.158890 1464.155255 1464.950799 1465.625569
106.945000 1463.154771 1463.836894 1464.578153 1464.584041 1465.353425 1466.094758
106.965000 1463.515807 1464.246102 1465.002968 1465.002399 1465.760043 1466.438881
106.985000 1464.015813 1464.666609 1465.416687 1465.425296 1466.184062 1466.901954
107.005000 1464.368256 1465.121026 1465.822696 1465.832380 1466.567853 1467.307376
107.025000 1464.794479 1465.522216 1466.267008 1466.267099 1467.008291 1467.673694
107.045000 1465.167078 1465.980492 1466.707178 1466.701912 1467.454778 1468.081264
107.065000 1465.686438 1466.412591 1467.155414 1467.137552 1467.879821 1468.536877
107.085000 1466.075084 1466.856970 1467.545685 1467.554723 1468.289302 1468.977093
107.105000 1466.567204 1467.277843 1467.955253 1467.967456 1468.708492 1469.372938
107.125000 1466.922890 1467.688286 1468.387952 1468.380440 1469.094086 1469.762262
107.145000 1467.415169 1468.104640 1468.813083 1468.821149 1469.540910 1470.202342
107.165000 1467.871562 1468.530052 1469.235662 1469.250888 1469.999205 1470.656170
107.185000 1468.288354 1468.929052 1469.696498 1469.694622 1470.439616 1471.120811
107.205000 1468.668344 1469.375967 1470.157578 1470.149110 1470.893243 1471.521803
107.225000 1469.136082 1469.833129 1470.648482 1470.607574 1471.336998 1472.020179
107.245000 1469.527923 1470.298099 1471.069175 1471.052764 1471.794348 1472.445647
107.265000 1469.924461 1470.721892 1471.462244 1471.439187 1472.160048 1472.826279
107.285000 1470.269276 1471.046703 1471.804322 1471.781270 1472.519297 1473.085397
107.305000 1470.626548 1471.380151 1472.156281 1472.114912 1472.826969 1473.418167
107.325000 1471.002038 1471.709972 1472.486229 1472.434445 1473.116133 1473.739027
107.345000 1471.289005 1472.056691 1472.784320 1472.735569 1473.382688 1474.033176
107.365000 1471.529687 1472.329786 1473.086442 1473.031993 1473.699232 1474.278452
107.385000 1471.817993 1472.641326 1473.378377 1473.322267 1474.001979 1474.530443
107.405000 1472.056002 1472.953432 1473.650867 1473.601021 1474.255466 1474.845544
107.425000 1472.329431 1473.242672 1473.940976 1473.871011 1474.504263 1475.112638
107.445000 1472.584558 1473.511721 1474.186480 1474.130449 1474.726142 1475.444885
107.465000 1472.845681 1473.767303 1474.414430 1474.378827 1474.968425 1475.772235
107.485000 1473.067915 1474.004623 1474.652224 1474.623292 1475.221549 1476.040952
107.505000 1473.291676 1474.247498 1474.885714 1474.850947 1475.447354 1476.217684
107.525000 1473.573421 1474.472762 1475.104495 1475.082692 1475.679921 1476.428625
107.545000 1473.783302 1474.686439 1475.345534 1475.308799 1475.909340 1476.635980
107.565000 1474.029279 1474.921494 1475.574716 1475.536498 1476.119073 1476.892392
107.585000 1474.337166 1475.155867 1475.793041 1475.769567 1476.399678 1477.190497
107.605000 1474.614955 1475.379328 1475.995515 1475.994794 1476.640042 1477.468990
107.625000 1474.803888 1475.584105 1476.194825 1476.216137 1476.857668 1477.800825
107.645000 1475.027367 1475.791026 1476.424912 1476.437220 1477.074745 1478.019582
107.665000 1475.238317 1476.011532 1476.636368 1476.662140 1477.310542 1478.202650
107.685000 1475.498551 1476.203481 1476.845255 1476.880435 1477.539990 1478.494369
107.705000 1475.737234 1476.428724 1477.050909 1477.103550 1477.764164 1478.720359
