depth(m) lower_95(kyr) lower_68(kyr) median(kyr) mean(kyr) upper_68(kyr) upper_95(kyr)
34.130000 1487.929636 1497.055998 1502.449038 1501.530577 1506.095472 1509.283944
34.230000 1497.987195 1504.161114 1507.503512 1507.184728 1510.466672 1513.116476
34.330000 1507.264846 1510.417231 1512.883200 1512.893421 1515.516841 1518.085148
34.430000 1513.024554 1515.221893 1517.598265 1517.652593 1520.025442 1522.946659
34.530000 1517.291387 1519.556249 1521.989661 1522.035289 1524.641367 1527.066757
34.630000 1521.992454 1524.352939 1526.708619 1526.670229 1529.025234 1530.905838
34.730000 1525.969100 1528.228343 1530.259399 1530.153694 1532.005100 1533.540979
34.830000 1529.712573 1531.415518 1533.101655 1533.057984 1534.758062 1536.194273
34.930000 1532.458659 1533.905214 1535.464834 1535.442660 1537.003450 1538.401076
34.960000 1533.302140 1534.622018 1536.202540 1536.178659 1537.678040 1539.099346
35.020000 1534.759523 1536.120292 1537.614431 1537.609629 1539.067479 1540.406772
35.060000 1535.719766 1537.188382 1538.768274 1538.706653 1540.181017 1541.379083
35.120000 1537.515141 1539.096449 1540.658852 1540.669515 1542.238645 1543.694080
35.160000 1539.062487 1540.638775 1542.359788 1542.420924 1544.080463 1546.232079
35.260000 1542.602391 1544.342874 1546.137656 1546.385863 1548.467907 1551.486792
35.360000 1545.654605 1547.848470 1550.182923 1550.389523 1553.023639 1556.379733
35.460000 1548.719532 1550.833408 1553.865030 1553.976831 1557.006061 1560.286611
35.560000 1551.637034 1554.391532 1557.634819 1557.609049 1560.678010 1563.496661
35.660000 1554.919434 1558.384938 1561.900420 1561.596816 1564.604544 1567.316804
35.760000 1559.624398 1563.340939 1566.211586 1565.884191 1568.378475 1570.513638
35.860000 1565.702893 1568.500734 1570.701063 1570.607473 1572.724672 1574.512883
35.960000 1569.810791 1571.909291 1573.883178 1573.897869 1575.868941 1577.953961
36.060000 1573.079401 1574.757574 1576.694584 1576.747126 1578.654371 1581.084114
36.160000 1575.853632 1577.677298 1579.605169 1579.827343 1581.991289 1585.320515
36.260000 1578.544042 1580.608653 1582.984484 1583.557723 1586.744882 1591.025800
36.360000 1581.380870 1584.090675 1587.698963 1587.987474 1591.883497 1595.314212
36.460000 1585.129858 1588.602421 1593.014085 1592.689632 1596.508244 1599.624756
36.560000 1589.743528 1593.533612 1597.701719 1597.315642 1600.678880 1604.085543
36.660000 1593.356946 1598.286731 1601.694355 1601.702711 1605.291207 1609.369995
36.760000 1597.536308 1601.902442 1605.994565 1606.042409 1610.193701 1613.844855
36.860000 1601.991005 1606.505408 1610.496539 1610.453769 1614.497128 1618.623522
36.960000 1607.953368 1611.244066 1614.927759 1615.019861 1618.822310 1622.139297
37.060000 1612.070471 1615.462660 1619.075482 1618.955966 1622.514178 1625.464793
37.160000 1616.157941 1619.191068 1622.590069 1622.542606 1625.873799 1628.894220
37.220000 1618.806530 1621.593954 1624.788407 1624.869022 1627.999935 1631.604988
37.240000 1619.691051 1622.513516 1625.615581 1625.665023 1628.757272 1632.299425
37.320000 1622.502635 1625.687164 1628.740599 1628.726716 1631.754698 1635.596983
37.420000 1625.829624 1629.863109 1633.049570 1633.175861 1636.625116 1640.377695
37.520000 1629.183619 1633.781609 1637.633767 1637.644619 1641.558746 1645.385522
37.620000 1633.662226 1638.044387 1642.238892 1642.137608 1646.318182 1649.360540
37.720000 1639.424981 1643.045777 1646.975605 1646.887115 1650.591260 1654.200795
37.820000 1644.066982 1647.429424 1650.987633 1650.855721 1654.214299 1657.172782
37.920000 1647.638234 1650.748137 1654.094223 1653.984722 1657.319560 1659.403499
38.020000 1650.644246 1653.736230 1656.922784 1656.750677 1659.846290 1661.963722
38.120000 1653.529500 1656.496628 1659.607448 1659.376880 1662.284201 1664.353658
38.220000 1656.122259 1659.318207 1662.482945 1662.261250 1664.855299 1667.739091
38.320000 1659.713663 1663.334728 1666.355243 1666.385538 1669.591128 1672.912855
38.420000 1667.964851 1670.451546 1673.139075 1673.076632 1675.808923 1678.463437
38.520000 1672.571447 1675.078483 1677.174286 1677.358166 1679.817839 1682.076410
38.620000 1676.212632 1678.230266 1680.560851 1680.749282 1683.114563 1686.500467
38.720000 1679.440398 1681.271294 1683.918906 1684.121162 1686.856148 1690.293785
38.820000 1683.057550 1685.320597 1688.442583 1688.645903 1692.093018 1695.327043
38.920000 1686.814117 1690.277394 1694.229332 1694.049703 1697.727831 1700.569432
39.020000 1692.690084 1696.844139 1700.177796 1699.994748 1703.176049 1705.670095
39.120000 1698.541177 1701.877544 1704.966318 1704.713646 1707.580614 1709.777839
39.220000 1703.324787 1706.375643 1709.120424 1709.156876 1711.980235 1715.268279
39.320000 1708.495951 1711.265822 1713.954669 1714.178201 1717.221152 1721.067246
39.420000 1712.169195 1715.575360 1718.634928 1718.868322 1722.148770 1726.407206
39.520000 1715.842557 1719.697502 1723.207756 1723.295939 1726.928255 1730.533280
39.620000 1720.078805 1723.577731 1727.102122 1727.310561 1730.997845 1735.621526
39.720000 1724.108247 1727.411860 1731.032102 1731.461459 1735.793184 1740.775686
39.820000 1727.923274 1731.388795 1736.190576 1736.192226 1740.782242 1746.009991
39.920000 1732.511463 1736.943426 1741.679529 1741.591612 1746.248765 1750.885556
40.020000 1738.671972 1743.718427 1747.604761 1747.505164 1751.397261 1755.795066
40.120000 1744.786690 1749.709238 1753.403471 1753.438615 1757.233390 1761.370493
40.220000 1750.768552 1755.124414 1758.688459 1758.760591 1762.592489 1766.315843
40.320000 1755.533632 1759.524491 1762.697280 1762.961116 1766.779439 1770.821715
40.420000 1760.053220 1763.264289 1766.426922 1766.822920 1770.709983 1774.656641
40.520000 1763.364002 1766.656508 1770.249431 1770.606788 1774.931372 1778.322254
40.620000 1767.515490 1770.646029 1774.520196 1774.869992 1779.409624 1782.935852
40.720000 1772.218057 1776.167894 1780.360274 1780.126804 1784.059900 1786.817433
40.820000 1778.226658 1781.833214 1785.458703 1785.007433 1787.919860 1789.605472
40.920000 1784.875732 1787.907505 1789.767550 1789.452433 1791.074972 1792.203562
41.020000 1791.046911 1791.926453 1792.753772 1792.724040 1793.502265 1794.362223
41.120000 1792.972102 1794.001252 1794.941592 1794.991636 1796.007339 1797.217620
41.220000 1794.841820 1795.886919 1796.998641 1797.103874 1798.338025 1799.797444
41.320000 1796.758495 1797.857593 1799.167582 1799.347474 1800.798896 1802.898849
41.420000 1798.967854 1800.113766 1801.730759 1801.963866 1803.724919 1806.587239
41.520000 1800.880387 1802.516400 1804.314513 1804.730957 1807.025772 1809.964151
41.620000 1803.100983 1804.812273 1807.138035 1807.516004 1810.208505 1814.324500
41.720000 1805.304116 1807.402862 1809.983226 1810.488211 1813.623391 1818.655211
41.820000 1808.088275 1810.259964 1813.535239 1813.986975 1817.556575 1823.067430
41.920000 1810.848521 1814.232514 1817.945378 1818.155167 1822.161249 1826.767016
41.970000 1812.718127 1816.383783 1820.383932 1820.528415 1824.807442 1829.235615
41.990000 1813.679663 1817.150831 1821.255258 1821.480128 1825.787471 1830.222931
42.105000 1818.362702 1822.475802 1826.811798 1826.767575 1831.124480 1835.125398
42.220000 1822.884010 1827.397771 1832.235253 1831.841220 1836.239735 1839.764149
42.320000 1826.539883 1831.565214 1836.322901 1835.793019 1839.935099 1843.330564
42.420000 1830.743164 1835.470513 1839.873293 1839.427015 1843.060069 1845.778424
42.520000 1834.866545 1839.172673 1843.062030 1842.662342 1845.970787 1848.610018
42.620000 1839.132796 1842.458808 1845.892511 1845.532569 1848.374940 1851.325315
42.720000 1842.192745 1845.649575 1848.514271 1848.225640 1850.810253 1853.443350
42.820000 1845.473933 1848.486001 1850.921778 1850.814241 1853.158777 1855.685301
42.920000 1848.661943 1851.144685 1853.384927 1853.414646 1855.728319 1858.408744
43.020000 1851.569327 1853.943438 1856.208766 1856.296191 1858.847935 1860.965057
43.120000 1854.948672 1857.341186 1859.668940 1859.665006 1862.174810 1864.134921
43.220000 1858.140903 1860.210397 1862.589339 1862.588243 1864.920345 1867.104446
43.320000 1861.095922 1862.909908 1865.094421 1865.139855 1867.358352 1869.457380
43.420000 1863.384561 1865.366819 1867.398623 1867.547566 1869.627558 1872.218723
43.520000 1865.600569 1867.742003 1870.006598 1870.036085 1872.346258 1874.915525
43.620000 1867.709650 1870.295763 1872.751791 1872.787195 1875.259672 1877.802900
43.720000 1870.222515 1873.001145 1875.643387 1875.678748 1878.396984 1880.983405
43.820000 1873.119491 1875.970099 1878.526185 1878.683560 1881.790679 1884.064191
43.920000 1876.196947 1878.833751 1881.428456 1881.546683 1884.520714 1886.854596
44.020000 1879.029734 1881.444146 1884.226099 1884.190851 1886.930298 1889.219839
44.120000 1881.372698 1883.790503 1886.530755 1886.486294 1889.119927 1891.258647
44.220000 1883.624604 1886.111618 1888.732472 1888.648969 1891.220406 1893.499376
44.320000 1885.775431 1888.367023 1890.844105 1890.866078 1893.447611 1895.864648
44.395000 1887.485888 1890.115514 1892.725862 1892.796441 1895.453066 1898.342703
44.470000 1889.516252 1892.305748 1894.955991 1895.074651 1897.710193 1901.566900
44.570000 1894.362521 1897.499295 1900.775665 1900.927358 1904.458297 1908.224532
44.713750 1898.361217 1902.891200 1907.293773 1907.546761 1912.301693 1917.926611
44.857500 1902.871793 1908.002643 1912.698471 1913.161539 1918.640258 1924.375239
45.001250 1907.068228 1912.972368 1918.113715 1918.539533 1924.660889 1930.541737
45.145000 1911.911470 1917.426783 1923.437892 1923.681206 1929.982242 1935.773696
45.288750 1916.809734 1922.376797 1928.816324 1928.862056 1935.276482 1941.240767
45.432500 1921.424694 1928.025866 1934.713366 1934.385449 1940.612402 1947.109250
45.576250 1926.944546 1934.166182 1940.432259 1940.195627 1945.791773 1953.849700
45.720000 1932.955688 1941.003002 1946.298307 1946.847593 1953.144341 1962.069733
45.820000 1939.274987 1946.134328 1951.047744 1952.446089 1961.279370 1967.044499
45.920000 1949.516190 1954.007055 1959.675410 1960.275129 1967.381605 1971.302203
46.020000 1957.231510 1962.831649 1968.282502 1967.751454 1972.731209 1975.426357
46.120000 1965.153188 1969.827390 1974.275913 1973.593821 1976.953878 1979.375731
46.220000 1972.567907 1975.325902 1978.204057 1978.275833 1981.097827 1984.807086
46.320000 1977.773725 1980.430784 1982.789830 1983.077604 1985.845775 1989.680238
46.420000 1982.583920 1985.558216 1989.083192 1989.144962 1992.923701 1996.036709
46.520000 1989.891119 1993.439542 1997.062981 1996.904094 2000.177313 2003.180625
46.620000 1995.739363 1998.934325 2002.134185 2002.082395 2005.160644 2008.812925
46.720000 2000.325930 2003.227701 2006.415854 2006.598139 2010.017282 2013.081858
46.820000 2004.639330 2007.430083 2011.066602 2010.836990 2014.176348 2016.207568
46.920000 2008.530032 2011.269098 2014.361546 2014.148284 2016.965504 2019.017572
47.020000 2011.608476 2014.372038 2017.154277 2016.909974 2019.223566 2021.329162
47.120000 2014.966510 2017.195394 2019.459025 2019.322045 2021.450425 2023.276514
47.220000 2017.246405 2019.715311 2021.693116 2021.559205 2023.482738 2024.935022
47.320000 2019.970322 2021.920126 2023.614763 2023.567082 2025.319434 2026.909530
47.420000 2022.004530 2023.544995 2025.308722 2025.295424 2026.955705 2028.732950
47.520000 2023.783461 2025.177206 2026.909508 2026.917852 2028.560207 2030.553429
47.620000 2025.250319 2026.679894 2028.473386 2028.633768 2030.469346 2033.407537
47.720000 2026.861351 2028.489786 2030.441438 2030.933080 2033.467148 2037.519056
47.820000 2028.903429 2031.132421 2033.915110 2034.608868 2038.541017 2042.779817
47.920000 2032.155507 2035.064848 2039.144601 2039.502513 2043.959170 2048.162858
48.020000 2035.622704 2039.793415 2043.910522 2044.128939 2048.608838 2052.228989
48.120000 2039.707791 2044.162174 2048.346430 2048.369747 2052.754841 2056.206701
48.220000 2043.461265 2048.117529 2052.480605 2052.174952 2056.176708 2059.225384
48.320000 2047.627459 2052.115796 2056.425000 2055.980225 2059.676994 2062.352789
48.420000 2052.351583 2056.497004 2060.255253 2059.728877 2062.738540 2064.886486
48.520000 2057.391752 2061.611640 2063.971208 2063.641591 2065.990181 2067.782406
48.620000 2062.184432 2064.845016 2066.851736 2066.671145 2068.609089 2070.480844
48.720000 2065.081617 2067.116676 2068.855140 2068.867056 2070.669158 2072.433854
48.820000 2067.241224 2068.936578 2070.666450 2070.683674 2072.425027 2074.301880
48.920000 2068.845310 2070.553770 2072.374600 2072.422859 2074.224524 2076.478621
49.020000 2070.666685 2072.267995 2074.198674 2074.298430 2076.372126 2078.466235
49.120000 2072.318889 2074.140513 2076.236143 2076.275279 2078.482315 2080.539529
49.220000 2073.962989 2075.860245 2078.245426 2078.291132 2080.700206 2082.909161
49.320000 2076.007634 2077.971087 2080.543896 2080.534344 2083.110358 2085.215759
49.420000 2078.395316 2080.568561 2083.162768 2083.269323 2085.826584 2089.497573
49.520000 2080.957194 2083.805786 2086.447132 2086.713579 2089.594606 2094.418286
49.620000 2084.395880 2086.947666 2090.539123 2090.821956 2094.301055 2100.618550
49.720000 2087.577754 2091.007676 2095.224867 2095.710026 2100.581121 2107.080769
49.820000 2090.893283 2095.436466 2100.866808 2101.353419 2107.369832 2114.906919
