depth(m) lower_95(kyr) lower_68(kyr) median(kyr) mean(kyr) upper_68(kyr) upper_95(kyr)
25.100000 296.084383 299.161832 301.873119 301.667982 304.290979 306.114662
25.200000 297.521048 300.719510 303.330536 303.106730 305.507062 307.399241
25.300000 299.175740 302.101933 304.747752 304.527245 306.818762 308.682051
25.400000 301.099958 303.725382 306.330949 306.101544 308.274018 310.215482
25.500000 302.649919 305.446874 307.851022 307.651830 309.765557 311.580135
25.600000 304.688328 307.198098 309.424483 309.252677 311.290909 313.103064
25.700000 306.161625 308.780299 310.814356 310.740911 312.710244 314.557319
25.800000 307.675248 310.179965 312.179915 312.080228 314.007622 315.958134
25.900000 309.195188 311.383430 313.469233 313.388904 315.256822 317.095901
26.000000 310.585416 312.658445 314.703119 314.640590 316.676920 318.234999
26.100000 311.783671 313.945083 316.014820 315.946644 317.960865 319.562511
26.200000 313.426547 315.489775 317.417798 317.322143 319.273428 320.649755
26.300000 314.812086 316.788802 318.788809 318.678214 320.525597 321.895118
26.400000 316.051112 318.211064 320.141677 320.007968 321.838540 323.193354
26.500000 317.473960 319.556518 321.491549 321.337727 323.131713 324.504338
26.600000 318.897430 320.941705 322.876086 322.713533 324.448966 326.106399
26.700000 320.555863 322.393893 324.068360 324.063510 325.801280 327.505579
26.800000 321.720564 323.519076 325.225056 325.279908 327.153279 328.842580
26.900000 323.122625 324.833564 326.440251 326.571453 328.521976 330.149498
27.000000 324.190708 326.141119 327.916907 327.916562 329.802049 331.270336
27.100000 325.595090 327.646441 329.514672 329.391245 331.166722 332.467729
27.200000 327.174308 329.253954 331.076513 330.912597 332.450384 333.717045
27.300000 329.022667 331.302940 332.826452 332.694298 334.096418 335.404945
27.400000 333.119335 334.233878 335.386227 335.434611 336.637775 338.141427
27.500000 335.672372 336.738947 337.882794 338.001124 339.324032 340.659566
27.600000 337.705067 338.794792 339.993190 340.045312 341.346238 342.613348
27.700000 339.206242 340.415795 341.639883 341.667521 342.959086 344.046509
27.800000 340.415221 341.794482 343.026978 343.035337 344.295331 345.476164
27.900000 341.640407 343.016580 344.226449 344.270447 345.548504 346.722875
28.000000 342.847780 344.116456 345.386816 345.418475 346.742438 348.053827
28.100000 343.960385 345.283011 346.567256 346.572677 347.903438 349.356928
28.200000 344.937674 346.437809 347.762869 347.768676 349.138407 350.676744
28.300000 346.201132 347.551016 349.024987 349.034367 350.465143 352.122737
28.400000 347.318757 348.714864 350.345854 350.351326 351.882271 353.651652
28.500000 348.557294 349.961314 351.612517 351.653616 353.306349 355.043432
28.600000 349.596182 351.134185 352.869824 352.921102 354.704244 356.352346
28.700000 350.574277 352.289892 354.183886 354.163350 355.896394 357.648339
28.800000 351.751164 353.615774 355.471461 355.465623 357.323243 358.897985
28.900000 353.136655 355.002896 356.812480 356.823290 358.772272 360.239536
29.000000 354.576447 356.390826 358.193959 358.201874 360.147485 361.518651
29.100000 356.074035 357.783831 359.656008 359.607505 361.520575 363.014160
29.200000 357.705825 359.190428 361.157934 361.107369 362.996470 364.520915
29.300000 359.202141 360.816864 362.629489 362.657089 364.497776 366.113151
29.400000 360.772790 362.465388 364.240113 364.263805 366.139301 367.795462
29.500000 362.645074 364.284276 366.059076 366.103250 367.991994 369.908548
29.600000 364.553380 366.117266 367.871721 367.997045 370.006657 371.901054
29.700000 365.883016 367.649138 369.420239 369.545370 371.540613 373.478785
29.800000 367.435754 369.037135 371.052124 371.077695 373.029569 375.562887
29.900000 368.620206 370.352310 372.422741 372.478959 374.450560 377.030781
30.000000 370.054460 371.804828 373.840699 373.912885 375.945737 378.504726
30.100000 371.162425 373.178716 375.300597 375.381872 377.561619 380.117658
30.200000 372.701367 374.649934 376.810171 376.971554 379.275773 381.815706
30.300000 374.008115 376.248474 378.350690 378.580869 381.114093 383.593784
30.400000 375.563613 377.741190 380.134541 380.303144 383.102646 385.679234
30.500000 377.346082 379.342304 381.943382 382.070739 384.993216 387.424087
30.600000 378.507398 380.872449 383.638708 383.776802 386.857042 389.442558
30.700000 380.030271 382.507323 385.440374 385.601523 388.907833 391.600244
30.800000 382.001465 384.296327 387.603551 387.601596 390.931379 393.457307
30.900000 383.565979 386.513676 389.963705 389.774065 393.061235 395.177911
31.000000 385.800211 389.011441 392.596410 392.167603 395.092607 396.951759
31.100000 388.541414 391.780643 394.885081 394.535437 397.028046 398.403258
31.200000 391.108083 394.659199 397.225962 396.827974 398.956226 400.299102
31.300000 393.062434 396.907852 399.069014 398.726409 400.555012 401.953284
31.400000 398.639402 400.098158 401.425905 401.441349 402.910238 404.166081
31.500000 400.588711 401.736146 403.113228 403.170493 404.607021 405.852711
31.600000 402.046319 403.144905 404.625211 404.609845 406.096112 407.483312
31.700000 403.125253 404.338954 405.843578 405.866601 407.377893 408.788075
31.800000 404.278753 405.542824 407.135870 407.093176 408.574296 410.143740
31.900000 405.347449 406.715914 408.347800 408.302885 409.806249 411.174390
32.000000 406.454225 407.951269 409.550100 409.483930 410.928587 412.289337
32.100000 407.670564 409.181025 410.701156 410.675343 412.165135 413.584477
32.200000 409.155939 410.481618 411.888916 411.894908 413.297682 414.558064
32.300000 410.620795 411.793487 413.167752 413.188123 414.517406 415.749723
32.400000 411.913241 413.210974 414.486638 414.461314 415.762665 416.922184
32.500000 413.107129 414.353134 415.620034 415.623216 416.859586 418.021936
32.600000 414.189326 415.506140 416.774807 416.741890 418.003389 419.082174
32.700000 415.249425 416.573055 417.874838 417.837209 419.056697 420.163032
32.800000 416.438379 417.747154 419.035392 418.975353 420.225551 421.268806
32.900000 417.535155 418.855751 420.137104 420.084379 421.292109 422.236581
33.000000 418.703284 419.993685 421.276723 421.202110 422.406130 423.259945
33.100000 419.763018 421.199722 422.425742 422.330427 423.457926 424.258179
33.200000 421.103949 422.381793 423.528583 423.444401 424.462757 425.370890
33.300000 422.251754 423.563427 424.654442 424.550222 425.515477 426.274686
33.400000 423.681386 424.830113 425.824287 425.745571 426.644897 427.459607
33.500000 425.026649 426.033808 426.963283 426.919841 427.765576 428.561059
33.600000 426.183327 427.168963 428.020961 427.980708 428.826265 429.722142
33.700000 427.403819 428.299311 429.119790 429.111883 429.940470 430.777300
33.800000 428.509644 429.325763 430.137658 430.137300 430.945116 431.783396
33.900000 429.562985 430.270755 431.095534 431.103331 431.963688 432.786615
34.000000 430.432319 431.261559 432.014162 432.066322 432.955427 433.710224
34.100000 431.287427 432.166365 432.954720 432.992223 433.857971 434.834757
34.200000 432.143720 433.029286 433.900878 433.921693 434.803391 435.795036
34.300000 433.035297 433.905089 434.822064 434.838865 435.773065 436.952902
34.400000 434.027213 434.816034 435.780264 435.809504 436.817933 437.860313
34.500000 434.797428 435.746815 436.752561 436.766000 437.793842 438.851601
34.600000 435.734063 436.722660 437.710550 437.719455 438.730791 439.812813
34.700000 436.644500 437.670200 438.684704 438.714060 439.838004 440.818135
34.800000 437.675185 438.590265 439.645026 439.712889 440.820487 441.886263
34.900000 438.800461 439.559151 440.696544 440.736828 441.890288 443.057015
35.000000 439.777458 440.579592 441.741376 441.780879 442.973798 444.417215
35.100000 440.713043 441.546101 442.730500 442.822614 444.054001 445.570061
35.200000 441.646105 442.670381 443.887988 443.988300 445.233550 447.034203
35.300000 442.720860 443.830665 445.125597 445.279610 446.651955 448.875452
35.400000 443.789542 445.039716 446.497337 446.789115 448.442455 451.562103
35.500000 444.982352 446.367513 448.137234 448.514852 450.420331 454.495490
35.600000 446.290202 447.892642 450.049753 450.413478 452.706696 457.630303
35.700000 447.687622 449.569721 452.106699 452.709989 455.731860 461.610165
35.800000 449.035163 451.496710 454.526423 455.405814 459.516173 465.497174
35.900000 451.170436 453.740865 457.611323 458.377963 463.520941 468.349204
36.000000 452.872425 455.916848 460.737154 461.288652 467.149460 471.312170
36.100000 454.911770 458.213273 463.763721 463.883621 469.785736 473.395431
36.200000 457.072323 461.320654 466.933142 466.844645 472.480369 475.429464
36.300000 460.694420 466.135143 472.305901 471.400127 476.050977 478.115956
36.400000 465.685321 471.673237 476.010713 475.235190 478.663564 480.379991
36.500000 470.494407 476.226062 478.982672 478.410470 480.916799 482.548212
36.600000 476.453605 479.358142 481.344314 481.201868 483.062173 484.869457
36.700000 479.483439 481.732056 483.504814 483.437932 485.243597 487.128445
36.800000 482.110406 483.878945 485.607300 485.657154 487.486759 489.374078
36.900000 484.306751 485.899487 487.649387 487.745363 489.476392 491.656074
37.000000 485.978269 487.533735 489.434806 489.499901 491.364831 493.709188
37.100000 487.274099 489.191683 491.212594 491.187047 493.102780 495.407322
37.200000 488.778978 490.951339 492.924290 492.898830 494.800127 497.055511
37.300000 490.674653 492.646282 494.726417 494.692895 496.687968 498.895281
37.400000 492.159453 494.537612 496.379188 496.386005 498.444215 500.626557
37.500000 493.888933 496.121895 497.875442 498.008394 500.099543 501.975416
37.600000 495.867495 497.678403 499.426349 499.581934 501.759083 503.385188
37.700000 497.237486 499.185771 501.016251 501.099977 503.157423 504.733231
37.800000 498.975645 500.737220 502.628832 502.598899 504.548990 505.921564
37.900000 500.328662 502.472648 504.191287 504.153486 505.905699 507.384985
38.000000 502.364301 504.214198 505.752988 505.748037 507.280984 509.072111
38.100000 504.073536 505.808331 507.203420 507.280319 508.853653 510.684165
38.200000 505.696427 507.097149 508.573338 508.658055 510.235178 512.340121
38.300000 507.057020 508.283717 509.896824 509.979654 511.650521 513.825886
38.400000 508.155237 509.430966 511.165836 511.298602 513.119343 515.351069
38.500000 509.280547 510.612953 512.547269 512.632669 514.682077 516.568319
38.600000 510.356401 511.848461 513.932169 513.988622 516.189839 518.098915
38.700000 511.471207 512.947114 515.341389 515.403634 517.837976 519.911070
38.800000 512.402966 514.056866 516.718874 516.795611 519.338343 521.514321
38.900000 513.468173 515.242562 518.188415 518.201683 521.001931 522.912596
39.000000 514.570416 516.556196 519.652405 519.627906 522.631875 524.649357
39.100000 515.798940 517.815686 521.188042 521.046397 524.109585 526.117419
39.200000 516.965618 519.253383 522.739346 522.493505 525.550401 527.586727
39.300000 518.115625 520.634288 524.225571 523.948354 526.981620 528.857622
39.400000 519.463804 522.243421 525.742962 525.376625 528.135109 530.154267
39.500000 520.497002 523.702970 527.249394 526.808275 529.449273 531.397724
39.600000 522.031827 525.307576 528.744832 528.291838 530.899254 532.822087
39.700000 523.567020 527.187252 530.154079 529.817347 532.293546 534.002298
39.800000 525.615634 529.054732 531.862104 531.521735 533.892796 536.090062
39.900000 527.971475 531.117438 533.520048 533.341796 535.484786 537.494517
40.000000 531.019776 533.480316 535.546445 535.453796 537.501825 539.354284
40.100000 533.225783 535.520633 537.317129 537.349339 539.285994 541.428460
40.200000 535.334506 537.192323 538.894740 538.977608 540.830489 542.874273
40.300000 536.863114 538.674099 540.323531 540.449799 542.380260 544.263557
40.400000 538.180156 539.929756 541.755635 541.845337 543.756523 545.573718
40.500000 539.533983 541.300473 543.240989 543.224975 545.199978 546.846037
40.600000 540.931259 542.646284 544.601589 544.564889 546.405203 548.241118
40.700000 542.256277 543.861446 545.973198 545.896919 547.756220 549.533542
40.800000 543.590988 545.256637 547.355199 547.269832 549.178082 550.914636
40.900000 544.940494 546.743519 548.788895 548.695533 550.649959 552.342172
41.000000 546.416822 548.245126 550.188739 550.141960 552.019242 553.815448
41.100000 547.709430 549.698392 551.644330 551.625669 553.584293 555.066987
41.200000 549.118596 551.278493 553.160364 553.138458 555.013054 556.538925
41.300000 550.591343 552.901583 554.643758 554.660345 556.480290 558.244589
41.400000 552.374526 554.648119 556.325690 556.337476 558.104565 560.087191
41.500000 553.915251 556.095981 557.847099 557.831076 559.533138 561.636847
41.600000 555.346086 557.546485 559.257501 559.243188 561.035802 562.969042
41.700000 556.841013 558.807340 560.698974 560.646583 562.519219 564.412475
41.800000 558.085503 560.103539 561.996822 561.962291 563.826821 565.838025
41.900000 559.517278 561.453274 563.362073 563.326293 565.169618 567.077097
42.000000 560.885564 562.860899 564.821844 564.735220 566.592550 568.270905
42.100000 562.161174 564.411645 566.385811 566.335539 568.213544 569.906364
42.200000 563.996398 566.275508 568.247335 568.082639 569.829563 571.375052
42.300000 566.123433 568.103074 569.956026 569.843467 571.486304 572.755899
42.400000 568.534398 570.109272 571.656594 571.549874 572.962344 574.211829
42.500000 570.353382 571.755488 573.151019 573.087302 574.404358 575.463573
42.600000 572.037665 573.234161 574.505620 574.461810 575.686591 576.683925
42.700000 573.412506 574.567074 575.709903 575.679621 576.836730 577.734106
42.800000 574.878451 575.878215 576.990093 576.923323 577.979751 578.734945
42.900000 576.106702 577.304565 578.330851 578.260275 579.167862 580.175954
43.000000 577.891182 578.944898 579.967396 580.013855 581.040403 582.366921
43.100000 579.308897 580.355171 581.315166 581.394738 582.495876 583.701278
43.200000 580.656114 581.624604 582.646452 582.698052 583.762129 585.062387
43.300000 582.038227 582.912654 583.914783 583.989745 585.042173 586.433822
43.400000 583.059426 584.089320 585.084071 585.172429 586.265638 587.703774
43.500000 584.080803 585.115492 586.204640 586.283703 587.373522 589.003561
43.600000 585.018412 586.096455 587.257430 587.353492 588.587841 590.284564
43.700000 586.050329 587.063113 588.429289 588.475502 589.797194 591.672014
43.800000 587.086135 588.180403 589.494571 589.597059 590.935656 593.045211
43.900000 588.040573 589.256651 590.665534 590.801482 592.304010 594.587472
44.000000 589.204538 590.372025 591.944127 592.130960 593.668929 596.550361
44.100000 590.320653 591.572788 593.311398 593.554970 595.506498 598.449254
44.200000 591.418973 592.847193 594.817735 595.051984 597.269762 600.507859
44.300000 592.672528 594.068607 596.411147 596.594607 599.026250 602.051568
44.400000 593.832242 595.348262 598.039575 598.185796 600.940461 603.559880
44.500000 595.061091 596.714320 599.722101 599.842107 602.913655 605.071588
44.600000 596.399624 598.403386 601.725048 601.640256 604.662093 606.763302
44.700000 597.549960 600.370366 603.676911 603.448273 606.298764 608.397607
44.800000 598.948015 602.480737 605.449958 605.231421 607.898585 609.855148
44.900000 601.139293 604.573318 607.270200 606.995164 609.442945 611.099712
45.000000 603.248708 606.513486 608.801329 608.537034 610.769869 612.267577
45.100000 605.284945 608.210703 610.220899 610.043467 611.986067 613.427657
45.200000 607.645741 609.608401 611.601099 611.409194 613.182781 614.415683
45.300000 609.341662 611.040128 612.814238 612.673602 614.275185 615.434903
45.400000 610.632093 612.317768 614.076508 613.871308 615.404438 616.360150
45.500000 611.981256 613.578500 615.282189 615.073876 616.469277 617.350874
45.600000 613.438879 615.010037 616.504714 616.325285 617.538502 618.333962
45.700000 615.008910 616.454254 617.662044 617.528353 618.562276 619.397027
45.800000 616.477872 617.800407 618.729448 618.677340 619.596214 620.327632
45.900000 618.148550 619.141835 619.840352 619.836474 620.602059 621.248210
46.000000 619.391209 620.232442 620.966226 620.982105 621.734721 622.624692
46.100000 620.600756 621.334661 622.036106 622.050716 622.760903 623.707757
46.200000 621.606806 622.346490 623.064256 623.109300 623.853859 624.829003
46.300000 622.562924 623.343772 624.118982 624.175975 624.996058 625.972123
46.400000 623.658373 624.415715 625.254999 625.345635 626.289736 627.472837
46.500000 624.702326 625.430645 626.363967 626.530874 627.622815 628.998113
46.600000 625.658664 626.437821 627.519316 627.710735 629.017982 630.600112
46.700000 626.643968 627.484577 628.764458 628.910725 630.385292 632.035553
46.800000 627.572593 628.569805 629.966365 630.121445 631.709930 633.798872
46.900000 628.516307 629.669669 631.125261 631.326014 633.057185 635.169179
47.000000 629.603110 630.731511 632.378093 632.557752 634.397543 636.398024
47.100000 630.683515 631.989390 633.670592 633.847660 635.778303 637.900588
47.200000 631.681140 633.241042 635.040331 635.173660 637.219238 639.191789
47.300000 632.917802 634.382481 636.421053 636.513922 638.471876 640.493457
47.400000 634.186339 635.733533 637.843134 637.859609 639.852627 641.833727
47.500000 635.364139 637.040549 639.173788 639.230890 641.298109 643.584716
47.600000 636.516456 638.464986 640.656519 640.677076 642.799196 645.474786
47.700000 637.652426 639.763644 642.204720 642.148401 644.504287 646.832413
47.800000 638.824768 641.221120 643.607224 643.636792 646.012342 648.439807
47.900000 640.146457 642.537536 645.092821 645.085877 647.484940 650.276845
48.000000 641.544217 643.832500 646.690909 646.584521 649.066188 651.861791
48.100000 642.820645 645.241986 647.996293 647.976145 650.681973 653.310532
48.200000 644.087120 646.510952 649.367495 649.326628 652.182957 654.903021
48.300000 645.213891 647.930312 650.767961 650.733114 653.650276 656.197887
48.400000 646.529485 649.193105 652.151962 652.120614 655.003161 657.457393
48.500000 647.930217 650.585574 653.549940 653.522404 656.420115 658.990582
48.600000 649.046392 651.789503 655.106874 654.979035 657.913064 660.513997
48.700000 650.528126 653.139599 656.600472 656.420987 659.420180 661.821640
48.800000 651.804989 654.349962 658.121255 657.812875 660.894415 663.039225
48.900000 653.145091 655.829903 659.481379 659.166052 662.126642 664.229009
49.000000 654.318798 657.080223 660.976644 660.483615 663.350905 665.518848
49.100000 655.613828 658.631030 662.284036 661.830661 664.653623 666.488568
49.200000 656.978754 660.220870 663.647952 663.142958 665.837984 667.694692
49.300000 658.159083 661.717587 664.862184 664.415364 666.944460 668.700860
49.400000 659.356626 663.182124 666.086808 665.689305 668.086384 669.781348
49.500000 660.607578 664.648881 667.437791 666.992500 669.240417 670.888619
49.600000 661.921130 666.066576 668.652313 668.231337 670.309554 672.290770
49.700000 663.176554 667.337138 669.738635 669.391913 671.538287 673.380551
49.800000 664.309110 668.672958 670.792948 670.537688 672.615624 674.386028
49.900000 665.365338 669.991286 671.913090 671.708678 673.705302 675.490738
50.000000 667.259409 671.293066 673.066965 672.923637 674.821581 676.730882
50.100000 668.875296 672.524886 674.248179 674.134666 675.931061 677.833205
50.200000 670.241129 673.723204 675.418882 675.305714 677.034803 678.909819
50.300000 671.900500 674.791319 676.491241 676.434085 678.202354 680.059075
50.400000 673.563838 675.883095 677.647327 677.609856 679.382964 681.486311
50.500000 674.696496 676.920117 678.659304 678.700262 680.619276 682.742398
50.600000 676.031348 677.981985 679.801911 679.825084 681.794942 683.784384
50.700000 677.315202 679.166709 681.000092 681.041327 683.029998 685.084233
50.800000 678.561293 680.388613 682.283810 682.291173 684.296525 686.331228
50.900000 680.114080 681.990615 684.001606 683.978058 686.017848 687.934556
51.000000 682.248449 683.915308 685.915436 685.848509 687.727450 689.535970
51.100000 683.887626 685.699631 687.626591 687.614404 689.465648 691.261385
51.200000 685.450862 687.491679 689.364947 689.282823 691.016501 692.701616
