depth(m) lower_95(kyr) lower_68(kyr) median(kyr) mean(kyr) upper_68(kyr) upper_95(kyr)
9.720000 305.782256 308.891918 311.830036 311.565275 314.195871 316.023732
9.820000 309.399166 311.950802 314.384502 314.207645 316.415215 317.929248
9.900000 311.852588 314.097931 316.449250 316.203841 318.172103 319.382720
9.960000 313.444592 315.745987 317.928222 317.678850 319.460937 320.621933
10.030000 315.460617 317.875395 319.691392 319.451234 321.044900 322.095322
10.120000 318.081844 320.222955 321.704711 321.555029 322.883600 323.972583
10.260000 322.025767 323.430043 324.598394 324.516456 325.546462 326.523613
10.335000 323.679379 324.907978 326.019475 325.950547 326.980413 327.906119
10.410000 325.377191 326.425835 327.473767 327.410944 328.379993 329.325708
10.520000 327.271053 328.450849 329.487017 329.416127 330.352980 331.245870
10.590000 328.748262 329.872300 330.846451 330.790689 331.705369 332.481110
10.670000 330.522347 331.565905 332.507045 332.485225 333.403338 334.311976
10.750000 332.278699 333.304810 334.165503 334.204737 335.111396 336.154679
10.825000 334.042467 334.968525 335.879402 335.936791 336.918913 338.222540
10.900000 335.963104 336.770646 337.682838 337.766239 338.755305 340.102161
10.975000 337.582230 338.522637 339.642810 339.782832 341.052724 342.647798
11.050000 339.363125 340.414312 341.716523 341.804986 343.174164 345.036538
11.170000 342.091168 343.370852 344.905932 344.897842 346.346310 348.037062
11.190000 342.544100 343.916560 345.433122 345.468173 346.943322 348.647180
11.250000 344.358666 345.649297 347.167920 347.243882 348.740516 350.756695
11.370000 347.764202 349.096928 350.923558 351.121850 353.085661 355.914519
11.400000 348.636216 349.895237 351.959540 352.099988 354.095548 357.166001
11.460000 349.922016 351.489735 353.865742 353.917166 356.130387 358.873595
11.470000 350.271716 351.762367 354.194396 354.252666 356.484564 359.137246
11.580000 353.016858 355.368015 358.051971 358.074332 360.627274 363.383736
11.720000 357.727603 360.786373 363.471060 363.531546 366.292363 369.223667
11.820000 362.270949 365.312613 368.004834 368.020719 370.845574 374.033411
11.920000 365.878711 368.518942 371.300385 371.429518 374.278997 377.257228
12.030000 369.228955 371.932777 374.660739 374.743432 377.422295 380.737410
12.120000 372.029593 374.611922 377.309533 377.430548 380.196914 383.279663
12.220000 374.584906 377.476286 380.380241 380.429431 383.409696 386.916953
12.320000 377.425721 380.484341 383.586076 383.690541 387.072954 390.232341
12.378000 379.274752 382.372679 385.816845 385.918465 389.573617 392.669499
12.520000 383.956562 387.934312 392.562352 392.125681 395.947210 398.500085
12.620000 399.400838 401.147948 402.937187 403.090226 405.121361 407.316336
12.720000 403.013362 404.603148 406.482724 406.648259 408.773419 410.516888
12.833333 405.776395 407.786044 410.047232 410.210736 412.689727 415.372181
12.946667 408.519201 410.781725 413.570825 413.650196 416.492764 419.668690
13.060000 411.368062 413.916877 417.114032 417.175081 420.507558 423.026972
13.170000 415.078393 417.916926 421.749518 421.470009 424.679965 427.098186
13.280000 419.061515 422.100403 425.862796 425.540187 428.532548 430.465043
13.380000 422.413785 425.135553 428.485175 428.159470 430.898050 432.976893
13.480000 425.521959 428.017524 430.829158 430.621987 433.074858 435.067275
13.580000 428.842131 430.844223 433.194658 433.110396 435.294874 437.265362
13.640000 430.395971 432.412627 434.599922 434.546741 436.647367 438.537218
13.690000 431.889857 433.642018 435.770822 435.778802 437.897275 439.547367
13.810000 434.888276 436.755574 438.698080 438.689771 440.581928 442.726836
13.880000 436.627169 438.525876 440.569209 440.603914 442.604113 444.548307
13.950000 438.568275 440.353357 442.493251 442.557731 444.645197 446.953082
14.030000 440.553527 442.542429 444.597480 444.844482 447.006833 450.550274
14.140000 442.950360 445.205151 447.508100 447.925235 450.651284 454.764631
14.250000 445.931353 448.541646 451.819147 452.333177 456.309402 461.604927
14.360000 448.825585 452.357604 456.512793 457.067860 461.905435 467.387696
14.440000 451.467115 455.480912 460.727831 460.745473 465.720962 470.860971
14.530000 454.495980 459.466883 465.346431 464.937465 470.065919 474.287147
14.640000 458.767761 465.350293 470.792597 470.054618 474.546624 478.049595
14.750000 463.518116 471.059133 475.575525 474.742754 478.598086 481.284801
14.870000 476.229226 479.369622 481.738964 481.669502 483.849455 486.356143
14.980000 482.282364 483.972997 485.883558 486.010040 487.955398 490.617481
15.080000 485.233203 487.183524 489.346574 489.489145 491.810454 494.969256
15.180000 488.133360 490.179033 492.652766 492.788786 495.348604 498.127174
15.270000 490.934913 493.243017 495.634317 495.788455 498.429128 500.986616
15.370000 494.381640 496.857696 499.283183 499.269491 501.804032 504.121891
15.470000 497.558309 499.915915 502.616887 502.497248 504.937725 507.037045
15.570000 500.414269 502.985450 505.575205 505.621645 508.036356 511.784562
15.670000 503.352988 506.029694 508.182861 508.555888 510.858087 516.265938
15.770000 506.672242 509.133109 511.447579 511.895671 514.225240 520.119330
15.870000 509.671396 512.185451 514.814654 515.232880 518.064133 524.269693
15.970000 512.820180 515.362885 518.260625 518.763658 522.085248 528.006721
16.070000 515.831344 518.789487 522.454065 522.574942 526.174689 530.948690
16.170000 518.821241 522.323903 526.421976 526.301533 529.896937 534.149647
16.270000 522.619722 526.459217 530.218151 530.252037 534.312991 537.568481
16.370000 527.278234 530.763773 534.014327 534.145659 537.880950 541.342314
16.470000 531.101959 534.023628 537.205753 537.366397 540.957205 544.104203
16.570000 534.398227 537.289958 540.488739 540.660412 544.179694 547.039692
16.670000 538.219738 540.735145 543.944280 543.939446 547.012942 549.953782
16.770000 541.450319 544.410926 547.705071 547.518122 550.496388 553.271390
16.870000 544.875470 548.303625 551.425015 551.216990 553.996563 556.479625
16.970000 549.785462 552.997155 555.887308 555.825603 558.494576 561.829539
17.070000 554.126129 557.314496 560.407801 560.359037 563.201692 566.522673
17.170000 559.332380 562.590930 565.476442 565.494474 568.525420 570.949019
17.270000 563.874988 567.373223 570.161670 570.055413 572.763543 574.810816
17.370000 569.385572 572.435485 574.536134 574.278716 576.214813 577.711054
17.470000 573.276981 576.483775 578.205495 577.865028 579.296604 580.355040
17.570000 578.110405 580.176831 581.651606 581.677972 583.212901 585.129157
17.670000 581.633441 583.429476 585.247300 585.353817 587.380532 589.745755
17.770000 584.253341 586.310807 588.654664 588.700186 591.021050 593.470919
17.870000 587.088804 589.317899 591.839970 591.938578 594.479049 597.216223
17.970000 589.995619 592.474638 595.176560 595.139194 597.741505 600.404110
18.070000 593.051387 595.558932 598.199875 598.184717 600.622169 603.723364
18.170000 595.805329 598.727140 601.238508 601.162734 603.459403 606.611392
18.270000 598.813683 601.998737 604.254502 604.264711 606.627503 609.418751
18.370000 602.924325 605.588781 607.745853 607.829491 610.175328 613.115886
18.470000 607.280183 609.780714 612.020169 611.958731 614.183702 616.403504
18.570000 611.379210 614.084102 616.280460 616.185306 618.324572 620.324654
18.670000 618.237811 620.386002 622.126683 622.056068 623.735946 625.341498
18.770000 621.517089 623.440329 625.043757 625.051679 626.663982 628.604300
18.870000 624.686156 626.161839 627.571430 627.693593 629.187343 631.598469
18.970000 627.243772 628.539836 629.979397 630.149449 631.727721 633.909584
19.030000 628.685525 630.135394 631.638796 631.802244 633.494277 635.660397
19.070000 629.693678 631.174153 632.793822 632.966817 634.761570 637.406829
19.150000 631.657325 633.168050 634.873310 635.102795 637.073607 640.054981
19.270000 634.199333 636.063114 638.090777 638.328101 640.557066 643.869117
19.380000 637.117821 639.098496 641.255910 641.624707 644.249322 647.541941
19.480000 640.030396 642.070856 644.521065 644.845224 647.696797 651.250843
19.570000 642.506987 644.695872 647.489160 647.766236 650.781523 654.496215
19.660000 645.054389 647.616284 650.593378 650.880082 654.144683 658.145479
19.750000 648.363203 650.902428 654.160932 654.341212 657.525293 661.755964
19.850000 651.432274 654.560991 658.347697 658.425486 662.068352 666.207031
19.950000 655.278352 658.930524 662.815103 662.887111 666.767207 670.528400
20.060000 660.203485 664.190241 668.572354 668.299153 672.192896 676.191078
20.170000 665.249474 669.657468 673.994803 673.792014 677.825781 681.284013
20.280000 672.491991 677.014021 680.646112 680.488596 683.873597 686.976598
20.380000 679.979262 683.216222 686.113377 686.055258 689.014508 691.759075
20.470000 684.838298 688.001726 690.632825 690.684388 693.443676 695.977142
20.550000 689.075826 691.897191 694.455512 694.426204 696.976600 699.124352
20.630000 693.034401 695.858032 698.231111 698.041068 700.294145 702.226857
20.700000 696.243757 699.202287 701.393216 701.235460 703.336153 705.017994
20.710000 696.531868 699.615777 701.788985 701.663178 703.705568 705.374584
20.780000 699.692683 702.469423 704.406845 704.315659 706.130352 707.861452
20.850000 703.720611 705.634138 707.286711 707.318299 708.987474 710.777138
20.920000 706.491967 708.356670 709.997709 710.121024 712.070017 713.692548
21.000000 709.045814 710.835571 712.819392 712.889707 715.105680 716.872771
21.080000 711.384739 712.970759 715.095510 715.228412 717.606472 719.525192
21.160000 713.834544 715.131173 717.331570 717.511259 719.966224 721.953988
21.230000 715.682658 717.053065 719.336103 719.545289 721.978840 723.698110
21.240000 716.024903 717.468511 719.699951 719.871590 722.324991 724.058476
21.330000 718.511835 720.298761 722.699896 722.654203 724.813642 726.563861
21.410000 720.785446 722.627020 725.349689 725.285013 727.552847 730.143039
21.420000 721.072041 722.973290 725.709495 725.653537 727.937010 730.519513
21.500000 723.448157 725.568452 728.226179 728.479707 731.186170 735.628172
21.590000 725.833512 728.417107 731.336857 731.696972 734.830668 739.522449
21.670000 728.381853 731.050778 734.426218 734.707189 738.003336 743.218026
21.750000 731.193369 734.397946 738.073175 738.094251 741.479300 747.253099
21.840000 735.418592 738.937463 742.516814 742.995697 746.707159 753.928821
21.930000 740.422270 744.468010 748.828713 749.003741 753.556018 758.390115
22.030000 745.522277 752.070218 756.731655 756.422136 760.622746 765.371351
22.130000 756.160945 760.222107 763.723288 763.682231 767.316966 770.741839
22.240000 764.079857 766.809824 770.068326 769.935857 772.992998 775.161460
22.350000 769.291030 772.149698 775.120762 774.776664 777.266074 779.003064
22.460000 774.323539 776.784246 778.922512 778.719452 780.628327 782.204924
22.570000 778.538878 780.317829 782.204728 782.104103 783.820896 785.557671
22.670000 781.670895 783.507976 785.221118 785.143159 786.683872 788.172691
22.760000 785.338706 786.877289 788.377182 788.403188 789.894501 791.438463
22.850000 788.830470 790.290134 791.716020 791.909604 793.566099 795.927191
22.940000 792.911123 794.683863 796.823506 797.132418 799.627604 802.886010
23.030000 796.648143 799.134032 801.941033 801.997737 804.860995 807.746823
23.120000 800.904884 803.926326 806.628689 806.570990 809.201735 811.555414
23.220000 806.688678 809.336456 811.524429 811.568611 813.673074 816.909338
23.340000 811.914774 813.725821 815.779308 816.737660 818.738173 829.481907
23.470000 816.535861 818.357095 821.213676 822.880242 828.047663 835.159588
23.610000 820.232886 823.104144 828.438475 829.060557 835.696858 839.510629
23.750000 824.740233 829.744554 836.518122 835.626719 840.843660 843.468625
23.880000 830.927493 837.066419 841.907659 841.077896 844.938279 847.340382
23.990000 836.494760 842.345547 845.940696 845.378294 848.334428 850.476152
24.100000 840.747120 846.535995 849.462053 848.974821 851.758470 853.625436
24.200000 843.582921 849.899145 852.505744 851.989092 854.435863 856.214326
24.300000 846.577854 853.393622 855.642011 855.065976 857.367782 858.799838
24.400000 848.732891 856.105330 858.317091 857.714573 860.020808 861.438048
24.500000 851.519902 858.558066 860.848551 860.205217 862.450537 863.575164
24.610000 854.325431 861.336711 863.495784 862.808872 864.703429 865.825831
24.720000 859.359537 864.136642 866.002360 865.684887 867.489442 869.119134
24.840000 868.668841 869.710445 871.229678 871.465182 873.252497 875.713670
24.950000 871.757879 873.255953 875.282091 875.404365 877.506452 880.157862
25.060000 874.978220 876.744201 879.088000 879.179600 881.665316 884.353805
25.140000 877.538165 879.583933 882.093543 882.135546 884.684117 887.512310
25.170000 878.668499 880.703450 883.186574 883.218928 885.776072 888.568274
25.270000 881.442774 883.710729 886.665868 886.519484 889.266953 891.470106
25.370000 884.445295 886.886465 889.933698 889.800136 892.622192 894.603588
25.420000 885.861628 888.566787 891.828159 891.611424 894.413685 896.574229
25.460000 887.224251 890.020637 893.320368 893.061552 895.847246 897.969130
25.520000 889.556549 892.489284 895.680619 895.449305 898.221015 900.798294
25.620000 893.193311 896.096579 898.900352 898.939230 901.697505 904.711378
25.710000 896.569648 899.512657 902.205314 902.311344 905.150851 908.354972
25.830000 901.183781 903.889638 906.882877 906.941536 910.095977 912.651198
25.920000 904.576434 907.481605 910.769250 910.565407 913.595449 916.019767
26.020000 908.583384 912.127940 914.842209 914.600935 917.012920 919.734192
26.120000 913.288724 916.286727 918.527593 918.666873 921.112064 924.062107
26.220000 917.047435 919.933533 922.679899 922.591976 925.215546 928.074859
26.320000 920.482939 923.572261 926.588195 926.437072 929.322572 931.838207
26.420000 924.346912 927.694869 930.716163 930.623903 933.679897 935.918812
26.520000 929.032402 932.046201 934.937074 934.765226 937.473095 939.267790
26.620000 933.729285 936.633207 939.510657 939.157456 941.626570 943.202403
26.740000 937.577378 941.647706 943.870976 943.593683 945.718680 947.182963
26.760000 938.340747 942.592940 944.657293 944.387159 946.522457 947.815851
26.810000 941.274175 944.860110 946.801328 946.553973 948.519645 950.053861
26.860000 943.335461 946.585681 948.583640 948.364602 950.208432 951.697531
26.960000 947.501704 949.646157 951.386141 951.307156 953.060821 954.207931
27.060000 951.035211 952.683858 954.290066 954.181584 955.749031 956.839867
27.160000 954.314507 955.946199 957.110596 957.094401 958.301579 959.514473
27.260000 958.484321 959.247771 959.991073 960.078441 960.920303 962.090972
27.360000 960.797605 961.772931 962.845715 962.973307 964.102365 965.863691
27.460000 963.262679 964.218346 965.672562 965.865702 967.587982 969.634781
27.560000 965.932207 967.277074 968.905969 969.197300 971.306682 973.539263
27.660000 969.223187 971.047332 973.190896 973.380811 975.799902 978.846697
27.760000 972.556835 974.972478 977.257961 977.445459 979.904701 982.919591
27.860000 976.398154 978.748364 981.183180 981.296621 983.692592 987.098050
27.960000 980.517011 982.899360 985.178182 985.435367 988.165331 991.511465
28.060000 983.917281 986.463641 988.985203 989.265155 992.251555 995.835495
28.150000 986.456769 989.585103 992.841130 992.885753 996.274492 999.485570
28.260000 990.898792 993.703411 997.463388 997.331914 1000.631998 1003.797525
28.370000 995.122692 998.471031 1001.869090 1001.612130 1004.678957 1007.679305
28.470000 999.653809 1002.769026 1005.408417 1005.421285 1008.169467 1010.781877
28.560000 1003.390344 1006.238688 1008.611258 1008.673145 1011.263965 1013.734040
28.660000 1007.159863 1009.887151 1012.227105 1012.249662 1014.692707 1017.454108
28.750000 1010.849252 1013.348580 1015.735441 1015.798387 1018.399553 1020.881966
28.850000 1014.904344 1017.020531 1019.668478 1019.719189 1022.369792 1024.447094
28.960000 1018.516037 1021.151448 1023.937797 1023.659158 1026.058115 1027.570222
29.060000 1022.402182 1025.073499 1027.456064 1027.217902 1029.145596 1030.799055
29.160000 1026.672996 1029.248222 1030.924387 1030.882976 1032.389312 1035.180962
29.250000 1031.407000 1032.913694 1034.486308 1034.785350 1036.581102 1039.886587
29.360000 1034.514428 1036.454402 1038.643103 1039.119232 1041.858821 1046.361690
29.445000 1036.934379 1039.229673 1042.145865 1043.146607 1047.975743 1051.972026
29.530000 1039.444968 1041.922851 1045.874708 1047.139491 1053.521558 1055.662257
29.560000 1040.444145 1043.209982 1047.554554 1048.449580 1054.669303 1056.688208
29.680000 1044.855528 1049.256424 1054.686678 1054.140046 1058.571853 1060.510474
29.790000 1050.385683 1057.349498 1060.339829 1059.604921 1062.313172 1063.945062
29.890000 1059.974705 1062.706153 1064.391315 1064.234542 1065.862429 1067.490521
29.990000 1064.798847 1066.397956 1067.758989 1067.791998 1069.209126 1071.140631
30.100000 1068.766888 1070.036346 1071.301975 1071.380884 1072.722576 1074.137625
30.210000 1072.059229 1073.463581 1074.842242 1074.808855 1076.099389 1077.482695
30.310000 1075.399681 1076.953178 1078.260333 1078.219352 1079.455206 1080.858775
30.400000 1078.575952 1079.691146 1081.016557 1081.066612 1082.420672 1083.942359
30.470000 1080.466659 1081.886737 1083.285544 1083.435432 1085.081857 1086.911984
30.550000 1082.975471 1084.468806 1086.175338 1086.406445 1088.401878 1091.134436
30.650000 1085.855238 1087.478276 1089.710815 1090.011001 1092.672938 1095.194500
30.770000 1089.693438 1091.975558 1095.212471 1095.003871 1097.681150 1099.963270
30.900000 1092.995664 1096.681347 1100.483509 1100.152005 1103.233768 1105.923525
31.030000 1097.701855 1101.970992 1105.407412 1105.398492 1108.787471 1112.461281
31.135000 1101.494775 1106.280534 1109.486638 1109.473244 1112.801639 1116.491855
31.240000 1105.974376 1110.745410 1113.584526 1113.424765 1116.298757 1119.325211
31.340000 1111.653691 1114.576429 1117.279455 1117.227512 1119.844696 1122.886857
31.450000 1115.755818 1118.825674 1121.264158 1121.394805 1123.992870 1127.695628
31.560000 1119.265268 1122.290741 1125.206452 1125.217767 1128.131695 1131.726807
31.670000 1122.649112 1126.075108 1129.048712 1129.057815 1132.113912 1135.514091
31.770000 1126.250412 1129.394167 1132.624471 1132.622488 1135.743840 1138.846451
31.880000 1130.239104 1134.012865 1137.067151 1137.119885 1140.364502 1144.127605
31.990000 1134.985401 1138.665109 1142.147088 1142.413847 1146.034295 1150.201182
32.120000 1141.288560 1145.014362 1148.984563 1149.056964 1152.939520 1157.644719
32.240000 1147.652309 1151.575047 1155.081654 1155.188763 1159.107484 1162.955060
32.340000 1151.956323 1156.290220 1159.775618 1159.898395 1163.389154 1168.090262
32.410000 1156.427104 1159.916647 1163.253771 1163.376466 1166.798743 1170.817214
32.470000 1159.944138 1163.043605 1166.293567 1166.340469 1169.382855 1172.998351
32.520000 1162.205860 1165.675462 1168.909699 1168.835357 1171.674367 1175.732485
32.580000 1165.740446 1169.558070 1172.201335 1172.306592 1175.015517 1180.284318
32.620000 1168.552087 1171.912288 1174.365582 1174.583411 1177.342048 1182.089299
32.690000 1172.213100 1175.011627 1177.539881 1177.951486 1181.188538 1185.047635
32.780000 1175.700506 1178.775216 1181.931599 1182.020780 1185.519712 1188.086868
32.900000 1180.407201 1184.692924 1187.820550 1187.234888 1189.828998 1191.314797
32.985000 1183.875683 1188.435164 1190.660908 1190.294684 1192.407478 1193.751712
33.070000 1189.372172 1191.528384 1193.120579 1193.070274 1194.673543 1196.237502
33.175000 1192.924436 1194.383748 1195.862572 1195.922298 1197.511056 1199.216543
33.280000 1195.741622 1196.975612 1198.457303 1198.568565 1200.212732 1202.015878
33.360000 1197.532201 1198.884725 1200.428116 1200.542793 1202.242884 1203.996694
33.440000 1199.488726 1200.880801 1202.435038 1202.507281 1204.251513 1205.898384
33.530000 1201.701274 1203.232723 1204.793219 1204.886446 1206.628189 1208.119062
33.610000 1204.093258 1205.630947 1207.349287 1207.345404 1209.075861 1210.574644
