depth(m) lower_95(kyr) lower_68(kyr) median(kyr) mean(kyr) upper_68(kyr) upper_95(kyr)
84.120000 717.435160 719.126954 720.614566 720.400294 721.552126 722.387805
84.170000 717.842563 719.543661 720.992394 720.774508 721.829560 722.697690
84.220000 718.359002 719.924191 721.368596 721.148674 722.177340 722.939918
84.270000 719.026867 720.460060 721.749086 721.538987 722.496807 723.435801
84.320000 719.458375 720.895913 722.132398 721.937459 722.869502 723.859121
84.370000 719.844123 721.281200 722.542989 722.343517 723.269269 724.175445
84.420000 720.137966 721.744746 722.952639 722.752581 723.666057 724.567126
84.470000 720.634496 722.232655 723.307365 723.158336 724.068126 725.002877
84.520000 721.021819 722.688335 723.669079 723.556386 724.465196 725.292892
84.570000 721.569121 723.116967 724.052436 723.966974 724.852200 725.742762
84.620000 722.017680 723.558823 724.466480 724.384341 725.301378 726.110937
84.670000 722.442336 723.994580 724.884851 724.804108 725.700509 726.484326
84.720000 722.880429 724.398187 725.287104 725.239266 726.139403 726.982343
84.770000 723.423214 724.831942 725.728846 725.669790 726.590870 727.384523
84.820000 723.974535 725.251917 726.169773 726.125463 727.019650 727.824504
84.870000 724.575572 725.648234 726.611694 726.582707 727.526334 728.312186
84.920000 725.071276 726.111214 727.095245 727.071322 728.039549 728.943784
84.970000 725.611398 726.554999 727.593530 727.564825 728.534288 729.469386
85.020000 726.133519 727.011075 728.072264 728.090289 729.130271 730.065184
85.070000 726.610426 727.490012 728.604558 728.591270 729.656527 730.595190
85.120000 726.986259 727.939798 729.108099 729.087645 730.193148 731.207764
85.170000 727.436308 728.427589 729.621237 729.595476 730.742097 731.772736
85.220000 727.889857 729.004686 730.187992 730.141141 731.246109 732.249898
85.270000 728.246732 729.426287 730.684286 730.636012 731.759538 732.799261
85.320000 728.685833 729.955474 731.149927 731.115984 732.230926 733.285336
85.370000 729.092853 730.435383 731.626667 731.611857 732.736437 733.947736
85.470000 730.103682 731.532773 732.716074 732.730209 733.924223 735.278885
85.520000 730.577076 732.026173 733.216157 733.238751 734.482154 735.875810
85.570000 731.048813 732.535543 733.739645 733.732620 735.025124 736.415509
85.670000 732.168355 733.522663 734.747551 734.823924 736.158095 737.867257
85.720000 732.624855 733.959360 735.233987 735.288554 736.645124 738.319304
85.820000 733.666139 734.859885 736.142780 736.227871 737.647139 739.173902
85.870000 734.004647 735.290339 736.564342 736.673798 738.103008 739.641033
85.920000 734.452785 735.710922 736.987628 737.125595 738.534031 740.080140
85.970000 734.893620 736.168662 737.450524 737.558305 739.014216 740.573323
86.070000 735.861606 737.083063 738.301633 738.489343 739.949999 741.521409
86.170000 736.898274 737.982366 739.214706 739.382304 740.834276 742.556366
86.220000 737.311444 738.413546 739.629317 739.809777 741.274976 743.030020
86.270000 737.638397 738.847054 740.133551 740.255202 741.722993 743.498184
86.340000 738.388467 739.514465 740.781530 740.934851 742.412382 744.511714
86.440000 739.502783 740.613439 741.822898 742.069332 743.527977 745.902261
86.490000 740.041283 741.098090 742.361587 742.597064 744.043228 746.534049
86.540000 740.604854 741.581232 742.869778 743.122330 744.649313 747.218434
86.590000 741.081943 742.027785 743.364553 743.621193 745.164343 747.880886
86.640000 741.541427 742.541539 743.848599 744.130071 745.756947 748.460295
86.690000 742.069525 743.067516 744.455697 744.696674 746.341284 749.016449
86.740000 742.520123 743.539178 744.948049 745.228653 746.855385 749.562898
86.790000 742.956537 744.100567 745.454412 745.749399 747.391437 750.081262
86.840000 743.411098 744.566838 745.971880 746.287947 747.990362 750.615674
86.940000 744.477878 745.653898 747.281129 747.633386 749.813436 752.274065
86.990000 744.909590 746.114486 747.847576 748.160211 750.383650 752.603820
87.040000 745.349299 746.600321 748.404739 748.717336 751.089698 753.261973
87.130000 746.186968 747.630106 749.772834 750.053115 752.617078 754.793897
87.180000 746.574719 748.143762 750.467055 750.653927 753.264236 755.412860
87.230000 747.067365 748.761987 751.203907 751.385990 754.090122 756.209099
87.305000 747.985506 750.505775 753.905835 753.544162 756.179061 757.598982
87.380000 749.796900 753.526016 755.844879 755.462461 757.485488 758.540701
87.430000 751.261737 754.738319 756.665087 756.354792 757.972765 759.058651
87.480000 752.801541 755.500862 757.307640 756.988796 758.471577 759.487743
87.530000 753.718943 756.140908 757.758088 757.501247 758.859965 759.805377
87.630000 755.480186 757.391073 758.717914 758.524295 759.627598 760.481694
87.680000 756.220538 757.855556 759.093758 758.951827 759.990400 760.836760
87.780000 757.620600 758.874072 759.891141 759.793241 760.708001 761.542536
87.830000 758.134271 759.245969 760.294149 760.179478 761.081946 761.822286
87.880000 758.585852 759.659763 760.636354 760.542756 761.423077 762.133384
87.980000 759.464191 760.425411 761.264231 761.218292 762.016398 762.675752
88.030000 759.846815 760.776387 761.562556 761.545994 762.326732 762.975368
88.080000 760.146715 761.128456 761.887083 761.871019 762.619544 763.300649
88.130000 760.543894 761.470439 762.224718 762.199356 762.933641 763.570821
88.180000 760.871945 761.830244 762.545272 762.527665 763.273809 763.861147
88.230000 761.233326 762.188157 762.890156 762.859812 763.573918 764.126681
88.280000 761.652156 762.525053 763.231358 763.199455 763.877857 764.402961
88.330000 762.068931 762.906085 763.559777 763.544489 764.228871 764.758233
88.380000 762.529918 763.274759 763.914152 763.899505 764.545380 765.099869
88.430000 762.907509 763.627783 764.270536 764.254491 764.860437 765.382231
88.480000 763.340682 763.991452 764.636978 764.602425 765.187072 765.737256
88.530000 763.702246 764.341329 764.969242 764.953914 765.524097 766.114606
88.580000 764.041159 764.706478 765.307821 765.299324 765.879061 766.383304
88.630000 764.449875 765.059132 765.654836 765.634056 766.180327 766.721909
88.730000 765.145976 765.721465 766.286671 766.265770 766.777383 767.339866
88.780000 765.522200 766.062708 766.618567 766.599046 767.093526 767.670027
88.830000 765.847901 766.376884 766.935168 766.929715 767.477391 768.043684
88.880000 766.148577 766.728150 767.259607 767.262859 767.810105 768.410881
88.930000 766.574063 767.092288 767.594711 767.606322 768.117238 768.669771
88.980000 766.890970 767.435495 767.944402 767.954619 768.458651 769.004394
89.030000 767.267486 767.765432 768.289426 768.296907 768.788431 769.364724
89.080000 767.625263 768.121266 768.648896 768.645720 769.164416 769.696820
89.130000 767.947522 768.449600 768.970173 768.977686 769.524948 770.024859
89.180000 768.259626 768.769067 769.304996 769.313348 769.880832 770.353175
89.280000 768.853392 769.389607 769.944960 769.942532 770.503995 771.020598
89.355000 769.278749 769.874323 770.406602 770.416447 770.955791 771.476064
89.430000 769.828044 770.367576 770.867758 770.888917 771.422206 772.025937
89.480000 770.119135 770.706418 771.179569 771.204567 771.734748 772.310948
89.530000 770.403649 771.037079 771.500294 771.530441 772.054804 772.591918
89.580000 770.740229 771.352363 771.844036 771.856577 772.362218 772.925063
89.630000 771.081653 771.656706 772.196645 772.184716 772.674425 773.233984
89.680000 771.405321 771.982118 772.511608 772.508374 772.992545 773.497406
89.730000 771.716516 772.326806 772.859832 772.849763 773.335147 773.979899
89.830000 772.418035 773.016803 773.513945 773.513682 773.971285 774.690039
89.880000 772.731169 773.349086 773.829824 773.853894 774.349926 775.102771
89.930000 773.125426 773.700148 774.151221 774.187654 774.680463 775.446807
89.980000 773.467989 774.053264 774.478477 774.515294 775.000518 775.813224
90.030000 773.769934 774.351456 774.811998 774.835013 775.294010 776.127053
90.080000 774.134319 774.677432 775.133789 775.155890 775.633380 776.424679
90.130000 774.457704 774.975517 775.429453 775.470536 775.948521 776.742727
90.230000 774.971022 775.549624 776.012492 776.055448 776.566004 777.321027
90.280000 775.271014 775.820524 776.320283 776.355358 776.874038 777.669772
90.330000 775.605387 776.115055 776.602749 776.651793 777.213822 777.981355
90.380000 775.962208 776.415649 776.886424 776.946803 777.474943 778.331362
90.430000 776.241871 776.716156 777.161725 777.232496 777.770824 778.582867
90.480000 776.491487 776.999448 777.424808 777.515390 778.090991 778.863251
90.530000 776.815009 777.278396 777.696262 777.801197 778.414822 779.206768
90.580000 777.103640 777.549984 777.962009 778.072298 778.687206 779.486756
90.680000 777.618736 778.060049 778.457916 778.584339 779.205916 779.987244
90.750000 777.990367 778.418005 778.787321 778.942364 779.576019 780.400948
90.800000 778.233831 778.676073 779.052989 779.204872 779.871698 780.697064
90.850000 778.481634 778.941618 779.320112 779.473778 780.145624 780.985705
90.900000 778.812879 779.189366 779.561231 779.733966 780.431407 781.212070
91.000000 779.270589 779.654536 780.018994 780.208911 780.970364 781.714489
91.050000 779.564739 779.908845 780.275044 780.465522 781.253054 781.967662
91.100000 779.805878 780.152549 780.529366 780.722565 781.512762 782.246223
91.150000 780.077799 780.413668 780.782886 780.979735 781.801786 782.492355
91.200000 780.320231 780.644633 781.039256 781.234910 782.090608 782.769199
91.250000 780.603123 780.890242 781.296587 781.491401 782.378772 783.009467
91.300000 780.833410 781.126072 781.535896 781.745500 782.631319 783.270885
91.400000 781.257971 781.585609 781.991187 782.212186 783.147104 783.761270
91.475000 781.590035 781.932963 782.331436 782.586757 783.530838 784.233657
91.550000 781.953871 782.289224 782.692193 782.958826 783.939585 784.593385
91.600000 782.187919 782.552247 782.935068 783.214501 784.185822 784.833416
91.650000 782.450193 782.800950 783.204508 783.473044 784.457053 785.112613
91.700000 782.687549 783.054266 783.479161 783.740128 784.721867 785.324750
91.750000 782.985657 783.320011 783.759837 784.014952 784.973920 785.629554
91.800000 783.227995 783.581882 784.043224 784.289330 785.296532 785.898936
91.850000 783.509981 783.845913 784.333469 784.568570 785.580338 786.163900
91.925000 783.842459 784.214220 784.744243 784.970442 785.964577 786.570966
92.000000 784.239440 784.617281 785.189983 785.388472 786.383968 786.991273
92.050000 784.510387 784.907840 785.513268 785.682627 786.654062 787.318953
92.150000 785.014103 785.438026 786.086172 786.250315 787.194458 787.872382
92.225000 785.448404 785.865181 786.547064 786.688668 787.603455 788.387415
92.300000 785.830445 786.325689 787.020720 787.144043 788.013655 788.770844
92.400000 786.460679 786.971512 787.723496 787.784047 788.666497 789.376024
92.475000 786.888077 787.407967 788.215467 788.263885 789.133656 789.882135
92.550000 787.402547 787.883733 788.721467 788.749674 789.591099 790.341479
92.600000 787.702850 788.291030 789.084071 789.098901 789.904477 790.655625
92.650000 788.027958 788.689618 789.477427 789.485922 790.267061 791.115828
92.700000 788.368248 789.099348 789.898360 789.878895 790.647622 791.453596
92.800000 789.243539 789.888148 790.707904 790.721962 791.532719 792.269777
92.850000 789.606095 790.375800 791.113691 791.144343 791.949187 792.669300
92.950000 790.338698 791.214569 792.003550 791.989340 792.756238 793.526169
93.050000 791.222240 792.171182 792.971920 792.958139 793.753938 794.627649
93.100000 791.740580 792.600706 793.427583 793.431555 794.258912 795.147578
93.150000 792.162094 793.036382 793.921322 793.923634 794.727880 795.718893
93.200000 792.726015 793.552261 794.406045 794.438230 795.281930 796.395938
93.250000 793.242774 794.070273 794.956269 794.986926 795.834898 796.947202
93.300000 793.745759 794.606129 795.496913 795.545793 796.476458 797.622262
93.400000 794.698891 795.605431 796.536144 796.653623 797.723525 799.186064
93.450000 795.042015 796.043232 797.035367 797.133428 798.217814 799.696920
93.525000 795.632925 796.725394 797.754992 797.887331 799.020604 800.761845
93.600000 796.251629 797.303959 798.456572 798.629039 799.940871 802.018601
93.650000 796.684828 797.733350 798.905560 799.092384 800.454056 802.454393
93.725000 797.194980 798.354332 799.706439 799.859037 801.332529 803.704439
93.800000 797.759449 798.985515 800.452661 800.658348 802.273928 804.524037
93.900000 798.840611 800.080000 801.765680 801.879408 803.613950 805.855238
94.000000 799.742710 801.317588 803.116158 803.214468 805.222994 806.915934
94.100000 800.950010 802.729101 804.686933 804.715382 806.794537 808.107449
94.200000 802.762321 804.304597 806.251392 806.125881 807.927242 809.203942
94.250000 803.290067 804.764670 806.732813 806.639016 808.474564 809.613566
94.300000 803.903816 805.262038 807.274908 807.153497 808.907510 810.142869
94.400000 804.962878 806.661585 808.529529 808.374134 810.061472 811.217819
94.450000 805.590004 807.165947 809.075347 808.892942 810.532009 811.599696
94.500000 806.090973 807.711477 809.635990 809.443844 811.071637 812.207527
94.550000 806.454981 808.365262 810.307444 810.054955 811.604127 812.948646
94.600000 807.010006 808.988955 810.933857 810.690790 812.170175 813.652657
94.700000 809.911261 811.355088 812.562259 812.563093 813.811621 815.000947
94.750000 810.806608 812.005185 813.118529 813.143400 814.324692 815.425840
94.800000 811.323643 812.547537 813.630285 813.660579 814.847853 815.865463
94.850000 812.080921 813.080183 814.134272 814.162273 815.262102 816.286481
94.900000 812.652865 813.654647 814.684816 814.702069 815.780176 816.786576
94.950000 813.169366 814.192537 815.219388 815.213866 816.221762 817.182791
95.000000 813.687780 814.748453 815.783281 815.747622 816.748307 817.700887
95.050000 814.306804 815.459873 816.400601 816.386383 817.342421 818.309886
95.100000 814.991909 816.044750 816.981517 816.963371 817.865866 818.915046
95.150000 815.782929 816.642374 817.534588 817.532784 818.389066 819.429769
95.200000 816.390554 817.169065 818.039327 818.040897 818.887527 819.910256
95.250000 816.814813 817.615920 818.490331 818.487437 819.302162 820.384776
95.300000 817.318860 818.003292 818.901271 818.900915 819.695865 820.780540
95.350000 817.681898 818.416917 819.290710 819.297366 820.090915 821.194350
95.450000 818.331780 819.165922 820.037731 820.082250 820.983425 822.039396
95.500000 818.636549 819.505405 820.396490 820.436443 821.357394 822.441264
95.550000 818.981812 819.891095 820.733604 820.798706 821.696506 822.884608
95.650000 819.680872 820.564646 821.388159 821.489513 822.479788 823.605682
95.700000 819.979933 820.909463 821.733294 821.834163 822.833266 824.051304
95.750000 820.270918 821.261593 822.084064 822.177862 823.192716 824.354763
95.800000 820.620627 821.598009 822.404826 822.527754 823.608216 824.652257
95.850000 820.887168 821.946915 822.733871 822.874603 823.997683 824.932422
95.900000 821.298800 822.299769 823.105146 823.229043 824.353101 825.260859
95.950000 821.564078 822.664337 823.480175 823.590958 824.637034 825.621798
96.000000 821.862101 822.996221 823.889239 823.979562 825.106886 826.100940
96.060000 822.282169 823.400695 824.369172 824.459473 825.580345 826.869395
96.110000 822.721652 823.809572 824.785766 824.900628 826.009708 827.621963
96.150000 823.077878 824.148614 825.110411 825.257305 826.371024 827.885707
96.200000 823.452611 824.565860 825.629753 825.763126 826.956782 828.687755
96.275000 824.354473 825.328252 826.579471 826.706471 828.032466 830.415062
96.350000 825.003364 826.195058 827.429948 827.643442 829.166281 831.421916
96.400000 825.436067 826.650463 827.945403 828.161265 829.789616 831.887679
96.500000 826.255450 827.662097 829.092333 829.303533 831.110395 832.790210
96.550000 826.699109 828.109571 829.598034 829.768239 831.568205 833.321474
96.600000 827.097756 828.553776 830.075806 830.250575 832.101901 833.669067
96.710000 828.085783 829.648972 831.404855 831.416178 833.247314 834.523731
96.810000 829.259116 830.619080 832.584303 832.468749 834.284991 835.248775
96.910000 830.275529 831.640756 833.731837 833.458960 835.063718 836.156951
96.960000 830.746888 832.042637 834.176442 833.904748 835.479685 836.560868
97.010000 831.156428 832.505758 834.611838 834.329298 835.896065 836.909217
97.060000 831.743459 832.973719 835.055466 834.739443 836.262313 837.289914
97.160000 832.554877 833.791987 835.906602 835.563050 837.010153 838.004490
97.210000 833.057941 834.212415 836.266893 835.966099 837.416165 838.374992
97.260000 833.405897 834.584094 836.646437 836.368376 837.800417 838.800974
97.310000 833.789785 835.022085 837.030301 836.759188 838.185517 839.244465
97.360000 834.181377 835.509752 837.426232 837.177787 838.625932 839.622523
97.410000 834.693300 836.004489 837.874572 837.625540 839.006725 840.027089
97.460000 835.081103 836.558733 838.260509 838.070324 839.398799 840.448470
97.510000 835.525292 837.007082 838.696625 838.502750 839.810553 840.762097
97.560000 835.934401 837.410785 839.101293 838.917376 840.210498 841.208505
97.610000 836.288626 837.883128 839.536311 839.337065 840.598268 841.654370
97.710000 837.368337 838.944807 840.346307 840.204150 841.402825 842.457290
97.760000 837.679548 839.357863 840.745002 840.600347 841.769916 842.775440
97.860000 838.463306 840.170894 841.539888 841.415884 842.575844 843.706816
97.910000 838.957550 840.635618 841.933643 841.826888 843.049849 844.254073
97.985000 839.694827 841.295273 842.488375 842.418412 843.634300 844.764896
98.060000 840.264296 841.862693 843.065589 843.011782 844.214315 845.321047
98.160000 841.297082 842.732986 843.847149 843.827200 844.988892 845.908217
98.260000 842.294465 843.565431 844.620455 844.647161 845.835803 846.684287
98.310000 842.739162 843.929054 845.027351 845.021461 846.211837 846.985634
98.360000 843.113613 844.288114 845.445010 845.400588 846.568699 847.318690
98.460000 843.857894 844.967709 846.252090 846.121626 847.219968 847.909005
98.510000 844.270890 845.290229 846.583360 846.464610 847.568353 848.182057
98.585000 844.803830 845.810039 847.151532 846.970784 847.987052 848.637229
98.660000 845.463636 846.327165 847.683551 847.477419 848.409198 849.037231
98.710000 845.852271 846.675556 848.021306 847.812676 848.721396 849.468763
98.760000 846.279346 847.026905 848.341059 848.142496 849.011551 849.719485
98.810000 846.641263 847.344661 848.666637 848.473932 849.321642 850.056408
98.860000 846.980063 847.721355 848.969357 848.805235 849.614853 850.534732
98.910000 847.285192 848.084944 849.278934 849.140201 849.936164 850.967421
98.960000 847.634025 848.443975 849.621680 849.480737 850.275077 851.331729
99.010000 848.004440 848.841981 849.969804 849.836365 850.604920 851.634513
99.110000 848.677597 849.664529 850.596813 850.534085 851.315463 852.299693
99.160000 849.008788 850.037556 850.892701 850.876959 851.681807 852.658090
99.210000 849.428412 850.402319 851.231585 851.222244 852.056727 852.997767
99.260000 849.796816 850.749307 851.547514 851.564770 852.436314 853.349600
99.360000 850.455782 851.409080 852.245868 852.256924 853.127596 854.029498
99.410000 850.801519 851.775979 852.589426 852.605173 853.482505 854.385070
99.510000 851.498870 852.449353 853.317638 853.338103 854.235777 855.178625
99.560000 851.871285 852.784739 853.704645 853.712164 854.648525 855.497987
99.635000 852.670904 853.385515 854.257555 854.324544 855.252989 856.376639
99.710000 853.261228 853.976407 854.853828 854.917644 855.871488 856.841883
99.810000 854.006209 854.726778 855.680368 855.701632 856.740974 857.554104
99.860000 854.367451 855.093768 856.072799 856.082310 857.114053 857.906330
99.910000 854.652870 855.419507 856.468876 856.431504 857.429468 858.191227
99.960000 855.040910 855.767699 856.809177 856.777973 857.771080 858.435504
100.035000 855.421629 856.234050 857.348290 857.276192 858.288677 858.920262
100.110000 855.966573 856.717123 857.863012 857.773461 858.751155 859.373599
