depth(m) lower_95(kyr) lower_68(kyr) median(kyr) mean(kyr) upper_68(kyr) upper_95(kyr)
19.700000 300.526001 304.473546 307.619748 307.595755 310.946120 313.702676
19.800000 303.549765 306.719876 309.548096 309.578395 312.726447 315.037585
19.900000 306.247416 309.100103 311.715038 311.765648 314.675652 316.985712
20.000000 308.969487 311.771327 314.166159 314.179433 316.844449 318.758336
20.100000 311.513434 314.091770 316.509712 316.453172 318.906823 320.607610
20.200000 313.980806 316.235852 318.574061 318.434785 320.537441 322.126642
20.300000 316.136233 318.387561 320.502691 320.332037 322.196321 323.579289
20.400000 318.730813 320.565982 322.350495 322.198190 323.791654 324.948791
20.500000 320.927848 322.701742 323.998489 323.951092 325.260371 326.385203
20.600000 323.140113 324.426807 325.593253 325.546684 326.692573 327.766283
20.700000 324.714000 325.836882 326.972683 326.935773 328.036450 329.161093
20.800000 326.021499 327.156800 328.292536 328.240578 329.339087 330.350001
20.900000 327.251438 328.433626 329.574596 329.542071 330.673487 331.623044
21.000000 328.513281 329.725205 330.868435 330.868489 332.021962 333.104658
21.133333 330.076528 331.530979 332.806562 332.871982 334.180820 336.214621
21.266667 331.733328 333.184726 334.718487 334.843971 336.408433 338.935893
21.400000 333.376591 335.036265 336.643139 336.890304 338.711608 341.628401
21.533333 335.189925 336.897616 338.689960 338.977541 341.094079 344.084307
21.666667 337.136326 338.724942 340.766128 341.057187 343.402002 346.223451
21.800000 338.955921 340.650451 342.790942 343.130462 345.778659 348.494084
21.900000 340.269358 342.103200 344.489888 344.691737 347.358581 350.172884
22.000000 341.675715 343.542642 346.133859 346.229745 349.057809 351.425799
22.106667 343.174165 345.102944 347.740498 347.822554 350.613077 353.166864
22.213333 344.739771 346.828444 349.318053 349.444547 352.293866 354.663112
22.320000 346.341528 348.448152 350.925692 351.075495 353.819374 356.037936
22.420000 347.867747 349.966620 352.577105 352.626260 355.284543 357.576612
22.520000 349.445208 351.611482 354.184825 354.172876 356.817618 358.938248
22.620000 350.974869 353.230594 355.831302 355.791562 358.387309 360.487621
22.720000 352.482212 354.699787 357.517570 357.413183 359.846760 362.154664
22.820000 354.058715 356.448097 359.135587 359.035133 361.349119 363.656921
22.920000 355.948272 358.120885 360.943622 360.722321 362.978640 365.211135
23.020000 357.711362 359.939850 362.576257 362.406846 364.678111 366.795957
23.120000 359.464979 361.674579 364.185320 364.059767 366.207610 368.397151
23.220000 361.423297 363.659881 365.951118 365.911132 368.059244 370.416387
23.320000 363.466451 365.621703 367.759887 367.794210 369.886344 372.416452
23.420000 365.267852 367.316036 369.492473 369.541195 371.764278 374.213382
23.520000 366.852853 368.960384 371.156039 371.305838 373.593082 376.004808
23.660000 369.121462 371.336237 373.612809 373.743360 376.198167 378.802480
23.760000 370.635473 373.016976 375.403773 375.536165 378.098842 381.027624
23.860000 372.545665 374.696564 377.350993 377.412321 380.040842 383.285089
23.960000 374.409672 376.728372 379.471234 379.547404 382.287151 385.992029
24.060000 376.377787 378.812200 381.710908 381.993432 385.144944 388.938198
24.160000 378.459858 381.326327 384.378201 384.601577 387.960265 392.105423
24.260000 381.120475 383.997719 387.781275 387.765735 391.418220 395.079974
24.360000 383.647878 386.981106 391.073911 390.956631 394.800039 397.611822
24.460000 386.592515 391.085598 395.388120 394.772978 398.177062 400.625340
24.560000 390.460744 395.628755 398.820528 398.350397 400.964332 403.076341
24.660000 397.712369 399.994895 401.706561 401.605244 403.298938 404.976630
24.760000 400.718985 402.245751 403.671132 403.663052 405.103829 406.755230
24.860000 402.357356 403.817166 405.284270 405.322073 406.829838 408.582341
24.960000 403.979089 405.463969 406.838609 406.896469 408.402209 410.087373
25.060000 405.531827 407.077256 408.499917 408.539420 410.040228 411.724987
25.120000 406.617943 408.163050 409.662538 409.687991 411.204115 412.909988
25.220000 408.514188 410.152777 411.951138 411.931467 413.573918 415.688406
25.320000 411.564954 413.527299 415.344387 415.461037 417.469619 419.581968
25.420000 414.635024 416.480110 418.557083 418.590968 420.721944 422.757166
25.520000 417.933548 419.742200 421.790509 421.720152 423.576806 425.309315
25.620000 420.570161 422.586164 424.413799 424.340693 426.143676 427.461386
25.720000 424.031222 425.988522 427.406409 427.406486 428.892740 430.428241
25.820000 427.161176 428.746127 430.109549 430.165592 431.637564 433.468272
25.920000 429.326230 430.461441 432.024419 432.143379 433.754762 435.890694
26.020000 430.886283 432.173129 433.830077 433.960683 435.807052 437.631099
26.120000 432.437167 433.849404 435.490560 435.713773 437.699277 439.818273
26.220000 433.908607 435.479269 437.268890 437.453869 439.454084 441.883692
26.320000 435.426205 437.127175 439.072877 439.248710 441.351089 443.972470
26.420000 437.318777 439.066839 441.121135 441.353299 443.625242 446.987809
26.520000 439.196843 441.128409 443.488291 443.660286 446.108231 449.089181
26.620000 441.825314 444.036213 446.602885 446.782353 449.202810 453.921406
26.760000 445.083219 447.316055 449.643873 450.027556 452.312476 458.503254
26.860000 446.949520 449.146156 451.610049 452.048839 454.691518 460.976808
26.960000 448.672070 450.915712 453.346739 454.006328 456.899215 463.477092
27.060000 450.335405 452.558758 455.116385 455.916342 459.304701 465.234946
27.160000 452.222637 454.269840 456.840246 457.771668 461.756587 467.363634
27.260000 453.606160 456.127858 458.656534 459.608715 464.075131 469.437851
27.360000 455.710041 457.775548 460.437301 461.411664 465.799460 470.923772
27.460000 457.297982 459.449176 462.263107 463.210125 467.819726 472.761872
27.560000 458.981309 461.154526 464.094733 465.036373 469.895998 474.328665
27.660000 460.583036 462.906832 465.934440 466.893114 471.826829 475.735117
27.760000 462.404868 464.734009 468.016697 468.924330 473.810595 477.362168
27.860000 464.055460 466.711513 470.389045 471.016939 475.785917 479.100089
27.960000 465.994734 468.884372 472.688572 473.100625 477.864565 480.761785
28.080000 468.186040 471.223703 475.226592 475.439434 479.840488 482.773584
28.200000 470.666127 473.701680 477.736459 477.728389 481.738496 484.294611
28.320000 473.265023 476.600009 480.002309 480.014847 483.567331 486.051126
28.440000 476.394772 479.438009 482.379342 482.323399 485.320976 487.984172
28.560000 479.767407 482.331998 484.618735 484.702252 487.205637 489.587684
28.660000 482.555903 484.648644 486.688389 486.715466 488.939432 491.065461
28.760000 484.613583 486.793784 488.688098 488.721202 490.774680 492.611482
28.860000 486.816289 488.767205 490.622388 490.618989 492.482042 494.282038
28.960000 488.376811 490.494938 492.302297 492.308376 494.173531 496.041887
29.060000 490.012653 492.226108 494.020003 494.012757 495.884864 497.761861
29.160000 491.767747 493.868272 495.679544 495.709358 497.642601 499.588620
29.260000 493.695218 495.533394 497.290238 497.344497 499.190809 501.223575
29.360000 495.112031 497.017706 498.819504 498.858565 500.668956 502.762484
29.460000 496.835246 498.485875 500.314977 500.354887 502.192015 504.288528
29.560000 498.374332 500.019459 501.815032 501.850936 503.680395 505.889436
29.660000 499.885907 501.517307 503.335709 503.365505 505.206542 507.314913
29.760000 501.581820 503.217557 505.014718 505.106736 506.901721 509.204978
29.860000 503.464575 505.183183 507.062168 507.269362 509.376425 512.073287
29.960000 505.084942 507.297092 509.433907 509.573762 511.983789 514.621825
30.060000 507.432295 509.304326 511.927895 511.932685 514.430133 517.146598
30.160000 509.126612 511.459788 514.363398 514.272095 516.873254 519.720597
30.260000 511.050646 513.713327 516.713808 516.520790 519.175352 521.483413
30.360000 513.220038 516.065741 518.855371 518.664291 521.140311 523.287945
30.460000 515.047288 518.074258 520.791447 520.580027 523.038211 525.081545
30.560000 516.944618 519.852194 522.479832 522.277153 524.760458 526.562254
30.660000 518.627980 521.424784 524.162609 523.953242 526.365563 528.273541
30.760000 520.483058 523.154049 525.799105 525.636675 527.947479 529.866037
30.860000 522.430965 525.063594 527.468108 527.321064 529.601553 531.664123
30.960000 524.262123 526.963707 529.342646 529.172090 531.346275 533.481720
31.060000 526.389732 529.233206 531.343976 531.300609 533.539747 535.761185
31.160000 528.483307 531.177532 533.365776 533.370891 535.810405 538.099964
31.260000 530.902081 533.443778 535.742478 535.905204 538.477208 541.222714
31.360000 533.639872 535.541687 538.040986 538.233045 540.889903 543.879364
31.460000 535.630607 537.783146 540.287681 540.428624 542.978536 546.255308
31.560000 537.689193 539.777802 542.577445 542.630152 545.366213 548.298915
31.660000 539.557754 542.002383 544.839185 544.865825 547.614770 550.527807
31.760000 541.823389 544.436720 547.270093 547.281724 550.080697 552.682694
31.860000 544.315217 547.086034 549.917658 549.693398 552.357879 554.623080
31.960000 546.571720 549.546225 552.338838 552.189459 554.741855 556.908147
32.060000 548.949450 552.188750 554.941452 554.741532 557.154244 560.146534
32.160000 551.705125 554.857201 557.332978 557.288029 559.688123 562.566744
32.260000 554.405808 557.128872 559.568933 559.536908 561.976679 564.338332
32.360000 556.988195 559.588959 561.924154 561.899069 564.362465 566.647534
32.460000 559.438483 561.937838 564.095098 564.147562 566.476364 568.680244
32.560000 561.476780 563.976631 566.207244 566.216281 568.570766 570.510430
32.660000 563.890945 565.991438 568.248915 568.248607 570.492755 572.803438
32.760000 565.721533 568.058789 570.388951 570.331038 572.467112 574.709512
32.860000 567.449428 570.057303 572.401564 572.288145 574.360522 576.614542
32.960000 569.347072 572.183783 574.339656 574.224016 576.318777 578.434224
33.060000 571.316935 574.024938 576.270295 576.153665 578.291644 580.088754
33.160000 573.462739 576.197374 578.287676 578.154098 580.094626 582.025728
33.260000 576.368847 578.565068 580.192987 580.219242 581.958532 584.148254
33.360000 579.743225 581.218150 582.682998 582.820387 584.532224 586.780954
33.460000 581.757329 583.257081 584.848454 584.993731 586.736624 589.104097
33.560000 583.664906 585.154921 586.939017 587.119448 589.111490 591.648354
33.660000 585.228267 587.007034 589.183022 589.252124 591.359158 593.726876
33.760000 587.168871 589.170353 591.404289 591.495396 593.779185 596.686110
33.860000 589.152713 591.573877 593.927636 593.914565 596.306292 598.952817
33.960000 591.228956 593.984151 596.250287 596.312697 598.895313 600.940198
34.060000 593.122687 596.236609 598.505312 598.551592 601.078305 603.187610
34.160000 595.427117 598.444286 600.912120 600.781930 603.285416 605.141379
34.260000 597.435015 600.688896 603.178084 602.948441 605.289009 607.261034
34.360000 599.614838 602.976262 605.420020 605.142044 607.311103 608.974246
34.460000 602.543876 605.307855 607.414661 607.262334 609.278961 610.826999
34.560000 605.433647 607.582891 609.424026 609.317037 611.029846 612.525256
34.660000 607.603358 609.605231 611.364472 611.201678 612.820804 614.195642
34.760000 609.722330 611.453347 613.079274 612.982818 614.560815 615.669530
34.860000 611.619577 613.371114 614.890924 614.789686 616.212724 617.196391
34.960000 614.017773 615.440076 616.820297 616.706320 617.958966 618.790749
35.060000 616.493784 618.013775 619.015140 618.947205 619.940739 620.884640
35.160000 619.235547 620.280447 621.242079 621.255425 622.225379 623.265349
35.260000 621.073999 622.190138 623.302302 623.354072 624.554850 625.796095
35.360000 622.652093 623.853648 625.338917 625.516088 627.143801 629.684401
35.460000 624.346351 625.510956 627.352670 627.641573 629.648408 632.594983
35.560000 625.683215 627.329777 629.449244 629.727734 632.096011 635.208807
35.660000 627.277368 629.169612 631.714445 631.824101 634.305241 637.609658
35.760000 629.115596 631.093722 633.742067 633.812392 636.339237 639.643936
35.860000 630.782656 633.155578 635.892053 635.908365 638.462705 641.611434
35.960000 632.768026 635.273400 638.048272 638.167374 640.940726 644.195896
36.060000 635.027654 637.610893 640.472017 640.648696 643.772437 647.262615
36.160000 637.347090 639.999253 642.906361 643.159709 646.486019 650.244486
36.260000 640.090597 642.576018 645.889969 646.043121 649.591288 653.172169
36.360000 642.544421 645.258324 648.842901 648.958969 652.767320 656.003454
36.460000 644.871524 648.034537 652.135389 652.061651 655.862961 659.500379
36.560000 647.972506 651.474229 655.510323 655.353575 659.062022 662.482968
36.660000 650.629786 654.426517 658.335599 658.163383 661.820421 665.025251
36.760000 653.444569 657.093375 660.956784 660.814157 664.325172 667.686771
36.860000 655.816386 659.679487 663.376877 663.186015 666.618948 669.886109
36.960000 658.469595 662.145833 665.560106 665.446871 668.776123 671.775895
37.060000 660.495280 664.228429 667.619445 667.575153 670.910124 673.695919
37.160000 662.502804 666.411879 669.816626 669.679309 672.924251 675.647793
37.293333 665.568203 669.358192 672.549732 672.438585 675.556370 678.254937
37.426667 669.124938 672.317484 675.272031 675.187096 677.988009 680.720217
37.560000 672.466321 675.226610 677.997775 677.912325 680.460723 683.093197
37.660000 675.023590 677.400147 680.082384 680.004225 682.434065 685.212503
37.760000 676.906686 679.464991 682.018820 681.949774 684.350365 687.163052
37.860000 678.906944 681.195741 683.763164 683.728207 686.089181 688.858327
37.960000 681.395043 683.311674 685.739412 685.737322 688.052684 690.434570
38.060000 683.703103 685.451703 687.871418 687.928708 690.436105 692.877911
38.160000 685.532899 687.499021 689.848669 690.029249 692.555179 695.077301
38.260000 687.178664 689.400919 691.889343 692.014889 694.700318 697.001646
38.360000 689.030002 691.284969 694.037560 693.995538 696.745463 698.875012
38.460000 690.723787 693.076421 696.050992 695.894087 698.683245 700.726089
38.560000 692.708209 695.104646 698.012803 697.804658 700.487006 702.146924
38.650000 694.469792 697.058184 699.731386 699.560970 701.940729 703.726722
38.740000 696.264077 699.070852 701.406135 701.282020 703.495786 705.103921
38.840000 698.617811 701.358255 703.509260 703.281794 705.219365 706.738069
38.940000 700.778629 703.467923 705.386648 705.227424 706.955801 708.505066
39.040000 703.522937 705.661828 707.389060 707.278334 708.962176 710.471708
39.140000 705.776206 707.645464 709.276397 709.231081 710.832463 712.171146
39.240000 707.608208 709.430825 711.150821 711.055232 712.695633 713.898210
39.340000 709.383362 711.218859 712.917588 712.832175 714.502716 715.876873
39.440000 711.205582 713.092484 714.869391 714.817429 716.501138 718.088424
39.540000 712.861592 714.729493 716.614575 716.593569 718.365020 720.187163
39.640000 714.569938 716.260857 718.325683 718.274884 720.187412 722.038536
39.740000 716.037150 717.840407 719.947989 719.916528 721.821233 723.900881
39.840000 717.586948 719.440384 721.571304 721.517778 723.425752 725.762474
39.940000 719.243300 721.124023 723.100030 723.087110 724.940935 727.519805
40.040000 721.070592 722.848337 724.697196 724.810748 726.529883 729.863074
40.140000 723.109511 724.777835 726.588356 726.828280 728.714695 733.296807
40.240000 725.425561 726.984023 728.917303 729.342083 731.617497 736.161397
40.340000 727.638222 729.581485 731.698915 732.147833 734.807513 739.269671
40.440000 729.704079 732.059327 734.679321 734.993436 737.932074 741.883733
40.540000 731.875792 734.602462 737.221516 737.621429 740.848729 744.954610
40.640000 734.348920 736.764970 739.632875 739.985411 743.196954 747.159847
40.740000 736.345707 738.878203 741.770849 742.080136 745.396575 749.085053
40.840000 737.935956 740.859450 743.901381 744.107895 747.651052 750.965422
40.940000 739.831048 742.659851 746.208629 746.200389 749.961329 752.914603
41.040000 741.344299 744.503054 748.432402 748.316582 752.044892 754.783275
41.140000 742.670579 746.367561 750.636548 750.288570 754.081741 756.579453
41.240000 744.917499 748.174081 752.606626 752.180587 755.798526 758.143723
41.340000 746.838885 749.989072 754.518827 753.968664 757.394028 759.676767
41.473333 749.305985 752.679282 756.808385 756.408435 759.640474 762.177914
41.606667 752.155304 755.337986 759.081922 758.758392 761.847248 764.768747
41.740000 754.772500 758.075992 761.330359 761.202187 764.180653 766.877175
41.840000 757.189121 760.332292 763.365148 763.221650 766.059038 768.551980
41.940000 759.508444 762.410735 765.312111 765.249176 768.134579 770.563014
42.040000 762.082096 764.778975 767.748997 767.658393 770.406004 772.699346
42.140000 764.268554 767.452202 770.360595 770.207665 772.952167 775.108542
42.240000 766.962106 770.218201 773.082138 772.879109 775.535875 777.227036
42.340000 769.974733 773.079283 775.677197 775.418309 777.749395 779.586965
42.440000 772.561394 775.517054 777.997256 777.805282 780.081051 781.658659
42.540000 775.015652 777.693014 780.120934 779.946884 782.244579 783.772901
42.640000 777.177982 779.820249 782.193731 781.987628 784.106810 785.641941
42.740000 779.345183 782.208791 784.291194 784.056358 785.965793 787.645554
42.840000 782.177706 784.536447 786.431104 786.236897 787.914943 789.262445
42.940000 785.687187 787.570238 789.123007 789.036973 790.654751 792.143915
43.040000 789.667831 791.197057 792.811802 792.956673 794.589777 797.247572
43.140000 792.421689 794.184148 795.900022 796.033569 798.070272 800.102648
43.240000 794.498515 796.417284 798.374645 798.501428 800.681443 803.177127
43.310000 795.882973 798.027271 800.036445 800.144503 802.349752 804.807693
43.340000 796.403006 798.628691 800.776077 800.835273 803.100961 805.615031
43.440000 798.490449 800.827587 803.039992 803.047385 805.379893 807.584826
43.540000 801.077954 803.051321 805.466599 805.383043 807.656861 809.695143
43.640000 803.362566 805.460020 807.743353 807.727064 809.985915 812.082739
43.740000 805.513402 807.757689 810.024379 809.957308 812.194514 814.408735
43.840000 807.399668 809.953466 812.188883 812.266149 814.551182 817.118118
43.940000 809.634836 812.056031 814.586802 814.898150 817.720104 822.169408
44.040000 811.755954 814.007073 817.413908 818.072417 822.553596 827.775917
44.140000 813.264649 815.687525 819.919194 820.836638 826.609620 830.541813
44.240000 815.516760 817.864527 822.894377 823.492822 829.619899 833.146707
44.340000 817.622003 820.734316 825.814522 826.317407 832.380032 835.685231
44.440000 820.346710 823.915895 829.396038 829.238189 834.722875 838.320080
44.540000 823.633886 827.261511 832.389538 832.119521 836.833154 840.569368
44.640000 826.389630 830.339612 835.229946 834.906166 839.146683 843.053005
44.740000 829.502536 833.894484 838.179794 837.927445 841.621152 845.683149
44.840000 833.019267 838.101074 841.871079 841.774399 845.585602 850.762890
44.940000 836.944267 841.870073 845.530000 845.659176 849.743888 853.766858
45.040000 840.608742 845.194524 848.719122 848.921204 853.443512 856.404520
45.140000 843.309424 847.716620 851.876255 851.803240 856.196375 858.747334
45.240000 845.445873 850.165518 854.924828 854.551171 858.735394 860.738816
45.340000 847.952502 853.042375 858.037867 857.206297 860.949156 862.383711
45.440000 850.515160 855.888868 860.906167 859.753727 862.979703 864.075588
45.540000 852.984884 859.600069 863.255716 862.146561 864.622805 865.764052
45.640000 855.702917 863.564322 865.589818 864.855111 866.696159 867.893669
45.773333 859.922764 866.234080 868.056491 867.736778 869.745791 871.992022
45.906667 864.758193 868.613981 870.460187 870.447884 872.721953 875.086153
46.040000 868.736979 870.937926 872.925765 873.096634 875.409307 877.855076
46.140000 870.727540 872.718536 874.753510 874.955343 877.356639 879.969992
46.240000 872.800791 874.650372 876.558415 876.799910 879.056186 881.785639
46.340000 874.758316 876.557027 878.585542 878.733924 880.949232 883.696077
