depth(m) lower_95(kyr) lower_68(kyr) median(kyr) mean(kyr) upper_68(kyr) upper_95(kyr)
56.235000 301.680121 305.342008 308.143952 308.391362 311.873764 315.548242
56.360000 302.737497 306.236365 309.020476 309.293771 312.944421 316.127336
56.485000 304.115132 307.157593 309.958151 310.247272 313.939820 316.865775
56.610000 305.213064 308.170008 310.832393 311.194014 314.782638 317.488406
56.735000 306.374774 309.277164 311.793495 312.187658 315.656112 318.172421
56.860000 307.598450 310.341823 312.872796 313.210994 316.653829 318.871354
56.985000 309.073822 311.494502 314.004389 314.272966 317.627730 319.566033
57.110000 310.119734 312.538301 315.136288 315.293136 318.469105 320.387781
57.235000 311.424702 313.743481 316.267935 316.379294 319.283773 321.018283
57.372500 312.898572 314.974497 317.580907 317.529004 320.162975 321.726330
57.510000 314.355039 316.258768 318.826709 318.650206 320.998653 322.399403
57.647500 315.568139 317.405594 319.903454 319.720135 321.900439 323.326909
57.785000 316.751406 318.702512 320.990295 320.810193 322.702856 323.975661
57.885000 317.665183 319.674311 321.791193 321.561788 323.275597 324.725855
57.985000 318.669830 320.622910 322.500491 322.325440 323.941697 325.316671
58.085000 319.698243 321.651981 323.355664 323.182581 324.656270 325.910091
58.185000 320.567206 322.641959 324.200951 324.042426 325.392102 326.760173
58.285000 321.884686 323.689321 325.059717 324.955523 326.160483 327.650344
58.385000 323.376279 324.792600 325.957097 325.904145 326.995856 328.408799
58.485000 324.228216 325.625900 326.709154 326.699557 327.798874 329.096543
58.585000 325.127098 326.352433 327.492569 327.488919 328.592576 329.682645
58.685000 325.838657 327.126211 328.260165 328.228022 329.389630 330.380827
58.785000 326.591270 327.901417 328.992286 328.962860 330.069509 331.034762
58.885000 327.355052 328.654961 329.774139 329.691375 330.758320 331.609137
58.985000 328.089854 329.451749 330.505976 330.454865 331.496690 332.364066
59.085000 328.922361 330.275780 331.329414 331.256659 332.229927 333.102952
59.185000 329.994603 331.269043 332.249616 332.206174 333.142727 334.104401
59.285000 331.132787 332.302202 333.178760 333.184134 334.074159 335.083246
59.385000 332.123553 333.223282 334.131107 334.137820 335.089987 336.218782
59.485000 333.083552 334.112382 335.091534 335.087378 336.081206 337.047589
59.618333 334.178124 335.260444 336.336488 336.324317 337.342137 338.452014
59.751667 335.526967 336.441895 337.520119 337.494344 338.511929 339.552799
59.885000 336.822977 337.677452 338.643369 338.626078 339.553988 340.557912
59.985000 337.510905 338.434950 339.347437 339.365504 340.275247 341.236986
60.085000 338.170272 339.176355 340.041894 340.048266 340.931971 342.048391
60.185000 338.760018 339.764219 340.620878 340.639332 341.489507 342.629938
60.285000 339.381559 340.388222 341.181924 341.215291 342.008318 343.187516
60.410000 340.089360 341.064484 341.817029 341.876586 342.684462 343.972165
60.535000 340.851016 341.737133 342.440187 342.534248 343.435931 344.656615
60.635000 341.371311 342.256514 342.886541 343.041091 343.984931 345.270429
60.735000 341.979062 342.719989 343.367857 343.537935 344.469446 345.719463
60.835000 342.516019 343.213087 343.841848 344.022955 344.978436 346.286418
60.935000 343.092327 343.709316 344.320042 344.524753 345.541751 346.769549
61.035000 343.586873 344.183144 344.791332 345.013907 346.052842 347.338565
61.135000 344.030874 344.650888 345.246503 345.496076 346.565688 347.793788
61.235000 344.471775 345.065010 345.722052 345.976838 347.112416 348.346621
61.335000 344.951180 345.514504 346.198822 346.461110 347.584406 348.835979
61.460000 345.459726 346.054087 346.766524 347.061635 348.225854 349.487858
61.585000 346.041479 346.587596 347.368348 347.667788 348.864977 350.482290
61.710000 346.546321 347.127425 347.976494 348.262851 349.486631 351.094656
61.835000 347.138655 347.674422 348.619706 348.862598 350.150290 351.637117
61.935000 347.539391 348.124756 349.138388 349.367118 350.682936 352.225920
62.035000 348.035380 348.580685 349.647198 349.873297 351.283654 352.956532
62.135000 348.437674 348.999153 350.170168 350.392419 351.909417 353.589546
62.235000 348.852843 349.442232 350.663730 350.904483 352.503433 354.363816
62.335000 349.257395 349.894026 351.223790 351.421088 353.116676 354.882836
62.435000 349.672113 350.338911 351.741492 351.944679 353.686512 355.554242
62.535000 350.115096 350.774817 352.287305 352.459724 354.363436 356.194834
62.635000 350.575211 351.217111 352.787518 352.975208 354.949062 356.652915
62.735000 350.999716 351.665999 353.282403 353.496051 355.565561 357.227753
62.835000 351.401345 352.093550 353.826644 354.010097 356.107203 357.761833
62.935000 351.853701 352.530716 354.363319 354.520895 356.746143 358.295311
63.035000 352.230518 352.996715 354.923976 355.035201 357.325019 358.781175
63.135000 352.663568 353.436774 355.513521 355.565024 357.871075 359.184032
63.235000 353.084876 353.919023 356.061630 356.082970 358.517925 359.603979
63.335000 353.471849 354.355511 356.607484 356.605593 359.056826 360.030878
63.435000 354.010441 354.857496 357.227445 357.133907 359.535433 360.515712
63.535000 354.427138 355.330389 357.797726 357.635649 359.979425 360.987828
63.635000 354.865352 355.776502 358.470695 358.159865 360.437342 361.445452
63.735000 355.354040 356.236343 359.079876 358.670379 360.882110 361.971355
63.835000 355.746619 356.665249 359.645909 359.187914 361.407076 362.480486
63.935000 356.102245 357.140977 360.209309 359.702608 361.836311 362.928716
64.035000 356.586086 357.634125 360.783212 360.217795 362.315583 363.423941
64.135000 357.073543 358.054699 361.394973 360.722721 362.812805 363.866202
64.235000 357.496040 358.531733 361.935711 361.227451 363.302594 364.368427
64.335000 357.868934 358.967013 362.518847 361.738551 363.821928 364.825508
64.435000 358.477526 359.440425 363.007709 362.259939 364.327013 365.382980
64.535000 359.022991 359.936725 363.529184 362.777972 364.879012 365.867715
64.635000 359.593352 360.463353 364.076300 363.308834 365.407757 366.439656
64.735000 360.089558 360.947968 364.541154 363.859862 366.012515 367.202122
64.835000 360.571368 361.476169 365.067362 364.400470 366.589632 367.826263
64.935000 361.129981 361.951957 365.593972 364.962240 367.179511 368.565080
65.035000 361.657914 362.453199 366.063184 365.521397 367.790823 369.307663
65.135000 362.160196 362.990541 366.603241 366.092163 368.438700 370.243631
65.235000 362.698369 363.507220 367.083004 366.644739 369.061545 370.921680
65.335000 363.150370 364.030442 367.571891 367.206242 369.678670 371.762056
65.435000 363.696838 364.538960 368.090591 367.786237 370.301513 372.524689
65.535000 364.203229 365.065435 368.621143 368.372161 370.870131 373.347351
65.635000 364.755695 365.669227 369.215113 368.971330 371.523133 374.003107
65.735000 365.155873 366.241029 369.793145 369.590682 372.258429 374.818235
65.835000 365.692096 366.835270 370.457705 370.200261 372.998210 375.553208
65.935000 366.170469 367.432212 371.093582 370.834718 373.746736 376.579091
66.035000 366.748539 368.068219 371.782642 371.487055 374.395434 377.150156
66.135000 367.440591 368.763912 372.397019 372.162585 375.144136 377.849993
66.235000 367.918352 369.406339 373.080345 372.841640 375.801096 378.725897
66.335000 368.543473 370.124123 373.787667 373.534157 376.484504 379.523064
66.460000 369.327439 371.116263 374.550853 374.390830 377.329119 380.339631
66.585000 370.199732 372.045382 375.375870 375.293665 378.179091 381.200168
66.685000 370.758170 372.755310 376.034642 375.988350 378.874171 381.905311
66.785000 371.364607 373.475254 376.649348 376.689048 379.393831 382.611738
66.885000 372.184072 374.326368 377.307696 377.387129 380.088896 383.372316
66.985000 373.113403 375.089483 378.039002 378.113840 380.672219 384.053686
67.085000 373.769571 375.797107 378.790941 378.883669 381.438603 384.914253
67.185000 374.735359 376.709241 379.592923 379.661395 382.194282 385.680370
67.285000 375.467229 377.480551 380.394165 380.438759 382.991925 386.615154
67.385000 376.424604 378.393952 381.226503 381.287708 384.127137 387.263739
67.485000 377.149395 379.250561 382.069001 382.152113 385.160433 388.093282
67.585000 377.751417 379.991666 382.891218 383.102215 386.177198 389.148680
67.685000 378.533860 380.830546 383.810807 384.041174 387.329988 390.021251
67.810000 379.408782 382.090225 385.398105 385.431850 388.760079 391.389067
67.935000 380.351589 383.488890 386.908669 386.804467 390.220821 392.461476
68.060000 381.401720 384.620073 388.523081 388.189238 391.656573 393.579762
68.185000 382.389351 385.758400 389.987125 389.497837 392.925960 394.799136
68.285000 382.923004 386.520729 391.100168 390.453459 393.877092 395.723261
68.385000 383.566558 387.388831 392.074879 391.380118 394.728455 396.552498
68.485000 384.295970 388.237649 393.252954 392.384767 395.697123 397.585958
68.585000 385.131379 389.125963 394.310087 393.383423 396.740434 398.562072
68.685000 386.405166 390.632763 395.691205 394.771206 397.953000 399.701467
68.785000 387.434219 392.516001 397.147726 396.233610 399.282241 400.906520
68.918333 389.166526 395.868452 399.121351 398.457689 401.238012 403.460318
69.051667 392.994481 398.826674 401.094435 400.739922 402.971298 405.388811
69.185000 399.511081 401.295327 402.854470 402.894424 404.440818 406.599979
69.285000 400.818730 402.285524 403.797800 403.865161 405.435853 407.632547
69.385000 401.909915 403.198649 404.629131 404.782050 406.378366 408.607438
69.485000 402.858080 404.026632 405.524406 405.632789 407.235270 409.489756
69.585000 403.633546 404.843145 406.354915 406.473856 408.081937 410.338527
69.715000 404.581478 405.843246 407.481476 407.575284 409.305707 411.435483
69.845000 405.395155 406.883605 408.685425 408.752182 410.532489 412.602608
69.975000 406.519606 408.002881 409.880402 409.875918 411.741029 413.834955
70.105000 407.649777 409.207513 410.989480 411.025630 412.931752 414.865687
70.235000 408.813104 410.451541 412.175704 412.262835 414.204711 416.128576
70.335000 409.834186 411.400212 413.159433 413.319412 415.371665 417.058663
70.435000 410.833791 412.491156 414.283990 414.380324 416.327514 418.193430
70.535000 411.905934 413.441135 415.382151 415.437420 417.409165 419.053382
70.635000 412.915881 414.561589 416.441553 416.481822 418.498174 420.272496
70.735000 414.147334 415.745169 417.629511 417.635892 419.544875 421.061965
70.835000 415.108604 416.785802 418.871069 418.723898 420.633093 421.823013
70.935000 415.963472 417.667676 419.809807 419.617715 421.477805 422.582679
71.035000 416.793926 418.534426 420.665960 420.466301 422.270657 423.241217
71.135000 417.615899 419.396977 421.525035 421.278074 422.957884 423.945595
71.235000 418.465519 420.135987 422.408364 422.056336 423.630083 424.491381
71.335000 419.141230 420.997625 423.137239 422.792203 424.296980 425.185404
71.435000 419.840316 421.875317 423.808143 423.498673 424.933072 425.804959
71.535000 420.628233 422.638429 424.545999 424.231029 425.638031 426.505490
71.668333 421.904424 424.167428 425.639421 425.426080 426.666024 427.526640
71.801667 423.355897 425.577470 426.839117 426.662098 427.825183 428.604690
71.935000 425.710494 426.995496 428.024789 427.908408 428.840488 429.493533
72.035000 426.576728 427.795101 428.815837 428.646839 429.548327 429.996387
72.135000 427.602347 428.638538 429.539518 429.385980 430.144587 430.483764
72.235000 428.608008 429.465180 430.198748 430.064345 430.665368 430.981588
72.335000 429.518203 430.277424 430.885879 430.710856 431.162626 431.345776
72.435000 430.452974 431.130766 431.439519 431.334123 431.614149 431.753364
72.535000 431.960288 431.974917 431.987035 431.950797 432.001048 432.014607
72.535500 431.962648 431.977791 431.989814 431.953840 432.003716 432.018204
72.635250 432.111056 432.247955 432.436052 432.428795 432.641235 433.028772
72.735000 432.394774 432.616759 432.856367 432.890936 433.229383 433.795407
72.835000 432.716796 432.968028 433.280094 433.335166 433.778977 434.514056
72.935000 433.032611 433.325095 433.693855 433.770719 434.325571 435.101547
73.035000 433.288689 433.658983 434.118164 434.206013 434.853501 435.595714
73.177857 433.706072 434.107784 434.687765 434.780763 435.530191 436.322943
73.320714 434.078002 434.568446 435.237078 435.348824 436.260027 437.028735
73.463571 434.461911 434.996098 435.810147 435.911035 436.922291 437.739488
73.606429 434.909422 435.461287 436.401844 436.479452 437.610275 438.382752
73.749286 435.388689 435.940675 436.990774 437.057945 438.279754 439.002284
73.892143 435.821613 436.398484 437.626488 437.627719 438.954280 439.652383
74.035000 436.265122 436.852557 438.186045 438.202820 439.593835 440.341821
74.168333 436.750287 437.329032 438.764261 438.759389 440.225719 441.045710
74.301667 437.208089 437.812916 439.374380 439.301395 440.829650 441.663110
74.435000 437.656510 438.243642 439.912579 439.858474 441.468785 442.255312
74.510000 437.934260 438.559951 440.344953 440.208374 441.843036 442.673830
74.585000 438.266237 438.881409 440.721905 440.568507 442.237028 443.069559
74.705000 438.803071 439.360729 441.326674 441.123013 442.891380 443.655669
74.825000 439.273003 439.827968 441.864362 441.688173 443.516585 444.379428
74.945000 439.749336 440.295456 442.453681 442.249419 444.176373 445.109423
75.065000 440.225223 440.810539 443.104389 442.821745 444.777144 445.823248
75.185000 440.752509 441.313936 443.681813 443.399029 445.427636 446.682639
75.285000 441.183087 441.744740 444.225167 443.913941 445.980968 447.262883
75.385000 441.577602 442.199357 444.759722 444.441194 446.589170 447.914202
75.485000 442.116968 442.698377 445.335301 444.988008 447.218731 448.439700
75.585000 442.512778 443.184653 445.927703 445.545530 447.855310 449.136500
75.685000 442.949716 443.700514 446.482754 446.116615 448.504861 449.857998
75.785000 443.411477 444.171070 447.047973 446.739872 449.204865 450.662742
75.885000 443.934930 444.707759 447.636661 447.381404 449.871616 451.501444
75.985000 444.468106 445.243853 448.218164 448.009173 450.598611 452.181350
76.085000 445.001183 445.762368 448.882023 448.675786 451.339604 453.045683
76.218333 445.656983 446.505297 449.769516 449.518784 452.233667 453.806349
76.351667 446.326608 447.219577 450.644881 450.369642 453.123008 454.849913
76.485000 446.962126 447.973723 451.518861 451.220071 453.976186 455.968394
76.618333 447.605528 448.742480 452.397043 452.078723 454.818089 457.275208
76.751667 448.294877 449.550748 453.231463 452.925812 455.693486 458.450406
76.885000 448.982097 450.373231 454.028018 453.776484 456.439205 459.593985
76.985000 449.513969 451.023899 454.637982 454.407825 457.047831 460.449665
77.085000 450.059354 451.590414 455.218291 455.053671 457.649063 461.501438
77.185000 450.620143 452.258913 455.927985 455.685211 458.289986 462.475439
77.285000 451.259200 453.000488 456.554762 456.330068 458.928138 463.172834
77.385000 451.764981 453.583464 457.188171 456.961962 459.587534 463.918003
77.518333 452.683349 454.609219 457.986028 457.792408 460.416636 465.079349
77.651667 453.498768 455.370439 458.766730 458.625782 461.166906 466.200721
77.785000 454.190343 456.242478 459.608778 459.468410 462.053800 467.169667
77.885000 454.713916 456.902070 460.221834 460.098601 462.662581 467.819336
77.985000 455.528757 457.463030 460.830808 460.735972 463.420645 468.438512
78.085000 456.423590 458.105126 461.426271 461.409153 464.227224 469.249468
78.185000 457.184064 458.698879 462.022722 462.068107 464.900947 469.981100
78.285000 457.932131 459.343323 462.637179 462.737388 465.881984 470.577011
78.385000 458.616740 459.946521 463.270603 463.413479 466.562075 471.136848
78.485000 459.402200 460.564564 463.956252 464.113131 467.426430 471.687474
78.585000 460.042539 461.263686 464.641319 464.820519 468.363945 472.221019
78.685000 460.704862 461.920248 465.346748 465.536690 469.082222 472.810591
78.785000 461.405939 462.686888 466.040418 466.241022 469.892709 473.383676
78.885000 462.010973 463.453376 466.740420 466.981602 470.691615 474.012784
78.985000 462.558170 464.237611 467.431791 467.760444 471.539517 474.694864
79.085000 463.056924 465.172437 468.220526 468.543963 472.229066 475.205229
79.185000 463.727966 466.037863 469.017947 469.356194 473.068893 475.877700
79.285000 464.514304 466.986535 469.852006 470.182012 473.921416 476.433433
79.385000 465.126089 467.976554 470.609804 470.989583 474.692388 476.913486
79.485000 465.805328 468.924440 471.510401 471.795950 475.317502 477.470277
79.585000 466.689667 469.915207 472.387700 472.648549 476.125626 478.152999
79.685000 467.348370 470.913185 473.242820 473.504227 477.006587 478.846668
79.760000 468.219160 471.471746 473.995443 474.174908 477.543912 479.259735
79.835000 468.830371 472.084568 474.694305 474.831883 478.074811 479.920731
79.925000 469.757841 473.048689 475.771199 475.783762 478.891581 480.732627
80.015000 470.836251 474.069940 476.902762 476.772588 479.639628 481.452707
80.121667 472.417540 476.011957 478.666923 478.367800 480.944025 483.011805
80.228333 474.686826 477.709723 480.205043 480.019773 482.432628 484.184080
80.335000 477.086720 479.595091 481.732692 481.579957 483.681343 485.326667
80.435000 478.479724 480.769934 482.833250 482.736791 484.781081 486.121924
80.535000 480.005587 481.912934 484.025579 483.845816 485.760371 487.081454
80.635000 481.308558 483.119542 485.160612 485.017553 486.794444 487.918472
80.735000 482.514093 484.343540 486.263680 486.086112 487.750536 488.791903
80.835000 483.436714 485.427361 487.229228 487.044210 488.625180 489.583816
80.935000 484.343199 486.425082 488.129213 487.924218 489.376536 490.311108
81.035000 485.362619 487.359554 489.047976 488.771767 490.125990 490.959587
81.135000 486.278623 488.256319 489.808642 489.561220 490.794235 491.661464
81.235000 487.275161 489.052592 490.527178 490.284341 491.446232 492.307900
81.335000 487.975693 489.881290 491.194374 490.996063 492.073567 492.809291
81.435000 489.094009 490.559577 491.877646 491.684758 492.722026 493.429369
81.535000 489.996792 491.337833 492.503956 492.369250 493.329990 494.051555
81.635000 490.777290 492.100050 493.155817 493.034378 493.945608 494.654226
81.735000 491.454050 492.756095 493.776438 493.693646 494.619752 495.460600
81.835000 492.164504 493.432550 494.435334 494.342165 495.225814 496.157846
81.935000 492.966621 494.081333 495.040824 495.006759 495.900991 496.903788
82.035000 493.558337 494.708791 495.706056 495.678589 496.568628 497.594760
82.135000 494.352633 495.449195 496.377843 496.374328 497.297371 498.480162
82.235000 494.867532 496.091793 497.023652 497.052558 498.028261 499.413896
82.335000 495.509690 496.714950 497.663797 497.712994 498.784423 500.262125
82.435000 496.064290 497.339763 498.279875 498.370862 499.496350 501.132295
82.535000 496.614024 497.981546 498.975079 499.083001 500.325437 501.969102
82.635000 497.372732 498.653672 499.681019 499.808995 501.049210 502.810850
82.735000 498.097683 499.332056 500.443123 500.583393 501.894968 503.638324
82.835000 498.761646 500.017538 501.252496 501.371138 502.735694 504.374926
82.935000 499.560221 500.772019 502.078916 502.196121 503.557582 505.297040
83.035000 500.422825 501.569244 502.918671 503.051406 504.491495 506.316746
83.135000 501.187006 502.427233 503.848801 503.933641 505.486834 507.409138
83.235000 501.874867 503.324810 504.819371 504.889020 506.464817 508.526104
83.335000 502.910964 504.208270 505.843057 505.864079 507.483272 509.494418
83.435000 503.887945 505.235647 506.688550 506.816127 508.473891 510.268978
83.535000 504.778195 506.092224 507.600964 507.748693 509.461682 511.165675
83.635000 505.659044 507.060026 508.627551 508.761877 510.575409 512.337452
83.735000 506.429813 508.008473 509.707025 509.749770 511.556649 513.400947
83.868333 507.519385 509.149007 511.081116 511.078973 512.933981 514.604667
84.001667 508.717608 510.398967 512.423681 512.418207 514.366828 516.235759
84.135000 509.914217 511.643457 513.743561 513.729166 515.679891 517.544396
