depth(m) lower_95(kyr) lower_68(kyr) median(kyr) mean(kyr) upper_68(kyr) upper_95(kyr)
25.060000 289.387514 294.319962 299.695277 299.314747 304.054510 307.987010
25.202857 291.891692 296.622848 301.880381 301.571137 306.110336 309.820097
25.345714 294.223779 298.915118 304.017700 303.772135 308.277332 312.051323
25.488571 296.723233 301.147483 306.128548 305.914813 310.358198 314.028820
25.631429 299.480614 303.597907 308.254924 308.130999 312.654343 316.137878
25.774286 301.787603 305.908436 310.267426 310.330917 314.932055 318.459789
25.917143 304.043084 308.240978 312.358719 312.553028 317.306058 320.553320
26.060000 306.254982 310.520603 314.555286 314.834343 319.799172 322.869467
26.200000 308.228418 312.591073 316.705499 317.045152 322.224799 325.660685
26.340000 310.295821 314.662806 318.722730 319.370496 325.142838 328.509259
26.480000 312.476648 316.746051 320.924707 321.678645 327.705558 330.781272
26.620000 314.382139 318.870640 322.941484 324.135133 330.897581 333.199941
26.760000 316.898052 321.099314 325.108743 326.589887 333.616444 335.877053
26.903750 318.975993 323.491502 327.925106 329.313504 336.321855 340.017225
27.047500 321.402837 325.857871 330.675211 332.094525 339.398857 343.798057
27.191250 323.578917 328.241800 333.886811 335.005655 342.659377 347.442166
27.335000 325.967040 330.660695 336.995326 337.880177 345.686916 351.010403
27.478750 328.813808 333.400907 340.002127 340.791790 348.870173 354.416301
27.622500 331.398612 336.205697 343.348676 343.767807 351.768209 358.072438
27.766250 334.062460 339.031388 346.707216 346.859715 355.013872 361.215655
27.910000 336.520948 342.031505 349.726394 349.874135 357.904361 364.643366
28.053750 339.267369 345.074535 352.922504 352.984666 360.943662 367.458264
28.197500 342.060503 348.043208 356.073084 356.127574 364.299457 370.355910
28.341250 344.956799 351.073932 359.197824 359.276940 367.269638 373.268391
28.485000 347.784964 354.318067 362.332170 362.419290 370.638077 376.594826
28.628750 350.888679 357.657312 365.337819 365.617705 373.675103 379.719819
28.772500 354.460886 360.531952 368.517077 368.689338 376.776855 382.544908
28.916250 358.113159 363.798928 371.746263 371.923292 379.876608 385.938201
29.060000 361.640074 367.452996 375.109515 375.220586 383.015861 389.056079
29.200000 364.732995 371.577659 379.312715 379.056228 386.192073 391.646620
29.340000 367.948105 375.787195 383.438403 382.926613 389.539897 394.191177
29.480000 372.500844 380.598233 387.439379 386.781600 392.839038 396.974742
29.620000 377.446874 385.555748 391.594032 390.689956 395.836582 399.656333
29.760000 384.168981 389.721760 395.389221 394.666934 398.885549 402.744987
29.897500 387.889267 393.625913 398.696638 398.211906 402.336484 406.416068
30.035000 391.826844 397.817941 401.990538 401.815483 405.807692 409.318368
30.172500 396.509583 401.779302 405.642255 405.411327 409.198430 411.963284
30.310000 402.006821 405.390470 409.407127 409.030209 412.187528 415.367289
30.435000 405.336641 409.414245 412.729293 412.545489 415.626312 418.944673
30.560000 409.557298 413.252253 415.992322 416.012575 418.932776 422.393290
30.697500 412.788742 416.358738 419.395948 419.724919 423.183179 428.485778
30.835000 415.595432 419.375840 422.716609 423.327531 427.084510 434.602938
30.972500 418.119594 422.596509 425.964291 426.720976 431.064908 439.465606
31.110000 420.738215 425.988225 428.826210 430.048507 435.031395 442.665811
31.250000 422.725615 428.857882 432.158542 433.081618 438.422629 444.940269
31.390000 425.277663 431.284709 435.289395 435.915407 441.482700 447.168758
31.530000 427.319476 433.549100 438.618537 438.754332 444.171288 450.010528
31.670000 429.434780 436.205645 441.550266 441.443921 446.730002 452.217618
31.810000 431.560704 438.898690 444.491719 444.081148 449.279557 454.249552
31.943333 434.360210 441.030873 446.586347 446.199754 451.490321 456.293086
32.076667 436.436525 442.893040 448.563063 448.219468 453.488026 457.989317
32.210000 439.315070 444.859805 450.485104 450.268056 455.646306 460.341897
32.343333 441.365799 446.788688 452.524437 452.293357 457.560219 462.633379
32.476667 444.005439 448.872739 454.486401 454.332131 459.596600 464.405411
32.610000 446.589024 450.763170 456.464023 456.329749 461.592209 467.128672
32.750000 448.694105 452.673632 458.389357 458.404979 463.567349 469.514869
32.890000 451.096099 454.649409 460.203614 460.452448 465.544954 472.174055
33.030000 453.185018 456.688905 462.129214 462.585235 467.465644 474.556131
33.170000 454.870778 458.739681 463.956754 464.621788 469.326864 477.351730
33.310000 456.823392 460.619042 466.026323 466.620929 471.273121 480.704115
33.443333 458.428433 462.638544 467.869357 468.740014 473.442897 488.066931
33.576667 460.699504 464.820890 469.783042 470.936830 475.487960 497.308783
33.710000 462.570754 466.857543 471.698748 473.319781 477.393787 504.042032
33.843333 464.481634 468.821084 473.554033 475.536520 479.264240 508.616091
33.976667 466.140547 470.915048 475.508623 477.880351 481.330099 511.198642
34.110000 468.326653 473.078152 477.442880 480.173669 483.621658 513.608387
34.250000 471.501316 475.807990 480.338770 483.193572 488.146795 515.361421
34.390000 474.213140 478.571503 483.826931 486.691901 492.973006 518.031490
34.530000 476.891824 481.330255 487.240538 489.983426 497.418263 519.675100
34.670000 480.126101 484.168988 491.529098 493.479670 501.220264 521.572120
34.810000 482.699765 487.213034 495.568667 496.899596 504.513586 523.222006
34.943333 484.857064 490.219028 498.683285 500.099788 508.305755 524.853263
35.076667 487.694481 493.178310 502.163620 503.578638 512.874780 526.593745
35.210000 491.023039 496.934530 506.065205 507.042410 518.008353 528.428618
35.343333 494.450932 501.198467 509.434162 510.390290 521.314330 529.657824
35.476667 497.587561 505.197154 512.644089 513.919810 525.152832 531.472573
35.610000 501.228248 508.887327 516.230600 517.210461 527.517716 532.924495
35.750000 503.392449 512.033018 520.191352 520.521267 530.084151 534.905129
35.890000 507.973184 515.779522 524.198526 523.875622 532.082857 537.165861
36.030000 511.256460 520.397274 528.384881 527.359953 534.281080 539.131657
36.170000 513.904541 524.706133 531.632105 530.612156 536.710209 541.592100
36.310000 516.537766 528.922488 534.451544 533.558516 538.568612 543.325220
36.410000 518.336168 530.715673 535.862661 535.101892 539.889722 544.473428
36.543333 520.592937 532.484906 537.696462 536.903036 541.543044 546.016118
36.676667 523.983629 534.051970 539.540472 538.729925 543.324368 547.405003
36.810000 527.203957 536.051843 541.243034 540.549223 545.139428 548.855378
36.943333 529.649777 537.564453 542.983216 542.288209 546.750019 550.519805
37.076667 533.099524 539.475856 544.623802 544.028024 548.315676 552.295218
37.210000 535.438546 541.317425 546.177267 545.743242 549.771829 553.880125
37.350000 537.656726 543.437181 547.939298 547.692412 551.763132 555.938256
37.490000 539.528726 545.209629 549.907291 549.574576 553.671098 558.056023
37.630000 541.431427 546.899648 551.709703 551.455245 555.289923 560.162848
37.770000 543.399285 548.775127 553.464023 553.340200 557.433556 562.233428
37.910000 545.444216 551.001416 555.234361 555.283693 559.500835 564.029606
38.043333 547.413272 553.062364 557.142923 557.338514 561.593707 566.889564
38.176667 549.029815 555.116836 559.285035 559.505727 564.019631 570.442040
38.310000 550.553688 556.920803 561.261172 561.641400 566.087781 574.027152
38.443333 553.514323 559.016309 563.225792 563.718380 568.016003 576.765738
38.576667 555.754277 560.799502 565.272368 565.787782 570.150930 579.217037
38.710000 557.830577 562.918144 567.655259 568.049740 572.277889 581.935859
38.850000 559.442870 564.938963 570.410982 570.547785 575.185541 584.611246
38.990000 560.999548 566.990179 573.150320 572.999083 577.798370 587.457935
39.130000 563.129343 568.754322 575.864664 575.504611 580.807598 590.166169
39.270000 565.086967 570.404579 578.338109 577.850068 583.466299 592.826697
39.410000 567.021495 572.409732 580.932357 580.292768 586.103509 595.560662
39.543333 568.940611 574.931065 583.109896 582.600973 588.498205 598.018341
39.676667 571.440048 577.707044 585.340416 584.852428 590.911480 599.804264
39.810000 573.847130 580.543139 587.651944 587.112167 592.791749 601.272346
39.943333 575.922274 582.991995 590.058574 589.314813 594.726537 602.730993
40.076667 578.087444 585.487198 592.171054 591.474475 596.884976 604.085833
40.210000 580.278576 588.043725 594.270202 593.606374 599.009064 605.301272
40.354444 582.382096 590.475455 596.480018 595.837550 601.030850 606.699065
40.498889 585.357705 593.309963 598.647046 598.117793 603.156624 607.998723
40.643333 587.499935 595.932736 600.880912 600.266530 605.080314 609.308338
40.787778 590.149671 598.497671 603.017440 602.421119 606.891827 610.549755
40.932222 593.359760 601.165431 605.163327 604.599446 608.582803 611.800932
41.076667 596.616655 603.482028 607.140531 606.703731 610.354472 612.967695
41.221111 600.464731 606.047892 609.194753 608.783471 611.961768 614.229592
41.365556 604.313365 608.449187 611.188765 610.813261 613.486204 615.503020
41.510000 608.221983 610.860622 613.087037 612.836762 615.099441 616.566774
41.610000 609.733081 612.183246 614.326560 614.085422 616.168379 617.492059
41.710000 611.237141 613.418982 615.593181 615.328116 617.305471 618.509881
41.830000 612.771472 615.067684 617.152712 616.875240 618.720953 619.969618
41.950000 614.667960 616.706602 618.626573 618.393274 620.116335 621.628702
42.070000 616.255946 618.400229 620.052901 619.871751 621.391057 623.106689
42.190000 618.144490 619.907122 621.430387 621.314479 622.664430 624.463319
42.310000 619.746857 621.423796 622.730439 622.714508 624.009971 625.805505
42.450000 621.031180 622.761689 624.044732 624.134003 625.610405 627.855239
42.590000 622.424600 623.881673 625.285364 625.458105 626.995354 629.737221
42.730000 623.638590 625.068015 626.491740 626.812556 628.486316 631.402347
42.870000 624.894109 626.263228 627.758971 628.105008 629.873179 633.468165
43.010000 626.037936 627.452897 628.977753 629.387074 631.309271 635.017786
43.143333 626.995424 628.536952 630.034427 630.626791 632.902090 636.900958
43.276667 627.935826 629.569930 631.247607 631.906035 634.429603 638.494205
43.410000 628.888542 630.684067 632.520324 633.226038 635.949716 640.958741
43.543333 629.885905 631.692021 633.712723 634.504282 637.644045 643.118252
43.676667 630.969467 632.720381 634.879282 635.782618 639.204508 644.559261
43.810000 632.052737 633.797110 636.104453 637.079503 640.684392 646.407661
43.950000 633.120867 634.896588 637.450934 638.415976 642.377676 647.856599
44.090000 634.298629 636.002524 638.633326 639.741237 643.924665 649.386097
44.230000 635.350638 637.112192 640.009241 641.060034 645.427647 651.380905
44.370000 636.652202 638.288151 641.367880 642.434211 646.944745 653.042578
44.510000 637.673047 639.475129 642.687500 643.818789 648.885680 654.246404
44.643333 638.504809 640.731135 644.250947 645.236917 650.284054 656.879985
44.776667 639.742710 641.972431 645.804347 646.693592 652.038759 658.331975
44.910000 640.736178 643.078759 647.341880 648.141417 653.698721 660.393856
45.043333 641.996231 644.312035 648.845507 649.648849 655.345899 662.247496
45.176667 643.193043 645.603048 650.100063 651.136363 657.010522 663.699671
45.310000 644.352709 646.932317 651.569769 652.549965 658.404472 665.893941
45.451176 645.518110 648.302607 653.114349 654.017791 659.649836 668.110986
45.592353 647.032206 649.859637 654.476841 655.510419 661.027205 670.503719
45.733529 648.237480 651.219427 656.068692 656.999809 662.356605 672.983152
45.874706 649.657793 652.636354 657.582166 658.459248 663.651623 675.040438
46.015882 650.775672 654.035941 659.100368 659.899845 664.950211 676.964113
46.157059 652.101167 655.428487 660.515402 661.379822 666.373578 678.873291
46.298235 653.350769 656.825882 661.888002 662.861049 667.964440 680.884066
46.439412 654.714628 658.403823 663.249400 664.364339 669.412777 682.907414
46.580588 655.830985 659.753730 664.615840 665.861393 670.681783 684.767785
46.721765 657.163801 661.223594 665.958138 667.307470 672.059541 686.669787
46.862941 658.408727 662.505764 667.227160 668.718182 673.571664 688.915977
47.004118 659.998802 663.930137 668.515017 670.220399 675.220633 691.727169
47.145294 661.151337 665.502455 669.933928 671.716123 676.749260 693.747968
47.286471 662.355025 666.994181 671.310634 673.223679 678.207935 695.531003
47.427647 663.970758 668.517128 672.655355 674.769205 680.168352 697.688976
47.568824 665.326073 669.940582 673.999332 676.286765 682.176369 700.052030
47.710000 666.689749 671.534752 675.199546 677.766845 684.566916 702.289213
47.830000 668.167615 672.707642 676.347403 679.130391 687.055493 704.191989
47.950000 669.461017 673.968426 677.435985 680.455214 689.708110 705.115225
48.070000 670.900841 675.172461 678.565422 681.820268 693.171141 706.313401
48.190000 671.807672 676.407218 679.644485 683.213705 696.647119 707.689064
48.310000 672.999859 677.666528 680.728179 684.647782 699.970382 709.065233
48.410000 674.002900 678.789521 681.646349 685.781363 701.683561 710.305254
48.510000 674.958439 679.840843 682.586342 686.887076 703.388671 711.298697
48.520000 675.223263 679.935131 682.710662 687.003361 703.478587 711.504671
48.658000 676.885059 681.391577 684.615598 689.126369 705.190198 713.700297
48.796000 678.714025 682.769152 686.568719 691.283649 707.022176 716.351348
48.934000 679.973568 684.552266 688.623452 693.508043 708.761966 723.112530
49.072000 681.977594 686.287355 690.556789 695.736499 710.477386 725.489375
49.210000 683.564054 687.711576 692.479305 697.817404 712.238124 728.091704
49.343333 685.418062 689.915438 694.672600 699.970630 714.324448 728.976130
49.476667 687.341354 691.974322 696.697423 702.090529 716.306264 731.717043
49.610000 689.105500 694.140433 698.583262 704.093197 718.072058 733.444335
49.743333 691.258203 696.391867 700.735943 706.188113 719.852721 734.358733
49.876667 694.884333 698.249562 702.354846 708.188404 722.567090 735.903988
50.010000 698.411479 700.209953 704.190296 710.099794 725.409217 738.004648
50.020000 698.529279 700.327648 704.320216 710.225119 725.488002 738.136377
50.158000 700.105813 702.206644 706.005723 712.176523 726.795770 739.342859
50.296000 701.604747 704.130186 708.027110 714.194024 728.186730 740.353524
50.434000 702.986364 706.167899 710.370704 716.201578 729.879836 741.412862
50.572000 704.115475 707.708647 712.731719 718.068936 731.455692 742.160810
50.710000 705.447529 709.172846 715.204440 719.936246 732.773781 743.262542
50.843333 706.628296 710.491315 719.027344 721.768189 734.237883 744.457813
50.976667 707.836962 711.784327 722.585317 723.736060 735.684945 745.945006
51.110000 709.071542 712.990674 725.646249 725.628468 737.110943 746.975929
51.243333 710.319746 714.155694 728.101054 727.383397 738.619791 747.940712
51.376667 711.466720 715.387177 730.106001 729.106617 740.275027 749.255557
51.510000 712.692613 716.555497 731.740890 730.746759 741.864938 750.634721
51.647500 713.959215 717.887365 733.432688 732.537315 744.106317 752.126988
51.785000 715.216851 719.169395 734.725764 734.239964 746.122587 753.600399
51.922500 716.121194 720.393418 736.207059 735.992155 748.179534 755.634047
52.060000 717.269273 722.006976 737.756459 737.797549 750.343229 757.857075
52.135000 717.986725 722.881347 738.434875 738.725271 751.334733 759.036637
52.210000 718.771526 723.906958 739.172212 739.672796 752.480705 759.883269
52.340000 720.293281 725.754757 740.506222 741.708141 754.702524 764.018142
52.470000 721.942215 727.516519 741.818440 743.770746 756.995630 775.970568
52.600000 723.874498 729.216088 743.166382 746.061707 759.571847 781.586729
52.730000 725.928852 731.146571 744.479607 748.175568 762.157824 785.125634
52.860000 727.435155 733.236690 746.407196 750.238049 764.382873 787.146773
52.935000 728.077410 734.237931 747.330780 751.249567 765.378630 788.243071
53.010000 728.999495 735.274420 748.456480 752.233195 766.321174 789.060133
53.147500 730.114921 737.413999 750.716199 754.127403 768.055170 790.355837
53.285000 732.273364 741.064062 752.690540 756.140631 769.865291 791.794201
53.422500 733.799485 744.003938 754.488572 758.045845 771.305017 793.110612
53.560000 735.168160 746.979218 756.538913 760.048233 772.876217 794.390208
53.703750 736.535983 749.541064 759.117379 762.365514 774.853971 795.683626
53.847500 737.752993 752.092298 762.096064 764.740120 776.893167 796.824372
53.991250 738.873850 754.854025 765.388533 767.070392 778.453954 798.176252
54.135000 739.876528 757.435500 768.149727 769.322273 780.602837 799.339677
54.278750 741.024647 760.456790 770.437498 771.599669 782.601038 800.265183
54.422500 742.092956 763.297136 773.030403 773.956693 784.801878 801.433242
54.566250 743.425849 766.741960 775.984591 776.432149 786.622858 802.647999
54.710000 744.099295 769.204562 778.614531 778.658354 788.661366 803.824491
54.853750 745.679594 772.225237 781.300989 780.958971 790.943066 804.814919
54.997500 747.014690 774.864459 783.760866 783.311862 792.904369 805.967693
55.141250 748.195414 778.139096 786.494563 785.712031 794.924100 807.013169
55.285000 749.014156 781.237300 788.953811 788.015910 797.095228 808.244010
55.428750 750.223982 784.461928 791.239635 790.290734 799.416817 809.316416
55.572500 751.888535 787.625598 793.835666 792.655092 801.681257 810.846017
55.716250 752.997139 790.612444 796.317220 794.994548 803.794360 812.141215
55.860000 754.015497 793.451590 798.485077 797.212951 805.194648 813.889509
56.000000 755.320497 795.659448 800.855718 799.332256 807.364387 815.915219
56.140000 757.536450 797.664940 803.034919 801.472551 809.282739 818.240955
56.280000 759.170631 799.794797 805.219137 803.628613 811.182126 820.779663
56.420000 761.110715 801.809551 807.224125 805.623943 812.964379 823.201912
56.560000 762.861008 803.795427 809.480426 807.694005 814.985978 825.736302
56.701667 764.867784 805.879909 811.451346 809.886548 817.426120 827.773095
56.843333 768.265480 807.650669 813.761430 812.172865 819.886391 829.611244
56.985000 772.091129 809.588526 815.665216 814.367575 822.063768 831.367533
57.126667 776.732496 811.740313 818.066007 816.758052 824.506163 833.467443
57.268333 781.201493 813.722592 820.353245 819.047898 826.975204 836.046880
57.410000 786.040226 815.826472 822.538236 821.339090 829.214864 838.047144
57.551667 791.603352 817.803550 824.659980 823.692312 831.949364 840.569452
57.693333 796.071942 819.967093 826.929054 826.075011 834.252524 843.230148
57.835000 804.986247 822.126568 829.129405 828.600152 836.916049 845.439318
57.976667 808.740658 823.941413 831.400930 830.831979 839.217186 847.528881
58.118333 812.113921 825.944755 833.634312 833.065392 841.632812 849.816157
58.260000 815.442569 828.243836 835.777641 835.370689 844.090067 851.594653
58.401667 818.144570 830.417467 838.085707 837.724444 846.377319 853.815041
58.543333 821.161603 832.867648 840.269287 840.014382 848.511667 855.414815
58.685000 824.025496 835.138940 842.569171 842.295734 850.875575 857.125346
58.826667 827.585313 837.573375 845.210706 844.567512 852.982108 859.049720
58.968333 830.700330 839.812061 847.432596 846.837180 855.139459 860.880690
59.110000 832.348017 842.555351 849.753136 849.112353 856.991097 862.312441
59.246364 834.749165 844.790896 851.957453 851.271974 859.241160 863.564974
59.382727 838.372979 847.071353 853.998758 853.397790 861.473543 864.952574
59.519091 840.533497 849.546236 856.204696 855.568836 863.183364 866.571481
59.655455 844.502540 852.050862 858.486873 857.809063 864.879808 868.052749
59.791818 847.301567 854.760721 860.654555 859.988261 866.501626 869.561574
59.928182 850.395510 857.387985 862.767898 862.215120 868.157657 870.887659
60.064545 853.638695 860.314057 864.822372 864.507679 869.537144 872.491460
60.200909 857.197633 862.868243 866.940052 866.597998 871.020986 873.980115
60.337273 861.027688 865.416404 868.931140 868.668523 872.658332 875.682456
