depth(m) lower_95(kyr) lower_68(kyr) median(kyr) mean(kyr) upper_68(kyr) upper_95(kyr)
0.000000 3.702956 4.461908 5.277477 5.303099 6.097901 7.008168
0.020000 4.007344 4.716821 5.544081 5.556875 6.363264 7.282798
0.100000 4.818123 5.587551 6.480461 6.544675 7.511857 8.777716
0.240000 6.045863 7.086366 8.441678 8.783270 10.574312 13.795233
0.380000 7.591609 8.796838 10.893842 11.164318 13.583378 16.281730
0.520000 9.420178 10.979572 13.576184 13.578812 15.956073 18.267792
0.660000 11.631816 13.989126 16.088999 15.970148 17.942117 19.936995
0.800000 15.573776 16.774480 17.967542 18.169244 19.687398 21.497368
0.900000 16.806159 17.890720 19.218716 19.319603 20.816004 22.504478
1.033333 17.960578 19.088794 20.575284 20.639726 22.232895 23.911658
1.166667 19.017611 20.247342 21.811705 21.895689 23.601869 25.232092
1.300000 20.231490 21.494752 23.066293 23.127848 24.806585 26.411774
1.400000 21.049437 22.368789 24.016571 24.072773 25.757734 27.367601
1.500000 21.906017 23.262600 24.999350 25.008515 26.786944 28.415325
1.600000 22.737621 24.153874 25.900637 25.944982 27.823468 29.349730
1.700000 23.624293 25.064290 26.875817 26.899913 28.807333 30.440630
1.800000 24.353770 26.006072 27.783915 27.874296 29.784970 31.464642
1.900000 25.233360 26.934612 28.821216 28.884364 30.864366 32.590055
2.000000 26.468175 27.953808 29.881317 29.909818 31.809073 33.615937
2.100000 27.523824 29.017816 31.099156 31.010584 32.919485 34.722156
2.200000 28.416903 30.080071 32.183764 32.096776 34.014035 35.993067
2.300000 29.485962 30.987379 33.254963 33.140945 35.128311 37.041109
2.400000 30.492231 32.022757 34.227256 34.144642 36.152369 38.235343
2.500000 31.419861 32.936565 35.167828 35.141679 37.143288 39.313014
2.600000 32.265102 33.812234 36.081698 36.092580 38.218686 40.326603
2.700000 33.154120 34.740999 37.011319 37.046140 39.210806 41.438105
2.800000 33.961110 35.660522 38.018740 38.017585 40.315779 42.770215
2.900000 34.826948 36.640223 39.119133 39.029256 41.275401 43.870052
3.000000 35.743531 37.720780 40.226898 40.104562 42.310756 45.155706
3.100000 36.804383 38.900803 41.344467 41.221327 43.337061 46.231840
3.200000 37.958272 40.010091 42.421327 42.355448 44.518845 47.236889
3.300000 38.953544 41.173109 43.512886 43.500405 45.625199 48.233905
3.400000 40.376338 42.449133 44.595241 44.639056 46.835981 49.295955
3.500000 41.528993 43.703957 45.635549 45.822789 48.088131 50.444525
3.600000 42.855542 44.785093 46.840814 46.935104 49.152733 51.577255
3.700000 44.046139 45.978763 47.884340 48.016402 50.104949 52.761369
3.800000 45.077272 47.076181 48.962161 49.059366 51.097556 53.654645
3.900000 46.012920 48.084617 50.076756 50.098347 52.062299 54.547078
4.000000 47.093546 49.158126 51.009642 51.113475 53.105832 55.553009
4.100000 48.184233 50.093882 52.034565 52.116443 54.100455 56.631581
4.200000 49.288848 51.109732 52.982575 53.123539 55.079236 57.855087
4.300000 50.246481 51.998578 54.024732 54.159313 56.085392 59.303506
4.400000 51.238825 53.026285 55.005780 55.254730 57.143430 60.964153
4.500000 52.137324 54.091022 56.097270 56.453227 58.352834 64.328093
4.600000 53.174130 55.256131 57.260814 57.814532 59.708098 68.092740
4.700000 54.568295 56.447735 58.426300 59.224936 61.343652 70.117616
4.800000 55.889859 58.036965 59.863033 60.841866 63.543325 71.617779
4.900000 57.610321 59.755929 62.151031 62.989155 66.538068 72.810343
5.000000 59.587899 61.882390 64.939068 65.475148 69.112056 73.859757
5.100000 61.473811 64.735741 67.966389 67.979045 71.044065 74.932777
5.200000 64.367604 68.108246 70.714886 70.635226 72.987052 75.997833
5.300000 69.457953 71.465721 73.133246 73.372958 75.222740 77.942984
5.400000 71.410254 73.174976 74.955460 75.134171 76.808551 79.655270
5.500000 73.018292 74.808463 76.556764 76.871016 78.511545 85.155466
5.600000 74.410088 76.230423 77.896130 78.445118 80.111488 88.308727
5.700000 76.079683 77.504374 79.239836 80.077483 82.597949 89.973941
5.800000 77.201428 78.664246 80.414872 81.767769 86.041750 91.189975
5.900000 78.474621 79.918793 81.767961 83.374184 88.365058 93.152787
6.000000 79.696894 81.091110 83.459230 85.078949 91.017754 94.668663
6.100000 80.971277 82.373605 85.537172 86.908884 92.765220 95.724932
6.200000 82.140620 83.784440 87.932655 88.748873 94.283447 96.960426
6.300000 83.655686 85.520914 91.310809 90.782343 95.584021 98.219834
6.400000 85.363020 88.070303 93.604133 92.925816 96.902228 99.998771
6.500000 86.665912 91.059734 95.680326 94.967156 98.236242 101.663976
6.600000 88.390310 93.175760 97.177443 96.613858 99.552089 103.048753
6.700000 91.341855 95.104807 98.614267 98.225086 101.102629 104.188902
6.800000 93.763416 97.149767 100.079382 99.874940 102.482683 105.366745
6.900000 96.023869 98.961681 101.617522 101.505311 103.945938 106.695313
7.000000 97.472206 100.589497 103.045248 103.104305 105.669258 108.489504
7.100000 99.171847 102.411394 104.721590 104.807136 107.494049 110.051048
7.200000 101.196497 104.077650 106.570642 106.668514 109.541636 111.818604
7.300000 103.345810 105.844202 108.632946 108.621463 111.489693 113.574358
7.400000 105.392154 107.767231 110.904446 110.576629 113.166920 115.122781
7.500000 106.903340 109.956974 113.190399 112.614613 114.845105 116.575617
7.600000 108.712748 112.650256 115.283907 114.839357 116.939944 118.518500
7.700000 110.571573 114.887517 117.022971 116.725740 118.773772 120.692810
7.833333 113.895542 117.412379 119.735598 119.575876 121.905030 123.924255
7.966667 117.370489 120.200451 122.514944 122.391773 124.789611 126.679940
8.100000 121.228198 123.354693 125.504829 125.297252 127.095844 128.872784
8.200000 124.791103 126.499372 127.956173 127.958792 129.529107 130.907049
8.300000 126.775970 128.248600 129.642997 129.647417 131.137062 132.496603
8.400000 128.569208 129.804406 131.189478 131.164420 132.554546 133.957276
8.500000 129.805530 131.220260 132.649383 132.625856 134.065334 135.457155
8.555000 130.648316 132.072614 133.535740 133.555528 135.150999 136.619735
8.677500 132.367785 133.946966 135.541227 135.593453 137.326361 139.139219
8.800000 134.413475 135.877448 137.578575 137.622699 139.314354 141.026203
8.900000 135.817495 137.329845 138.990601 139.037476 140.867260 142.560845
9.000000 137.150613 138.543883 140.314107 140.367536 142.234344 144.081045
9.100000 138.229821 139.795881 141.589832 141.630174 143.398621 145.257105
9.200000 139.532667 141.158318 142.879211 142.965688 144.762952 146.782320
9.300000 140.847889 142.371543 144.032456 144.212766 146.041535 148.402560
9.400000 142.102514 143.613512 145.256418 145.449397 147.348147 149.860100
9.500000 143.218186 144.710361 146.365045 146.653598 148.577759 151.402924
9.600000 144.224810 145.774340 147.587292 147.860555 150.130622 152.666550
9.700000 145.491843 146.965635 148.890694 149.114997 151.375804 154.238117
9.800000 146.549354 148.186358 150.079028 150.364917 152.697525 155.323721
9.900000 147.651302 149.254482 151.372626 151.597433 153.969515 156.583282
10.000000 148.901353 150.431090 152.642637 152.818965 155.268637 157.920377
10.100000 149.948638 151.650579 153.837709 154.058252 156.544077 159.071811
10.200000 151.071926 152.883911 155.122679 155.281356 157.714110 160.043504
10.300000 152.439916 154.105531 156.404810 156.514969 158.914495 161.101028
10.400000 153.566757 155.398232 157.656548 157.703817 160.062484 162.324333
10.500000 154.836732 156.645768 158.892635 158.944306 161.233899 163.477368
10.600000 156.105861 158.034224 160.098214 160.267359 162.524738 164.835157
10.700000 157.500784 159.456452 161.540627 161.722767 163.959660 167.130317
10.800000 158.619318 160.956670 163.013320 163.325464 165.795171 169.369323
10.900000 160.125010 162.363276 164.597231 165.012802 167.625903 172.071601
11.000000 161.849299 163.999922 166.503250 167.103014 170.026171 176.287893
11.100000 163.426629 165.840492 168.801377 169.464605 173.055975 179.830469
11.200000 165.215787 168.014263 171.689536 172.371820 177.175564 182.232601
11.300000 166.900504 169.888470 175.465624 175.396586 180.736853 184.582041
11.400000 168.827388 172.533663 179.212605 178.507326 183.272560 187.200997
11.500000 171.367762 176.958999 181.911295 181.440547 186.065055 189.005331
11.600000 175.606694 180.705898 184.945755 184.443512 188.404471 190.376984
11.700000 180.019351 184.092352 188.074053 187.458521 190.602583 191.957305
11.800000 184.338473 188.603143 191.122316 190.651175 192.670445 194.075734
11.820000 185.070606 189.103420 191.659377 191.144209 193.189001 194.399701
11.920000 191.275127 193.141689 194.470240 194.658790 196.131077 199.156785
12.020000 193.552381 194.717190 196.067726 196.486939 197.945617 202.851040
12.120000 195.091369 196.090319 197.506910 198.220989 199.923720 206.691163
12.220000 196.166097 197.318451 198.895308 199.792827 202.227353 208.859136
12.320000 197.349118 198.632341 200.256168 201.400357 204.924416 211.121277
12.420000 198.491730 199.930886 201.689206 203.007977 207.754605 212.545337
12.553333 199.911449 201.552597 203.447970 205.204036 211.943473 214.385673
12.686667 201.809975 203.191674 205.236366 207.226056 214.061414 215.849361
12.820000 203.432640 204.909901 207.106085 209.261591 215.906078 217.171851
12.920000 204.815550 206.158595 208.761521 210.743349 216.836506 218.062133
13.020000 206.041760 207.752647 211.591488 212.496043 217.640400 218.916237
13.120000 207.073275 210.027386 215.397582 214.591137 218.459676 219.663758
13.220000 208.470542 213.366165 217.478353 216.550251 219.280430 220.354730
13.320000 210.963899 215.792239 218.532628 217.897021 220.012867 221.090424
13.420000 214.680228 217.469460 219.374577 219.118106 220.759136 221.734467
13.520000 216.608572 218.605391 220.288033 220.080041 221.528845 222.587296
13.620000 218.148687 219.844673 221.224045 221.085499 222.335805 223.346062
13.720000 219.321533 220.762665 222.078118 221.971876 223.171762 224.088836
13.820000 220.343292 221.688055 222.942089 222.838252 223.986628 224.871986
13.920000 221.254233 222.552463 223.788453 223.683152 224.777619 225.577491
14.020000 222.162310 223.403278 224.626184 224.512540 225.566961 226.389199
14.120000 223.068807 224.287051 225.472067 225.372700 226.387332 227.186087
14.220000 223.988827 225.236045 226.317169 226.221851 227.169365 228.105836
14.320000 224.862374 226.097435 227.165021 227.075470 228.022865 228.933597
14.420000 225.660071 226.957682 227.995703 227.938526 228.869650 229.771415
14.520000 226.646280 227.826563 228.862497 228.793152 229.758202 230.534060
14.620000 227.529788 228.767370 229.766988 229.684078 230.590938 231.424367
14.720000 228.343195 229.677694 230.627343 230.566059 231.467788 232.264928
14.820000 229.241715 230.542812 231.513654 231.424108 232.313542 233.038602
14.920000 230.314183 231.460958 232.371686 232.318904 233.166293 233.951696
15.020000 231.439891 232.468361 233.303462 233.274338 234.108626 234.909619
15.120000 232.771523 233.570209 234.409375 234.403463 235.192133 236.200532
15.220000 234.164436 234.935837 235.846116 235.919473 236.886660 238.259469
15.320000 235.261532 236.208474 237.239904 237.372391 238.585212 239.958585
15.420000 236.214361 237.413812 238.740722 238.794933 240.196201 241.384511
15.520000 237.378937 238.744841 240.245227 240.217062 241.631677 242.994209
15.620000 238.853738 240.428748 241.790271 241.716724 242.946003 244.085969
15.720000 241.040151 242.362069 243.403064 243.378703 244.458908 245.568478
15.820000 243.197076 244.111620 245.118633 245.259117 246.420941 248.022451
15.920000 244.286583 245.509228 246.785901 246.935650 248.317654 250.464110
16.020000 245.674592 246.911561 248.479121 248.675453 250.362212 252.912769
16.120000 246.932124 248.391368 250.341439 250.469654 252.499546 254.882115
16.220000 248.145332 250.039945 252.254914 252.204437 254.225620 256.448600
16.315000 249.225983 251.666600 253.977419 253.835322 255.906569 258.389345
16.410000 250.465190 253.384071 255.463236 255.403271 257.493368 259.874758
16.500000 252.001283 254.691289 256.763933 256.742538 258.824522 261.030189
16.600000 253.742460 256.063594 258.072216 258.090398 260.158394 262.342886
16.700000 255.223853 257.406236 259.457163 259.463616 261.621103 264.001481
16.800000 256.581129 258.810285 260.802486 260.800434 262.940242 265.330031
16.900000 258.039347 260.226469 262.182710 262.190216 264.296165 266.433241
17.000000 259.391300 261.522322 263.675115 263.644529 265.787672 267.599539
17.100000 260.706324 262.967633 265.107727 265.125404 267.348755 268.842269
17.200000 262.083845 264.594425 266.793885 266.586056 268.605553 269.993591
17.300000 263.722854 266.328921 268.310236 268.083645 269.831612 271.224609
17.400000 265.075378 268.003554 269.850068 269.549096 270.976668 272.594804
17.500000 266.310877 269.641260 271.137426 270.963616 272.443082 273.968693
17.600000 267.607229 270.991936 272.648787 272.474745 274.138702 275.568140
17.700000 269.219124 272.090309 273.813938 273.705352 275.401219 276.841630
17.800000 271.112867 273.262616 274.948526 274.883332 276.563774 277.893715
17.900000 273.144561 274.568597 276.256592 276.153887 277.786268 278.926648
18.000000 274.370353 275.705061 277.314121 277.238620 278.774434 279.885625
18.100000 275.509531 276.882130 278.413006 278.311847 279.704854 280.689265
18.200000 276.593689 278.102778 279.517259 279.373310 280.640161 281.530831
18.300000 278.064162 279.509009 280.695759 280.616828 281.747399 282.519869
18.400000 279.479581 280.845329 281.898208 281.880941 282.929687 284.003424
18.500000 281.113565 282.107303 283.117705 283.122235 284.111224 285.266269
18.600000 282.418356 283.287212 284.251548 284.246539 285.230898 286.223986
18.700000 283.405489 284.286111 285.292087 285.277088 286.289242 287.215485
18.800000 284.217855 285.252024 286.231365 286.269543 287.343045 288.471543
18.900000 285.084361 286.058893 287.115684 287.199409 288.283960 289.584507
19.000000 286.046800 287.015917 287.997601 288.131346 289.126853 290.841213
19.100000 287.005630 288.005480 288.977406 289.196336 290.398553 292.727793
19.200000 287.944025 288.876664 289.984446 290.326971 291.614126 295.945957
19.300000 288.951529 289.845590 291.073345 291.584937 293.139863 298.006407
19.400000 289.975910 290.963221 292.389041 292.987048 295.001468 299.423507
