depth(m) lower_95(kyr) lower_68(kyr) median(kyr) mean(kyr) upper_68(kyr) upper_95(kyr)
0.170000 1.693399 2.497818 3.334987 3.335355 4.155600 4.979617
0.280000 3.882906 4.901243 6.098580 6.250043 7.684232 9.120191
0.365000 6.128940 7.517272 9.469045 9.465679 11.397463 12.925503
0.450000 9.585945 11.631441 13.213361 12.983073 14.246268 15.266298
0.550000 14.024638 15.383548 16.421844 16.634898 17.896081 20.414230
0.690000 17.034268 18.292653 19.803482 19.962423 21.653855 23.657789
0.790000 18.805147 20.271526 21.955858 22.183485 24.133340 26.762624
0.890000 20.514018 22.346393 24.138998 24.390710 26.427250 29.510182
0.990000 22.747218 24.399632 26.312864 26.541408 28.592693 32.035514
1.090000 24.790300 26.513852 28.423385 28.694522 30.740362 34.427697
1.180000 26.324521 28.429807 30.348365 30.665067 32.879317 36.966126
1.280000 28.225403 30.436413 32.486908 32.899365 35.228222 40.338127
1.390000 30.770162 33.080818 35.150217 35.758940 38.349630 44.916528
1.500000 33.051334 35.421137 37.856920 38.667741 41.653804 48.824961
1.610000 35.253666 37.948366 40.929645 41.813541 45.832845 54.157361
1.730000 38.023397 40.856100 44.497321 45.940763 52.755575 58.059499
1.850000 40.576000 43.888959 48.276661 50.121960 58.074957 61.514107
1.940000 43.443572 46.872113 52.781191 53.520605 60.911172 63.731948
2.055000 47.190975 52.439223 59.221598 58.284532 63.649993 66.260836
2.170000 54.894762 59.702404 63.445470 63.029683 66.431173 68.683084
2.310000 62.092571 65.160034 67.718368 67.552042 69.962769 72.087399
2.430000 67.785827 69.864692 71.760255 72.065675 73.960703 77.592105
2.490000 70.209174 71.890579 74.045279 74.535982 76.622568 85.835512
2.560000 72.093626 73.866108 77.108361 77.727668 80.740912 88.453936
2.635000 73.817797 75.811034 82.043683 81.811307 87.313796 91.281602
2.710000 75.445716 77.710618 88.068647 85.895365 91.039786 94.031069
2.750000 76.329180 79.048608 90.113721 87.696504 93.085513 95.776385
2.800000 77.718652 81.030316 92.134633 89.744074 95.290656 98.237543
2.890000 79.469399 89.365940 95.144431 93.653613 98.328783 101.908725
2.920000 80.323725 91.401371 96.203159 94.767744 99.461805 103.209641
2.960000 81.250814 93.040120 97.745256 96.191285 100.982463 104.199857
3.060000 83.493148 96.185304 101.112583 99.622640 104.644719 107.603234
3.150000 86.686741 98.697542 104.344780 102.999122 108.383355 111.186563
3.240000 91.195554 100.975297 107.649660 106.339036 111.699329 113.593719
3.330000 95.566185 103.660941 111.342058 109.487516 114.316970 115.714930
3.440000 100.732763 108.289738 114.985824 113.134933 116.571858 117.819518
3.550000 106.051038 115.030443 117.413918 116.596881 118.811459 120.009995
3.660000 116.667833 118.597604 119.986016 119.852560 121.170285 122.544622
3.770000 119.463585 120.890424 122.181934 122.182439 123.476386 124.760485
3.880000 121.572274 123.077046 124.360840 124.343724 125.601134 127.126210
3.980000 123.985255 125.236323 126.551049 126.636836 128.067274 129.576900
4.080000 127.261463 128.580402 130.183647 130.216602 131.832874 133.499377
4.180000 130.111031 131.865001 133.550233 133.499289 135.146528 136.814903
4.280000 132.947407 134.700841 136.175948 136.232095 137.892276 139.600170
4.370000 134.972046 136.499319 138.198843 138.192204 139.819519 141.633252
4.470000 136.647766 138.348224 139.994481 140.094129 141.768992 143.825836
4.560000 138.261947 139.991014 141.788149 141.896110 143.680888 146.362282
4.670000 140.202891 141.857461 143.844704 144.117413 146.192095 150.292734
4.770000 142.248086 143.771555 145.984373 146.377675 148.811392 153.592018
4.880000 144.222576 146.061462 148.566052 149.030498 152.056089 156.232776
4.980000 146.388566 148.510161 151.569213 151.735461 154.769119 158.554688
5.080000 148.677967 151.276003 154.760633 154.705164 158.016231 160.821035
5.180000 151.092545 154.346766 157.790533 157.695641 160.864653 163.586566
5.280000 154.434246 158.031993 160.833648 160.839591 163.669735 166.602640
5.380000 159.176834 161.962421 164.699455 164.735070 167.454105 170.557495
5.480000 163.279614 165.904943 168.692020 168.669624 171.365760 174.282347
5.580000 166.011815 168.959014 171.790057 171.656557 174.271411 177.178477
5.680000 168.671942 171.929547 174.922268 174.622170 177.049153 179.516442
5.780000 170.767392 174.127455 177.662384 177.227287 180.082378 181.895993
5.890000 173.174574 176.690425 180.326394 179.867269 182.804962 184.301911
5.990000 175.393807 178.898456 182.695141 182.106174 184.977588 186.318540
6.080000 178.207708 181.260678 184.749351 184.213893 186.825430 187.873762
6.180000 180.782383 184.110540 187.063653 186.534270 188.673262 189.747494
6.280000 183.993134 187.747163 189.323583 189.001186 190.470385 191.376358
6.380000 189.876249 191.008525 191.948383 191.890317 192.866614 193.752691
6.470000 192.505392 193.396744 194.388392 194.493760 195.514815 197.095923
6.570000 194.415470 195.417651 196.606128 196.876670 198.336934 201.368287
6.670000 196.429235 197.558534 198.868618 199.363044 201.361578 204.601552
6.770000 198.465690 199.669004 201.345166 201.877501 204.336015 207.657650
6.880000 200.532205 202.278935 204.429358 204.825784 207.509504 210.196277
6.980000 203.014753 205.107862 207.739366 207.723856 210.294005 212.334129
7.080000 205.485257 208.583988 211.209280 210.992712 213.233444 215.013218
7.180000 209.237153 212.270340 214.345633 214.065422 215.775240 217.281436
7.280000 213.913177 215.951326 217.255124 217.283920 218.639709 221.007796
7.370000 216.910168 218.293864 219.536893 219.976766 221.602816 226.198468
7.470000 219.208543 220.543281 222.296010 222.959047 225.738005 229.396400
7.560000 221.499761 223.081355 225.754521 226.076082 229.233956 231.660165
7.570000 221.796444 223.390799 226.189129 226.424718 229.583211 231.938756
7.660000 224.861403 227.375574 230.156295 230.025798 232.706441 234.655956
7.780000 229.040456 231.776475 234.114124 233.818488 235.667523 237.256844
7.910000 235.312400 236.883041 238.278843 238.249201 239.693324 241.200787
8.030000 238.303678 240.301089 241.777204 241.700589 243.132336 244.392084
8.130000 242.123133 243.478775 244.898797 245.132126 246.900147 248.914373
8.240000 244.949820 246.850830 250.185826 250.143536 253.130521 256.035536
8.350000 247.390043 250.237513 254.959656 254.322723 257.566863 260.057434
8.490000 250.807224 255.732315 258.996954 258.578264 261.402654 263.935475
8.610000 254.755783 259.063866 262.144084 261.859758 264.509124 267.522180
8.710000 258.004662 262.180475 264.895528 264.668325 267.037693 270.939611
8.790000 260.368200 264.410192 267.068117 266.912916 269.181727 273.311463
8.890000 263.733343 267.782581 269.869133 269.944955 272.266197 275.787951
8.950000 266.059635 270.031291 272.029028 272.128766 274.560407 277.362751
9.050000 271.762136 274.157223 276.659938 276.485203 278.828746 280.471299
9.160000 278.836725 280.442972 281.916633 281.955341 283.330973 285.696904
9.270000 282.761553 284.290842 286.207781 286.157045 287.945063 289.649956
9.370000 285.721868 287.690827 289.887789 290.252125 292.705599 297.263058
9.480000 288.396455 290.497931 293.558085 294.093969 298.019938 302.384112
9.600000 291.473747 293.926943 297.710197 298.210298 302.884577 306.872782
