depth(m) lower_95(kyr) lower_68(kyr) median(kyr) mean(kyr) upper_68(kyr) upper_95(kyr)
0.010000 3.929324 4.687348 5.440205 5.400849 6.122420 6.603934
0.100000 4.644161 5.394209 6.034216 6.017269 6.668755 7.166791
0.210000 5.436403 6.066521 6.629936 6.623476 7.206354 7.760859
0.300000 5.890515 6.513230 7.062266 7.074714 7.654444 8.233468
0.410000 6.428931 7.005666 7.571494 7.579320 8.157844 8.812450
0.500000 6.839857 7.421034 7.976840 7.983029 8.535588 9.157576
0.610000 7.283691 7.882599 8.445240 8.452191 9.045395 9.608497
0.710000 7.703353 8.273673 8.850275 8.870287 9.477412 10.032135
0.810000 8.157526 8.709477 9.288640 9.303184 9.902242 10.454997
0.910000 8.558313 9.168173 9.753727 9.767060 10.390901 10.995896
1.000000 8.997966 9.605673 10.231205 10.224954 10.857082 11.483781
1.100000 9.504432 10.184167 10.797682 10.797832 11.425845 12.017097
1.210000 10.191909 10.872561 11.523931 11.530331 12.225280 12.772048
1.310000 10.860482 11.613601 12.248187 12.250501 12.928234 13.530610
1.410000 11.610338 12.327561 13.010706 12.999856 13.651258 14.274062
1.490000 12.204543 12.981491 13.664703 13.642212 14.316761 14.937025
1.610000 13.226370 14.010107 14.740178 14.756942 15.482132 16.391022
1.710000 14.275410 15.021390 15.985896 16.108537 17.217482 18.688908
1.810000 15.272396 16.233475 17.242966 17.361163 18.569363 19.793638
1.910000 16.056419 17.154142 18.348208 18.435083 19.647792 21.113332
2.010000 16.740832 17.911692 19.278658 19.369343 20.755843 22.442363
2.110000 17.534488 18.778627 20.171993 20.287398 21.847071 23.302855
2.210000 18.077155 19.627411 21.162122 21.225310 22.880897 24.249275
2.310000 18.755447 20.493634 22.078150 22.086800 23.768190 25.083868
2.410000 19.577046 21.398056 22.958110 22.920283 24.560207 25.726121
2.510000 20.569194 22.225511 23.796961 23.735716 25.287130 26.487350
2.610000 21.477781 23.043643 24.565730 24.503072 25.941252 27.130061
2.710000 22.257828 23.875632 25.340567 25.250090 26.652488 27.841521
2.810000 22.829348 24.573643 26.072261 25.931798 27.259078 28.344731
2.910000 23.565803 25.230951 26.844711 26.655642 28.018337 28.948287
2.990000 24.243343 25.795465 27.314735 27.162278 28.481448 29.373414
3.110000 25.053267 26.561470 28.047283 27.919547 29.213280 30.142719
3.210000 25.629259 27.166194 28.645010 28.524222 29.817030 30.747145
3.310000 26.211744 27.709598 29.212840 29.086550 30.396853 31.269107
3.410000 26.721301 28.260563 29.770159 29.638532 30.929914 31.862543
3.510000 27.335824 28.891987 30.375156 30.217376 31.490816 32.478421
3.610000 27.881005 29.467465 30.935043 30.790702 32.033197 33.104533
3.710000 28.428856 30.113366 31.506674 31.399896 32.618384 33.944153
3.810000 29.009182 30.721829 32.115268 32.007713 33.279102 34.592614
3.910000 29.710805 31.298868 32.708312 32.601750 33.844574 35.265221
4.000000 30.115317 31.871157 33.239646 33.121325 34.329114 35.742500
4.110000 31.024855 32.618884 33.929766 33.825797 34.936861 36.430488
4.210000 31.681294 33.264150 34.515833 34.443148 35.487081 36.973916
4.310000 32.376029 33.966455 35.107985 35.074870 36.140728 37.479603
4.410000 33.025639 34.560890 35.691706 35.694430 36.848677 37.977903
4.490000 33.785555 35.172019 36.205765 36.232894 37.383438 38.493729
4.600000 34.581707 35.871599 36.909621 36.928777 38.043296 39.174285
4.710000 35.538711 36.660030 37.631924 37.677037 38.764027 39.722232
4.810000 36.158371 37.270631 38.249616 38.287821 39.378526 40.331057
4.910000 36.856096 37.865235 38.876307 38.877830 39.900742 40.982664
5.000000 37.459086 38.408726 39.389787 39.408725 40.378149 41.529054
5.110000 38.079636 38.966662 39.989408 40.008037 40.959980 42.138673
5.200000 38.542592 39.492634 40.489078 40.505246 41.513812 42.661855
5.310000 39.168487 40.078452 41.075551 41.097029 42.127957 43.307291
5.410000 39.682907 40.621487 41.604759 41.652627 42.641917 43.893305
5.500000 40.164143 41.093702 42.113995 42.184716 43.237692 44.607301
5.610000 40.787104 41.723912 42.712579 42.816055 43.855120 45.346582
5.690000 41.263352 42.163429 43.139049 43.282700 44.338210 46.051951
5.770000 41.772649 42.630887 43.640973 43.772522 44.901394 46.684212
5.870000 42.351785 43.199739 44.179880 44.381719 45.580140 47.629925
5.990000 42.888726 43.845463 44.875476 45.071531 46.368773 48.334933
6.090000 43.491932 44.376439 45.407539 45.639919 47.023189 48.850257
6.200000 44.061195 44.951762 45.977425 46.266762 47.637615 49.745319
6.300000 44.546275 45.477865 46.546499 46.850746 48.322658 50.680277
6.400000 45.063745 46.003407 47.105384 47.434841 49.013175 51.215420
6.490000 45.560683 46.450073 47.673446 47.968088 49.578194 51.626693
6.590000 46.098026 47.026588 48.276961 48.565647 50.307152 52.320789
6.700000 46.645749 47.587273 48.929245 49.239405 51.088635 52.931499
6.800000 47.222804 48.208055 49.629664 49.899526 51.708835 53.664265
6.900000 47.722245 48.849267 50.398921 50.602309 52.439719 54.255978
7.000000 48.401209 49.491090 51.237236 51.321206 53.166431 54.767043
7.090000 48.968826 50.122178 51.950653 51.967565 53.755320 55.312068
7.210000 49.767774 51.016047 52.794829 52.832825 54.594297 56.022150
7.355000 50.590518 52.149447 53.825478 53.826128 55.541661 56.882833
7.500000 51.570235 53.111442 54.942554 54.831631 56.412356 57.687320
7.600000 52.316418 53.893955 55.680428 55.552966 57.124382 58.252977
7.700000 53.113488 54.791691 56.445171 56.303337 57.779488 58.807834
7.800000 53.998326 55.662617 57.214603 57.058452 58.427366 59.288107
7.890000 54.840320 56.361144 57.914420 57.737196 59.002836 59.887489
8.000000 55.757412 57.379189 58.716404 58.571785 59.735090 60.646378
8.100000 56.557227 58.135733 59.357434 59.229962 60.339781 61.170608
8.210000 57.520829 58.930556 60.099332 59.946748 60.976774 61.818797
8.300000 57.993303 59.548181 60.603791 60.492710 61.484461 62.334050
8.400000 58.625186 60.148069 61.192291 61.089910 62.031790 62.798339
8.500000 59.354959 60.761281 61.757259 61.649297 62.564738 63.297901
8.600000 59.885382 61.357765 62.293308 62.187485 63.107110 63.797694
8.700000 60.371695 61.907415 62.801226 62.706544 63.593608 64.298051
8.800000 60.911627 62.383111 63.289277 63.209550 64.052625 64.741353
8.900000 61.613558 62.894575 63.791243 63.717873 64.554022 65.248437
9.000000 62.050546 63.436636 64.254283 64.208570 65.027880 65.734824
9.100000 62.669023 63.940113 64.750091 64.707362 65.483533 66.360079
9.200000 63.259211 64.405370 65.248015 65.194217 65.961153 66.836881
9.290000 63.755416 64.849682 65.690129 65.643176 66.415235 67.256573
9.390000 64.271982 65.371187 66.187273 66.140856 66.927049 67.831100
9.490000 64.769153 65.893892 66.670762 66.632273 67.408293 68.218405
9.600000 65.338249 66.427795 67.182992 67.175874 67.964611 68.862364
9.700000 65.914549 66.911559 67.697257 67.707794 68.503187 69.444709
9.800000 66.474543 67.460604 68.208331 68.248427 69.121024 70.074985
9.890000 67.014154 67.920306 68.738409 68.771414 69.637193 70.623462
9.995000 67.664122 68.578201 69.393356 69.459284 70.328279 71.649922
10.100000 68.373078 69.217167 70.095134 70.160628 71.094755 72.387953
10.190000 69.050485 69.835221 70.797638 70.868465 71.925790 73.295064
10.300000 69.853829 70.574353 71.635213 71.703540 72.848308 74.120070
10.410000 70.629968 71.542708 72.568866 72.656217 73.873573 75.037170
10.500000 71.370594 72.188627 73.258248 73.352270 74.533447 75.714032
10.590000 71.980315 72.913529 73.996517 74.043389 75.207187 76.270736
10.695000 72.697389 73.661704 74.862797 74.810642 75.940840 76.857561
10.800000 73.388448 74.366321 75.629641 75.558722 76.643466 77.542795
10.890000 74.101490 75.037144 76.235180 76.180689 77.227717 78.051371
10.990000 74.755112 75.812738 76.941467 76.840247 77.816255 78.565685
11.100000 75.409866 76.539338 77.602198 77.509862 78.442854 79.101783
11.180000 75.880871 77.105927 78.121201 78.021583 78.911286 79.547962
11.300000 76.868179 77.944403 78.835036 78.749253 79.574860 80.230544
11.390000 77.517115 78.539999 79.398767 79.329460 80.106892 80.811708
11.490000 78.319971 79.223695 80.021413 79.981797 80.728122 81.342309
11.590000 79.147761 79.938774 80.672027 80.658407 81.411296 81.990278
11.690000 79.824711 80.609043 81.317007 81.296346 81.997110 82.642557
11.790000 80.476924 81.257668 81.963582 81.928216 82.622499 83.173115
11.900000 81.017592 81.895437 82.590059 82.546631 83.216695 83.809303
12.010000 81.698099 82.455872 83.167957 83.142239 83.826332 84.456290
12.110000 82.307013 82.954940 83.691357 83.671125 84.341163 85.068816
12.190000 82.731030 83.454751 84.152528 84.135152 84.797711 85.540460
12.280000 83.411956 84.026691 84.666334 84.673849 85.308282 86.117928
12.390000 84.124334 84.732302 85.397219 85.413850 86.092032 86.891169
12.490000 84.888932 85.484135 86.153792 86.210315 86.932155 87.888294
12.590000 85.664697 86.335279 87.023929 87.099887 87.873220 89.080607
12.690000 86.434445 87.091154 87.924092 87.950917 88.741468 89.932320
12.790000 87.010494 87.883792 88.740700 88.837795 89.764913 91.347026
12.890000 87.732295 88.593094 89.650203 89.808554 91.027094 92.688338
12.990000 88.549076 89.316177 90.657948 90.787920 92.268183 93.895970
13.090000 89.373826 90.225136 91.783892 91.922491 93.487705 95.443275
13.180000 89.982213 91.249303 92.814154 92.950619 94.617354 96.491254
13.290000 91.152566 92.751459 94.721045 94.604890 96.244368 98.108946
13.400000 92.182807 93.990881 95.951081 95.901505 97.732279 99.767211
13.490000 92.883358 94.805719 96.819761 96.811101 98.744811 100.669500
13.590000 93.789914 95.750663 97.797717 97.809802 99.785642 101.979388
13.680000 94.507827 96.689687 98.649096 98.669959 100.726380 103.122308
13.780000 95.375839 97.605814 99.627631 99.627124 101.667307 104.064640
13.880000 96.169480 98.468486 100.638253 100.564677 102.637596 105.041924
13.990000 96.950039 99.405037 101.643108 101.612913 103.589040 106.022101
14.090000 97.948152 100.513368 102.591919 102.606919 104.761375 107.133284
14.190000 99.075559 101.478500 103.639527 103.651436 105.891077 108.209026
14.290000 100.049497 102.538257 104.662268 104.731263 107.007346 109.310562
14.390000 101.283762 103.714938 105.791880 105.868659 108.174071 110.344744
14.520000 103.105353 105.391242 107.452108 107.526591 109.875037 111.675755
14.620000 104.133830 106.385257 108.565552 108.596504 111.018198 112.850686
14.720000 105.273600 107.474502 109.653591 109.616899 111.912326 113.758244
14.820000 106.620107 108.640078 110.716841 110.667351 112.896941 114.448407
14.920000 107.867533 109.869011 111.806296 111.726342 113.650563 115.023509
15.020000 109.266861 111.060501 112.874946 112.767919 114.406788 115.679441
15.120000 110.482844 112.336578 114.051925 113.864383 115.331919 116.368820
15.220000 112.174985 113.608354 115.085714 114.951095 116.263903 117.247781
15.320000 113.399046 114.839006 116.050083 115.985632 117.164534 117.994298
15.390000 114.444588 115.635517 116.703412 116.693067 117.776073 118.672191
15.520000 116.018075 116.948930 118.084242 118.085237 119.114169 120.575290
15.530000 116.114697 117.033954 118.187543 118.193356 119.241692 120.707311
15.610000 116.950422 117.969870 119.203133 119.247309 120.425131 122.051224
15.720000 117.928228 119.087025 120.337126 120.491645 121.893009 123.848910
15.830000 119.004956 120.205662 121.654770 121.821736 123.492796 125.519491
15.947500 120.265897 121.556928 123.334355 123.372911 125.142671 126.911236
16.065000 121.602675 123.078475 124.934402 124.893289 126.599624 127.961733
16.182500 123.079956 124.839462 126.512668 126.391415 127.891819 129.128419
16.300000 125.231485 126.579142 127.844583 127.795967 129.007763 130.112767
16.400000 126.675151 127.899197 128.932449 128.956268 130.083775 131.144116
16.500000 127.880336 128.851239 129.843531 129.893242 131.001286 132.005185
16.600000 128.784413 129.689472 130.728411 130.774814 131.834146 133.025792
16.710000 129.607433 130.563721 131.671567 131.731599 132.872359 134.068162
16.800000 130.268537 131.398122 132.554744 132.615813 133.872912 135.189906
16.936667 131.259371 132.595326 134.062120 134.263078 135.965498 138.556115
17.073333 132.347045 133.788199 135.590804 135.841851 137.847734 140.936240
17.210000 133.754593 135.204293 137.231583 137.492604 139.951521 142.868727
17.300000 134.472902 136.116860 138.492320 138.648670 141.146491 143.493111
17.410000 135.300449 137.253365 139.865932 139.983993 142.671289 145.049497
17.505000 136.293665 138.134079 141.095994 141.042888 143.771107 146.004619
17.600000 137.033377 139.012138 142.097587 142.006692 144.752661 146.898594
17.740000 138.358071 140.608863 143.431738 143.323579 145.890845 147.982025
17.880000 139.718902 142.096475 144.921819 144.646575 146.943285 149.033134
18.020000 141.358817 143.817969 146.121868 145.985195 148.066557 149.969348
18.160000 143.061637 145.395693 147.295093 147.263805 149.195477 150.937983
18.300000 145.446743 146.912599 148.437244 148.534904 150.216298 151.900439
18.400000 146.494082 147.856330 149.267212 149.379998 151.084297 152.638001
18.510000 147.329096 148.713945 150.129766 150.219230 151.815650 153.394828
18.610000 148.053808 149.361696 150.810651 150.935034 152.577993 154.126483
18.710000 148.762324 150.063660 151.519421 151.628088 153.267556 154.820091
18.800000 149.387932 150.691151 152.188541 152.278208 153.872383 155.510077
18.900000 150.076620 151.500205 152.869123 153.002839 154.611629 156.166364
19.000000 150.753953 152.272879 153.583023 153.721718 155.296000 156.901029
19.100000 151.367433 152.906121 154.352495 154.436814 156.002223 157.707711
19.200000 151.989707 153.564031 155.076147 155.153856 156.758203 158.524221
19.300000 152.580421 154.296994 155.831692 155.894626 157.483062 159.255584
19.433333 153.562277 155.143439 156.738207 156.815498 158.463805 160.238420
19.566667 154.648866 156.023195 157.745568 157.734900 159.421005 161.166850
19.700000 155.664589 157.026879 158.678674 158.676382 160.226556 162.071131
19.800000 156.490745 157.818931 159.434923 159.468608 161.037495 162.853109
19.900000 157.217388 158.563312 160.268382 160.284233 161.911669 163.695145
20.010000 158.064795 159.380020 161.129599 161.156579 162.881581 164.653030
20.105000 158.819946 160.227254 161.914100 162.004499 163.818967 165.585070
20.200000 159.439886 161.014585 162.711833 162.804301 164.670722 166.485312
20.300000 160.241917 161.818663 163.627532 163.705506 165.601772 167.830441
20.400000 161.009630 162.700366 164.633261 164.697702 166.620254 168.912991
20.500000 161.718550 163.603644 165.553275 165.623063 167.578600 169.994137
