depth(m) lower_95(kyr) lower_68(kyr) median(kyr) mean(kyr) upper_68(kyr) upper_95(kyr)
0.030000 5.813890 6.575240 7.331240 7.351650 8.084656 8.899197
0.080000 7.806777 8.641975 9.550010 9.658014 10.680024 11.936106
0.130000 9.531112 10.786794 11.997859 12.030767 13.310315 14.548733
0.180000 13.668921 15.176406 16.506140 16.539460 17.913099 19.696600
0.230000 16.139546 17.238656 18.631490 18.708730 20.073763 21.845293
0.280000 17.726268 18.924729 20.383287 20.510890 21.976740 24.126667
0.330000 19.265704 20.540692 22.096602 22.234960 23.829265 25.884507
0.380000 20.780902 22.158485 23.698030 23.823639 25.492291 27.669098
0.430000 22.184816 23.629238 25.255931 25.357896 27.031040 29.069041
0.480000 23.730194 25.234479 26.836692 26.973608 28.821759 30.700395
0.530000 25.434235 26.867470 28.648836 28.718667 30.615809 32.396777
0.580000 27.062889 28.604713 30.469506 30.594161 32.634143 34.267910
0.630000 28.763068 30.404128 32.546112 32.629861 34.780424 37.148407
0.680000 30.499288 32.180318 34.483945 34.642981 37.050283 39.760222
0.730000 32.151041 34.019565 36.397733 36.639764 39.379073 42.398259
0.780000 33.753988 35.781951 38.336907 38.686035 41.701919 44.836526
0.830000 35.668829 37.504621 40.682809 40.907034 44.091524 47.127705
0.880000 37.426261 39.676304 43.237473 43.172675 46.588486 49.477102
0.930000 39.284110 41.793319 45.646816 45.462553 48.811614 51.984652
0.980000 41.026985 44.104159 47.801556 47.684369 50.992079 54.394684
1.030000 42.969011 46.372036 50.212898 50.153135 53.675695 56.991831
1.080000 45.461219 48.887337 52.614916 52.545887 56.181180 59.102218
1.130000 47.657318 51.607828 55.164123 55.026776 58.579665 61.085889
1.180000 50.368678 54.313847 57.920914 57.751990 61.173138 63.514714
1.230000 53.600258 57.393699 60.593318 60.418380 63.521855 65.954486
1.280000 57.118493 60.442007 63.197578 63.120080 65.941030 68.297116
1.330000 60.236238 63.440653 66.110106 66.026119 68.521740 70.969873
1.380000 63.575326 66.985139 69.459231 69.324808 71.668435 74.125979
1.430000 69.023306 71.158560 73.640758 74.161622 76.509350 87.020042
1.480000 72.713854 75.262932 78.499760 79.808761 85.644488 92.654763
1.530000 76.038942 78.721978 83.252004 84.980189 92.925134 97.223227
1.580000 78.974572 81.348310 91.317949 89.801054 97.576720 101.602107
1.630000 81.572151 83.786828 96.958229 94.379541 101.561217 105.696847
1.680000 84.186686 88.440419 100.744262 98.614775 105.415537 108.947698
1.730000 87.181482 95.020284 104.353234 102.698936 108.952523 111.624875
1.780000 92.939518 99.779838 108.730429 106.898280 112.415693 114.175580
1.830000 97.893734 105.048068 112.792356 110.831962 115.077723 116.541137
1.880000 103.153780 111.911314 115.519601 114.411594 117.064558 118.530701
1.930000 110.215019 115.972383 117.559501 117.237773 118.908421 120.338090
1.980000 116.381200 118.201804 119.394765 119.383316 120.684690 122.217809
2.030000 118.468167 119.965785 121.201997 121.152359 122.401158 123.714442
2.130000 121.650018 122.989794 124.195269 124.229371 125.515516 126.959245
2.180000 123.693906 124.909809 126.078497 126.150583 127.482238 128.927574
2.230000 125.950932 127.231839 128.656948 128.797474 130.400952 132.307464
2.280000 129.230011 131.133441 133.539517 134.033139 137.010233 141.941113
2.330000 132.092146 134.333011 136.780701 137.360025 140.110990 146.180363
2.380000 134.745443 137.095264 139.874094 140.460786 143.582656 150.129214
2.430000 137.098082 139.481992 142.889052 143.447264 147.385693 153.475298
2.480000 139.515851 141.950321 145.396082 146.185445 150.542670 156.341627
2.530000 141.548541 144.396953 148.462348 149.040450 153.892775 158.711292
2.580000 144.010956 147.114754 152.121732 152.213864 157.196623 160.548468
2.630000 146.459494 150.329953 155.887116 155.410345 159.877882 162.584217
2.680000 149.017669 153.809688 159.025213 158.365764 162.456366 164.870508
2.730000 152.737116 157.815091 161.880153 161.321254 164.644347 167.151586
2.780000 155.503571 161.476503 164.648846 164.395094 167.318232 170.303438
2.830000 159.490661 164.445498 167.327261 167.316246 170.235356 174.061633
2.880000 163.868271 166.957957 169.844577 170.036642 172.874616 178.387738
2.930000 166.421881 169.399577 172.438711 172.831682 176.367476 181.510907
2.980000 168.821166 171.891320 175.647258 175.732053 179.458667 183.828814
3.030000 171.062183 174.562116 178.676933 178.527075 182.153921 186.306714
3.080000 173.274721 178.095232 181.365961 181.353749 185.178557 188.264735
3.130000 176.350602 180.989537 184.230580 184.142925 187.706913 189.865704
3.180000 180.022907 183.697245 187.478152 186.924953 189.957697 191.456222
3.230000 183.695904 187.549894 190.545047 189.943938 192.055590 193.423631
3.280000 188.555448 191.672132 193.186946 193.076230 194.649436 196.486884
3.330000 193.373489 194.518171 195.980399 196.276047 197.966822 201.894452
3.380000 195.541560 197.226106 198.995021 199.468130 201.632342 206.786660
3.430000 197.992179 199.609200 201.702524 202.451268 205.748231 210.526330
3.480000 199.605977 201.655505 204.929931 205.529983 210.144341 212.092230
3.530000 201.304890 204.041159 209.166563 208.383817 212.087615 213.408103
3.580000 202.756958 207.951408 211.678833 210.904351 213.550651 214.630278
3.630000 205.429160 211.263044 213.678478 213.045217 214.938103 215.750109
3.680000 209.721071 213.904648 215.386091 214.973034 216.326255 217.071637
3.730000 214.504241 215.953789 216.827565 216.717316 217.727028 218.555548
3.780000 216.228893 217.173557 218.038887 218.001922 218.902870 219.819720
3.830000 217.451783 218.259428 219.059322 219.078680 219.932686 220.908901
3.880000 218.338300 219.146212 219.975306 220.013385 220.910094 221.789159
3.930000 219.156495 220.026589 220.852038 220.926567 221.833363 222.744374
3.980000 220.043031 220.898188 221.811942 221.848479 222.816792 223.787188
4.030000 220.882807 221.811471 222.759686 222.784651 223.772253 224.740742
4.080000 221.799778 222.726565 223.702717 223.700583 224.697390 225.570484
4.130000 222.674320 223.627082 224.658408 224.641890 225.592518 226.583494
4.180000 223.545411 224.602818 225.588167 225.584965 226.554348 227.594067
4.230000 224.671027 225.548105 226.546354 226.536711 227.495607 228.405050
4.280000 225.629636 226.549339 227.505352 227.508383 228.446963 229.373841
4.330000 226.589553 227.441548 228.404650 228.407390 229.336389 230.164549
4.380000 227.424473 228.355668 229.276848 229.279664 230.166143 230.991950
4.430000 228.364951 229.230757 230.180821 230.150180 231.019912 231.811992
4.480000 229.302998 230.193657 231.069101 231.032672 231.866418 232.598095
4.530000 230.178752 231.059755 231.948611 231.900020 232.707227 233.500535
4.580000 231.243164 231.996561 232.833528 232.796766 233.539310 234.406355
4.630000 232.102897 232.908635 233.710245 233.691566 234.451082 235.310788
4.680000 233.068169 233.848068 234.619121 234.630518 235.385618 236.250167
4.730000 233.901384 234.831228 235.567298 235.609327 236.431790 237.442351
4.780000 235.121993 235.952925 236.698755 236.783460 237.660873 238.790472
4.830000 236.275417 237.100895 237.916753 238.047140 239.038330 240.391069
4.880000 237.588978 238.550616 239.549097 239.611306 240.725361 241.856797
4.930000 239.110584 240.273669 241.573718 241.596545 242.887630 244.337281
4.980000 242.792480 244.189238 246.116634 246.257419 248.294510 250.482269
5.030000 245.527851 247.392524 249.609605 249.687545 251.990447 254.219867
5.080000 247.301563 249.685552 252.203337 252.344349 254.878017 258.371140
5.180000 250.528220 253.732044 258.197573 258.566215 263.794816 267.288873
5.230000 252.030983 255.857551 261.543118 261.133123 266.036314 269.147186
5.280000 253.322505 258.059680 264.317281 263.534593 268.367263 270.750685
5.330000 254.618755 261.341549 266.737899 265.823690 270.265695 272.560960
5.380000 256.423248 264.024371 268.927383 267.989617 271.969135 274.336171
5.430000 258.980377 266.590928 271.080962 270.209949 273.820020 276.452118
5.505000 264.402468 269.953419 274.531058 273.731741 277.049642 279.165991
5.580000 270.486018 274.216296 278.132381 277.535752 280.296104 282.086598
5.630000 276.686656 280.153678 282.111374 281.918197 283.786643 285.427509
5.730000 282.438339 283.923435 285.828352 285.882275 287.539805 289.365874
