depth(m) lower_95(kyr) lower_68(kyr) median(kyr) mean(kyr) upper_68(kyr) upper_95(kyr)
0.165000 0.458717 1.152601 1.901139 1.919778 2.681941 3.489951
0.265000 1.693158 2.494396 3.348206 3.357739 4.233498 5.058928
0.365000 2.883599 3.776963 4.720619 4.764600 5.780383 6.878180
0.465000 4.111519 5.084525 6.168346 6.201739 7.323030 8.521137
0.565000 5.304065 6.445955 7.604997 7.650230 8.945020 10.022451
0.665000 6.964855 8.048148 9.454030 9.442976 10.839193 12.001377
0.765000 8.776208 9.990052 11.466888 11.339353 12.566911 13.398094
0.865000 11.109471 12.580235 13.600560 13.507596 14.474674 15.237294
0.965000 13.296410 14.425179 15.232643 15.289823 16.113108 17.461166
1.065000 14.981551 15.840800 16.716889 16.942001 18.044573 20.315132
1.165000 16.551969 17.379239 18.437779 18.790198 20.362640 22.666259
1.265000 17.839360 18.815082 20.286603 20.604050 22.499520 24.478613
1.365000 19.077037 20.360636 22.117612 22.383612 24.417511 26.613885
1.465000 20.632802 22.082814 24.151830 24.260685 26.308379 29.020679
1.565000 21.983000 24.079306 26.318923 26.442084 28.783834 31.718906
1.665000 24.237059 26.554328 28.839540 29.148592 31.886234 35.018834
1.765000 26.751887 28.752369 31.639034 31.794889 35.022484 38.016039
1.865000 28.398063 30.382402 33.751277 33.860438 37.315643 40.083742
1.965000 29.925999 32.074290 35.826318 35.745043 39.367006 41.861257
2.065000 31.502300 33.839612 37.842687 37.649673 41.344068 43.831660
2.165000 33.351821 35.883230 39.966777 39.704080 43.459497 45.796156
2.265000 34.909548 37.866892 41.923717 41.738874 45.433254 47.642363
2.365000 36.388331 40.101230 44.008478 43.797467 47.272111 49.573483
2.465000 38.561243 42.824874 46.140068 45.862772 49.094603 51.073384
2.565000 41.101787 45.031664 48.000623 47.821819 50.728284 52.858496
2.665000 43.341839 46.985942 49.966608 49.735235 52.377305 54.568321
2.765000 46.790336 49.377466 51.940906 51.753757 54.133582 56.164304
2.865000 49.177862 51.421189 53.815603 53.722401 56.065958 57.940110
2.965000 50.886637 53.355209 55.805910 55.775597 58.101502 60.145175
3.065000 53.105282 55.712181 58.110645 58.123249 60.529699 63.414099
3.175000 55.672846 58.365023 60.765460 60.992531 63.782380 66.741220
3.205000 56.153579 59.078747 61.530276 61.757405 64.700945 67.682567
3.295000 59.236318 61.676391 64.469288 64.429130 67.267551 69.262378
3.395000 61.605914 64.705798 67.786297 67.330538 69.848756 71.241615
3.495000 65.454977 68.241224 70.545171 70.230148 72.220953 73.618590
3.595000 69.666441 71.404657 72.909200 72.837728 74.257733 75.527559
3.695000 71.601282 73.288260 74.642968 74.547224 75.855235 76.896750
3.795000 73.286670 74.805367 76.100828 76.040403 77.266299 78.346576
3.895000 74.925538 76.279701 77.487308 77.449394 78.571197 79.657206
3.995000 76.554640 77.831261 78.882716 78.879489 79.871364 80.859559
4.095000 78.125728 79.324387 80.337614 80.336677 81.307509 82.501012
4.195000 79.510515 80.664442 81.696062 81.707398 82.694818 84.109883
4.295000 81.117029 81.947245 83.028958 83.086959 84.115579 85.598188
4.395000 82.425807 83.423023 84.438157 84.628240 85.739917 88.224510
4.495000 83.929429 85.076038 86.263077 86.640749 88.302664 91.521611
4.595000 85.504245 86.774763 88.501689 88.821138 91.014605 93.517708
4.695000 87.172802 88.731512 90.815110 90.996068 93.401934 95.578767
4.795000 88.689743 90.759229 93.024334 93.152701 95.537076 98.125074
4.895000 90.589164 92.672488 95.124759 95.133664 97.563848 99.867594
4.995000 91.981849 94.387025 96.855084 96.872138 99.385645 101.705194
5.095000 93.460835 95.869292 98.488957 98.458347 101.044116 103.425060
5.195000 95.016501 97.342068 100.133614 100.050426 102.723667 104.976851
5.295000 96.401694 98.994945 101.788888 101.667798 104.343187 106.478546
5.395000 97.965695 100.602025 103.400849 103.251127 105.886638 107.769294
5.495000 99.704116 102.385702 105.094371 104.885644 107.339633 108.914122
5.595000 101.649273 104.372794 106.737863 106.548621 108.700044 110.434048
5.695000 103.816276 106.050124 108.258382 108.151749 110.172853 111.823263
5.795000 105.542642 107.736901 109.781323 109.718409 111.592255 113.261466
5.895000 107.449316 109.598538 111.481674 111.361372 113.099820 114.578340
5.995000 109.092703 111.405945 113.169930 113.030208 114.640288 116.100010
6.095000 111.033391 113.204747 114.935840 114.788900 116.348749 117.815520
6.195000 113.187944 115.096369 116.687136 116.623072 118.140746 119.747271
6.295000 116.157998 117.643311 119.208779 119.273228 120.922283 123.048334
6.395000 117.897966 119.646841 121.479092 121.554588 123.566694 125.302126
6.495000 120.173282 122.105210 123.930009 123.947698 125.827759 127.826688
6.595000 122.642363 125.109400 127.138871 127.072407 129.196865 131.315823
6.695000 128.366135 130.247579 132.368176 132.338248 134.400290 135.894813
6.795000 131.614738 133.519401 135.150417 135.116357 136.716257 138.195080
6.895000 134.159551 135.610882 137.108524 137.097375 138.468935 139.996794
6.995000 135.900224 137.267880 138.697065 138.696444 140.088429 141.760085
7.095000 137.521046 138.695433 140.098308 140.165788 141.609547 143.327945
7.195000 138.830916 140.074702 141.528685 141.667995 143.091820 145.527726
7.295000 140.204473 141.615980 143.108250 143.389767 145.064796 148.660153
7.395000 141.689525 143.213839 144.994914 145.445284 147.663058 151.474760
7.495000 143.067722 144.651607 147.050827 147.608928 150.907950 154.423208
7.595000 144.549081 146.388010 149.582169 149.843026 153.547418 156.344998
7.695000 146.107112 148.315997 152.308790 152.128314 155.926209 158.376791
7.795000 147.933106 150.493907 154.717157 154.337658 157.858867 160.184841
7.895000 149.602380 152.914298 156.940645 156.509754 159.661900 161.959059
7.995000 152.327777 155.725032 159.041494 158.638514 161.428208 163.635884
8.095000 154.555792 158.125754 161.028094 160.735010 163.314756 165.366015
8.195000 156.973423 160.569394 163.164661 163.044719 165.609201 168.096414
8.295000 160.092324 163.041596 165.563562 165.538706 168.124054 170.219748
8.395000 162.740624 165.432807 168.163162 168.136683 170.767578 173.369680
8.495000 165.711415 168.127061 170.801813 170.844152 173.560029 176.341283
8.595000 167.655667 170.395649 173.032010 173.149430 175.824391 179.335444
8.695000 169.858859 172.885400 175.263200 175.447888 178.142828 181.656275
8.795000 172.127083 174.910400 177.532195 177.681332 180.548105 183.928964
8.895000 174.119809 177.056353 179.867204 179.923665 183.019661 185.836226
8.995000 176.529115 179.104301 182.049231 182.140253 185.340157 187.675287
9.095000 178.492508 181.335785 184.439690 184.404687 187.491847 189.580157
9.195000 181.042852 184.060979 186.906056 186.840282 189.635814 191.513331
9.295000 184.003105 187.532282 189.622945 189.488615 191.663177 193.144251
9.395000 188.958784 191.532421 193.158143 193.069825 194.698397 196.434901
9.495000 192.202949 193.886885 195.528262 195.623549 197.333431 199.770410
9.620000 194.061962 195.972711 198.127932 198.311010 200.968138 203.463612
9.745000 196.044592 198.046864 200.717725 200.910787 204.190831 206.148818
9.870000 197.823510 200.318316 203.549134 203.443203 206.681043 208.367824
9.995000 200.061791 202.618173 206.615376 205.999673 209.008276 210.469510
10.095000 201.915044 204.859321 208.875662 208.086436 210.746662 212.049412
10.195000 203.787032 207.577764 210.782072 210.103454 212.274251 213.410164
10.295000 206.290236 210.177320 212.455747 211.997241 213.798163 214.928020
10.395000 209.621522 212.255423 214.172130 213.877359 215.458477 216.399634
10.495000 212.644780 214.547846 216.004207 215.895539 217.136424 218.596981
10.595000 215.733838 217.317931 218.571196 218.994368 220.495281 225.514845
10.695000 218.581526 220.058021 223.264212 223.675268 227.392143 230.280315
10.795000 220.182929 223.892016 228.765509 227.918448 231.104070 232.604738
10.895000 223.247743 228.970765 231.807293 231.069883 233.249084 234.298274
10.995000 229.592024 232.345736 234.069946 233.676518 234.995732 235.835904
11.095000 233.342667 235.069018 235.993901 235.905242 236.813886 237.611555
11.195000 236.061295 236.913261 237.730014 237.742963 238.597085 239.382500
11.295000 237.637574 238.530755 239.366251 239.362538 240.199472 241.049110
11.395000 239.244591 240.148717 240.992207 240.992591 241.839183 242.766797
11.495000 241.138726 242.071533 242.955172 243.020736 243.908278 245.185425
11.595000 243.518003 244.452626 245.700465 246.027689 247.649234 250.272068
11.695000 245.558097 247.121531 249.265318 249.483336 251.854327 254.386886
11.795000 247.730586 249.643268 252.516883 252.566823 255.201763 258.127426
11.895000 249.775710 252.264935 255.380198 255.424153 258.542411 260.930583
11.995000 251.781684 255.297547 258.395305 258.276002 261.390859 263.403125
12.095000 254.579742 257.815751 261.046450 260.871761 264.020602 266.132316
12.195000 257.132140 260.111325 263.662146 263.299013 266.343478 268.072872
12.295000 259.661122 262.953709 266.128369 265.778420 268.399453 270.254291
12.395000 262.351509 265.754858 268.693123 268.284238 270.633467 272.489721
12.495000 265.565544 268.646232 271.030844 270.842857 273.007014 275.353983
12.595000 269.060907 271.581876 273.638827 273.817673 276.010295 278.973736
12.695000 272.880743 274.786565 277.111241 278.062053 281.345117 289.171809
12.795000 275.125497 277.212095 279.354770 281.397083 289.343566 294.227860
12.895000 277.524407 279.691264 282.178903 284.575324 292.388863 298.593270
12.970000 278.891733 281.593095 285.414741 287.150902 294.840979 301.036364
13.045000 280.705983 284.019767 288.548610 289.798532 296.932324 303.516123
13.145000 282.793261 287.952478 292.018975 293.290429 300.198063 306.081971
