depth(m) lower_95(kyr) lower_68(kyr) median(kyr) mean(kyr) upper_68(kyr) upper_95(kyr)
0.170000 0.004280 0.038232 0.175680 0.265057 0.531245 0.926783
0.300000 0.126696 0.217619 0.392696 0.476866 0.778599 1.157879
0.430000 0.264099 0.389765 0.584964 0.677882 1.032261 1.396099
0.550000 0.413222 0.539839 0.779744 0.866228 1.258038 1.595672
0.670000 0.565015 0.696209 0.952313 1.051296 1.452493 1.797050
0.795000 0.715677 0.864377 1.148717 1.238693 1.650706 2.005820
0.920000 0.862164 1.027207 1.328791 1.421401 1.870261 2.228350
1.050000 1.028320 1.203254 1.531451 1.609755 2.068280 2.423606
1.180000 1.198532 1.379520 1.716450 1.800833 2.284043 2.613535
1.300000 1.358425 1.536003 1.901310 1.977376 2.477062 2.816252
1.420000 1.518118 1.703718 2.078406 2.154419 2.661228 2.996360
1.545000 1.667821 1.870781 2.256883 2.336512 2.857009 3.171893
1.670000 1.849469 2.048459 2.430958 2.521347 3.035554 3.357002
1.800000 2.009775 2.217347 2.624822 2.712133 3.241548 3.545055
1.930000 2.192358 2.401778 2.798882 2.903721 3.456037 3.743973
2.060000 2.378257 2.579788 2.990144 3.091610 3.668709 3.938077
2.190000 2.569739 2.764418 3.174185 3.278286 3.850273 4.132278
2.305000 2.744895 2.937064 3.321090 3.449723 4.033414 4.317011
2.420000 2.918689 3.099981 3.493952 3.620408 4.202397 4.484568
2.550000 3.082624 3.298213 3.676477 3.811982 4.396489 4.699365
2.680000 3.274687 3.476253 3.862332 4.004800 4.588066 4.893395
2.800000 3.454451 3.648517 4.042899 4.183230 4.764912 5.089735
2.920000 3.632465 3.831058 4.214232 4.361448 4.946389 5.287305
3.025000 3.796959 3.986321 4.371204 4.523094 5.131317 5.450851
3.130000 3.944864 4.151253 4.535021 4.683886 5.289777 5.631203
3.230000 4.111722 4.303142 4.675218 4.841553 5.464081 5.802248
3.330000 4.234659 4.461137 4.841462 5.001137 5.632719 5.982978
3.430000 4.407792 4.630716 4.991641 5.161668 5.797842 6.192204
3.530000 4.566726 4.792342 5.151892 5.326306 5.958819 6.366939
3.630000 4.729068 4.956838 5.325289 5.496691 6.124382 6.523783
3.670000 4.819055 5.029495 5.398420 5.573042 6.204071 6.588642
3.750000 4.973195 5.179335 5.562357 5.724640 6.358865 6.739169
3.830000 5.108690 5.330754 5.728313 5.873433 6.496403 6.875837
3.930000 5.279432 5.513921 5.937386 6.055859 6.683356 7.012514
4.030000 5.474705 5.706950 6.134586 6.246925 6.870217 7.174243
4.130000 5.686876 5.892197 6.362080 6.451570 7.070241 7.355134
4.180000 5.769954 5.992994 6.474180 6.560319 7.183171 7.461391
4.230000 5.904740 6.104505 6.612733 6.677099 7.293855 7.559714
4.310000 6.068451 6.280151 6.816628 6.864192 7.481231 7.725550
4.330000 6.110137 6.327407 6.861389 6.912672 7.528112 7.761623
4.430000 6.305953 6.552309 7.109701 7.133574 7.711592 7.991533
4.530000 6.512638 6.778375 7.364780 7.358571 7.913111 8.194015
4.630000 6.694949 7.039991 7.628471 7.591383 8.099869 8.417687
4.730000 6.868734 7.267067 7.847677 7.813003 8.299908 8.614176
4.830000 7.040498 7.521192 8.089710 8.038312 8.492308 8.835633
4.930000 7.220613 7.776978 8.330628 8.268730 8.722853 9.048068
5.070000 7.563778 8.172640 8.663504 8.600818 9.027909 9.353314
5.120000 7.683567 8.294668 8.793299 8.719823 9.142469 9.451575
5.225000 7.929993 8.527615 9.028145 8.956056 9.355214 9.657994
5.330000 8.224971 8.815056 9.245261 9.198774 9.575344 9.828073
5.430000 8.556528 9.100844 9.483110 9.438161 9.792331 10.036095
5.530000 8.794089 9.345480 9.722558 9.677234 10.017480 10.211336
5.630000 9.148655 9.601739 9.962035 9.906104 10.212764 10.424229
5.680000 9.281941 9.712385 10.086021 10.025326 10.306736 10.529218
5.730000 9.433769 9.830717 10.209654 10.141034 10.403768 10.630947
5.820000 9.666858 10.052434 10.393212 10.337975 10.574896 10.790420
5.920000 9.906190 10.283206 10.596571 10.546470 10.747182 10.980109
5.930000 9.932372 10.303200 10.619716 10.569413 10.765972 10.994164
6.030000 10.145788 10.531266 10.795839 10.764421 10.974078 11.230767
6.110000 10.287591 10.697861 10.931764 10.919719 11.139660 11.408797
6.130000 10.334263 10.744833 10.967237 10.960107 11.181978 11.457694
6.230000 10.567605 10.943280 11.133477 11.139865 11.368752 11.625212
6.330000 10.784954 11.118846 11.307880 11.320476 11.534957 11.858511
6.430000 10.975341 11.290788 11.470998 11.500587 11.726542 12.068968
6.530000 11.188282 11.462223 11.651020 11.684671 11.918439 12.327706
6.630000 11.389052 11.632309 11.829623 11.867423 12.096935 12.568353
6.670000 11.474966 11.712620 11.908271 11.944377 12.170904 12.660234
6.795000 11.724581 11.907862 12.137076 12.172402 12.396195 13.003161
6.920000 11.946728 12.125747 12.381292 12.405105 12.625499 13.243971
6.940000 11.982626 12.162734 12.421720 12.449575 12.671492 13.297802
7.020000 12.143331 12.333622 12.591387 12.620145 12.837812 13.443311
7.120000 12.347046 12.528361 12.807451 12.847980 13.125002 13.701832
7.160000 12.433113 12.626075 12.904709 12.949943 13.242681 13.803533
7.180000 12.481110 12.672203 12.956810 13.005820 13.319378 13.852831
7.210000 12.567817 12.758596 13.049870 13.101959 13.446446 13.926061
7.320000 12.885223 13.159503 13.510381 13.544293 13.943595 14.297322
7.420000 13.191032 13.505340 13.914987 13.903075 14.295889 14.581159
7.520000 13.499031 13.851113 14.246198 14.229408 14.592182 14.898871
7.620000 13.789576 14.183091 14.537039 14.524403 14.858279 15.164388
7.720000 14.098867 14.463871 14.808426 14.802027 15.139636 15.430536
7.830000 14.378230 14.759316 15.093296 15.085344 15.420548 15.723994
7.930000 14.685612 15.004874 15.322159 15.324714 15.650361 15.992542
8.030000 14.911366 15.231331 15.553492 15.567725 15.915642 16.281535
8.130000 15.138909 15.442575 15.806086 15.812281 16.162793 16.572745
8.230000 15.357030 15.697573 16.064460 16.081446 16.439636 16.981762
8.330000 15.588593 15.938604 16.306943 16.346653 16.717283 17.352400
8.430000 15.865239 16.198665 16.572493 16.639751 17.035643 17.913015
8.530000 16.127658 16.482521 16.834642 16.931647 17.324556 18.478902
8.630000 16.366127 16.733292 17.085745 17.205379 17.570984 18.925469
8.720000 16.632709 16.956165 17.295843 17.442171 17.796614 19.368506
8.740000 16.677881 17.003562 17.348139 17.492783 17.848323 19.410601
8.820000 16.874948 17.190550 17.531349 17.685010 18.042105 19.595573
8.930000 17.087048 17.442135 17.790234 17.946605 18.323050 19.885969
9.020000 17.321539 17.648133 17.997493 18.166896 18.628129 20.159059
9.120000 17.545507 17.855206 18.220822 18.414255 18.971992 20.504537
9.250000 17.849752 18.164675 18.493494 18.734709 19.385742 20.918229
9.330000 18.064742 18.370037 18.669460 18.943583 19.629558 21.188272
9.430000 18.356219 18.627754 18.886431 19.196244 20.047092 21.427197
9.490000 18.528734 18.766870 19.037528 19.346493 20.207256 21.593690
9.500000 18.558152 18.794888 19.061896 19.373318 20.228264 21.613623
9.630000 18.837652 19.094842 19.444938 19.725450 20.449472 21.911255
9.730000 19.027993 19.310247 19.746598 19.988857 20.663310 22.096308
9.830000 19.232267 19.543409 20.057948 20.252798 20.882538 22.328363
9.925000 19.428745 19.780338 20.324846 20.495426 21.062101 22.495644
10.020000 19.617492 20.040223 20.588542 20.756320 21.324456 22.701070
10.120000 19.882722 20.346987 20.855255 21.019584 21.571971 22.950848
10.230000 20.156971 20.658431 21.168537 21.308063 21.876997 23.207924
10.330000 20.420596 20.902166 21.431119 21.563190 22.103415 23.524428
10.430000 20.659309 21.192199 21.672541 21.807618 22.352802 23.758386
10.530000 21.006836 21.458732 21.880447 22.041904 22.661920 23.979245
10.620000 21.256987 21.719110 22.085270 22.264354 22.879143 24.190349
10.730000 21.595346 21.996415 22.319076 22.532875 23.363995 24.470406
10.820000 21.862316 22.234603 22.525153 22.755271 23.576453 24.663947
10.860000 22.009331 22.341396 22.624622 22.857231 23.661906 24.742746
10.920000 22.168324 22.484854 22.758338 22.997464 23.787564 24.907644
10.990000 22.340280 22.643492 22.926254 23.165703 23.973973 25.111504
11.030000 22.469458 22.741207 23.026722 23.267569 24.059249 25.199603
11.120000 22.690110 22.931610 23.254830 23.490715 24.307995 25.398361
11.230000 22.905772 23.162645 23.509265 23.762128 24.627599 25.777219
11.320000 23.089892 23.384280 23.731597 23.984477 24.922075 25.999894
11.440000 23.345918 23.686662 23.997324 24.276050 25.289597 26.260103
11.520000 23.573563 23.883097 24.178353 24.466754 25.502696 26.426216
11.630000 23.888508 24.172296 24.411669 24.737728 25.804951 26.655899
11.730000 24.220764 24.417793 24.621820 24.984354 26.150143 26.882075
11.740000 24.240710 24.438783 24.647721 25.009965 26.169390 26.902124
11.830000 24.434443 24.607969 24.840730 25.205350 26.395263 27.105869
11.930000 24.585081 24.787213 25.057029 25.409863 26.590248 27.360747
12.030000 24.768174 24.959747 25.283071 25.611584 26.783369 27.579570
12.130000 24.940215 25.139552 25.502645 25.828923 26.987780 27.823296
12.246667 25.121798 25.350761 25.754735 26.078065 27.278157 28.145625
12.363333 25.302024 25.555228 26.037287 26.331322 27.518756 28.379530
12.480000 25.492117 25.748942 26.284668 26.575060 27.772219 28.687390
12.606667 25.709225 25.981051 26.547441 26.842459 28.056168 28.958876
12.733333 25.917634 26.205179 26.818284 27.104797 28.309955 29.222689
12.860000 26.113693 26.430710 27.080531 27.374068 28.567337 29.499738
12.986667 26.363994 26.695951 27.319024 27.646799 28.835212 29.779047
13.113333 26.564513 26.933649 27.566640 27.910198 29.089477 30.067869
13.240000 26.743970 27.161626 27.806554 28.167323 29.387590 30.379485
13.365000 26.970132 27.409302 28.058653 28.432114 29.671345 30.703876
13.490000 27.199831 27.649054 28.363080 28.706454 29.958583 31.087203
13.615000 27.411903 27.899074 28.627314 28.973544 30.208872 31.356595
13.740000 27.603091 28.144971 28.923755 29.240259 30.479788 31.609646
13.865000 27.845806 28.391317 29.217624 29.507886 30.766198 31.894985
13.990000 28.069219 28.647683 29.605287 29.796554 31.039413 32.228345
14.107500 28.327243 28.870527 29.917140 30.062883 31.283479 32.528259
14.225000 28.515239 29.151186 30.217551 30.339773 31.527281 32.859830
14.342500 28.732109 29.419917 30.565286 30.625558 31.794521 33.229047
14.460000 28.956019 29.708362 30.886318 30.911869 32.024802 33.498471
14.595000 29.203421 30.036203 31.251954 31.252155 32.328476 33.800254
14.730000 29.449312 30.388758 31.624636 31.604762 32.641609 34.213679
14.855000 29.708403 30.757159 32.008493 31.953957 32.942426 34.585258
14.980000 29.939396 31.085448 32.349830 32.291091 33.252807 34.940212
15.085000 30.194774 31.406662 32.618680 32.574089 33.506195 35.246238
15.190000 30.416633 31.716803 32.941263 32.869203 33.774236 35.493609
15.260000 30.547020 31.944134 33.161384 33.081326 33.984464 35.706623
15.350000 30.712073 32.266652 33.413877 33.354029 34.240148 35.986319
15.440000 30.867247 32.617002 33.662838 33.625327 34.501996 36.331309
15.490000 31.151348 32.762322 33.796213 33.769440 34.626216 36.443292
15.590000 31.367123 33.055540 34.083511 34.063456 34.886006 36.777995
15.690000 31.588069 33.381318 34.386137 34.370947 35.261589 37.005409
15.770000 31.823860 33.659232 34.636241 34.608756 35.492248 37.283475
15.850000 31.969463 33.900843 34.844617 34.847433 35.763164 37.457480
15.930000 32.194021 34.193820 35.063649 35.092450 36.002038 37.687885
15.980000 32.301333 34.362199 35.201998 35.242441 36.187522 37.850455
16.100000 32.604208 34.861481 35.476993 35.604579 36.510682 38.277926
16.220000 32.889408 35.339754 35.762775 35.961400 36.868336 38.692098
16.230000 32.945341 35.365185 35.785948 35.990022 36.908951 38.725068
16.335000 33.272327 35.627982 36.106715 36.310328 37.238809 39.294903
16.440000 33.636593 35.899890 36.383775 36.629843 37.670857 39.726590
16.490000 33.828600 36.033913 36.534240 36.776482 37.811121 39.908609
16.590000 34.167382 36.300022 36.793041 37.079329 38.214052 40.186218
16.690000 34.492437 36.575686 37.029904 37.397560 38.712834 40.538702
16.760000 34.665603 36.781259 37.204018 37.608102 39.000675 40.795654
16.845000 35.008898 37.015656 37.398570 37.848836 39.288217 41.010610
16.930000 35.311483 37.242973 37.614821 38.095084 39.595018 41.348622
16.940000 35.397765 37.264930 37.645412 38.123706 39.617363 41.378745
17.065000 35.758677 37.554638 38.058901 38.504570 39.909277 41.937474
17.190000 36.048433 37.832820 38.427821 38.885252 40.225950 42.534759
17.240000 36.147410 37.966599 38.583322 39.030451 40.370123 42.679904
17.280000 36.233757 38.071090 38.705493 39.147839 40.485057 42.788826
17.355000 36.435118 38.265288 38.987646 39.384917 40.740764 43.193707
17.430000 36.628477 38.504094 39.242213 39.627317 41.068218 43.350199
17.530000 36.906787 38.766413 39.604909 39.947735 41.390400 43.662400
17.630000 37.152649 38.999195 39.994409 40.270727 41.789795 44.180862
17.730000 37.378921 39.238919 40.325087 40.577043 42.117244 44.505666
17.845000 37.668637 39.506244 40.772016 40.943903 42.628035 44.980858
17.960000 37.933582 39.763454 41.084295 41.302796 43.099146 45.517173
18.010000 38.092703 39.875443 41.235049 41.449753 43.267427 45.707880
18.123333 38.376024 40.143165 41.619576 41.785858 43.655945 46.063843
18.236667 38.589630 40.405453 41.952990 42.097895 43.994721 46.421477
18.350000 38.963561 40.663551 42.257034 42.415155 44.341159 46.667936
18.460000 39.403714 40.905290 42.563433 42.719126 44.628206 46.898893
18.585000 39.855842 41.205587 42.871857 43.050963 44.893100 47.203147
18.710000 40.185770 41.499257 43.184130 43.367472 45.155946 47.569750
18.836667 40.616849 41.823337 43.531069 43.693600 45.522427 47.965092
18.963333 40.969026 42.139486 43.804738 44.000437 45.842445 48.203549
19.090000 41.297441 42.475020 44.103799 44.310381 46.137185 48.522685
19.216667 41.625810 42.827172 44.406240 44.630160 46.439018 48.837459
19.343333 41.960207 43.182752 44.682219 44.944045 46.755394 49.104574
19.470000 42.257638 43.485501 44.972908 45.254070 47.046091 49.396274
19.596667 42.654894 43.834748 45.299147 45.559471 47.396346 49.772989
19.723333 42.926601 44.162267 45.597936 45.861023 47.651565 50.136457
19.850000 43.247763 44.486316 45.952316 46.173379 47.982361 50.426426
19.935000 43.419237 44.710294 46.148149 46.389463 48.195883 50.628214
20.020000 43.651915 44.940750 46.363667 46.611483 48.443459 50.769307
20.145000 43.936912 45.290573 46.676777 46.930484 48.708774 51.010793
20.270000 44.278810 45.580781 46.988952 47.248265 49.034044 51.248319
20.376667 44.605303 45.854358 47.302395 47.534116 49.399620 51.534735
20.483333 45.052968 46.144583 47.611380 47.817983 49.679515 51.730622
20.590000 45.302200 46.442838 47.903040 48.114992 49.931135 51.953052
20.700000 45.663905 46.721129 48.214159 48.429725 50.302627 52.203407
20.810000 46.040229 47.023877 48.565683 48.755331 50.630999 52.428176
20.935000 46.365912 47.374087 48.942918 49.121958 50.959570 52.756496
21.060000 46.660257 47.727524 49.337228 49.487349 51.420466 53.070343
21.185000 47.021326 48.032831 49.703939 49.856269 51.789914 53.406962
21.310000 47.322562 48.375076 50.058723 50.237126 52.231786 53.677441
21.350000 47.411192 48.486539 50.165486 50.360030 52.340850 53.770299
21.455000 47.718150 48.922838 50.514810 50.707346 52.625541 54.154653
21.560000 48.050224 49.276427 50.868581 51.059407 52.950084 54.539340
21.682500 48.402916 49.696178 51.279650 51.458461 53.291154 54.749098
21.805000 48.836555 50.271515 51.745719 51.885430 53.667029 54.993754
21.927500 49.225229 50.710025 52.191225 52.291473 54.004440 55.243313
22.050000 49.669198 51.166231 52.664138 52.712157 54.376903 55.633621
22.090000 49.761906 51.343119 52.762531 52.837738 54.496840 55.784312
22.220000 50.159062 51.861842 53.174204 53.263616 54.829244 56.175979
22.350000 50.496774 52.257551 53.632162 53.676365 55.223003 56.455854
22.485000 50.757336 52.778158 54.081681 54.129696 55.678332 56.926357
22.620000 51.102949 53.157298 54.609146 54.573501 56.147636 57.405012
22.735000 51.411328 53.475549 55.059210 54.951925 56.594025 57.822122
22.850000 51.672725 53.791171 55.487930 55.329238 56.981936 58.227596
22.870000 51.704186 53.843740 55.554104 55.393846 57.035141 58.298005
22.995000 52.341788 54.159186 56.026821 55.873650 57.538435 58.983412
23.120000 52.731077 54.486318 56.540700 56.368443 58.065767 59.796625
23.246667 53.010625 54.814496 56.977298 56.890884 58.741684 60.754393
23.373333 53.460030 55.087411 57.460434 57.426128 59.449091 61.899366
23.500000 53.798706 55.528445 57.890500 57.959799 60.183457 62.910905
23.626667 54.446917 55.820568 58.385089 58.507655 61.103651 63.985470
23.753333 54.733320 56.147873 58.836702 59.037436 61.898377 64.981178
23.880000 55.112136 56.464425 59.271080 59.571674 62.666355 66.012204
23.985000 55.333018 56.724440 59.571976 59.966591 63.222341 66.615416
24.090000 55.614127 57.067863 59.906391 60.364554 63.774591 67.363304
24.220000 55.903005 57.466920 60.405590 60.893939 64.538204 68.087548
24.350000 56.255123 57.929311 60.911774 61.422266 65.291043 68.589823
24.470000 56.541538 58.425851 61.381133 61.932045 65.981481 69.243918
24.590000 56.923490 58.900070 62.000840 62.448287 66.633996 69.596422
24.730000 57.343852 59.548847 62.783941 63.127549 67.328162 70.178707
24.870000 57.798286 60.114913 63.494574 63.808216 67.782642 70.654300
25.013333 58.420171 60.793927 64.344006 64.540873 68.290948 71.318101
25.156667 58.835583 61.467330 65.187971 65.255170 68.785364 71.955342
25.300000 59.502804 62.197909 66.124973 65.997568 69.282862 72.578589
25.445000 60.246925 63.169785 66.968711 66.730471 69.651547 73.148507
25.590000 61.417688 64.233686 67.770697 67.468268 70.199135 73.412923
25.650000 61.592124 64.547345 68.006245 67.710879 70.400539 73.584464
25.762500 62.254465 65.328387 68.356337 68.233863 70.701163 73.952080
25.875000 63.510506 66.152492 68.924567 68.776327 71.001911 74.249925
25.987500 64.396217 67.012352 69.440401 69.293236 71.313154 74.605328
26.100000 65.445469 67.853182 69.898830 69.835474 71.616357 74.903774
26.235000 67.258837 68.904893 70.594289 70.608662 72.025567 75.306745
26.370000 68.848887 69.759146 71.244875 71.345385 72.468538 75.740555
26.380000 68.890848 69.792747 71.286473 71.384854 72.500557 75.774996
26.400000 68.974969 69.877692 71.377463 71.474918 72.577797 75.850721
26.525000 69.787805 70.893459 72.194719 72.460843 74.190317 76.392868
26.650000 70.579689 71.632703 73.308119 73.459203 75.376340 77.226945
26.700000 70.788259 71.864597 73.561337 73.728683 75.688243 77.546466
26.800000 71.346058 72.362901 74.487190 74.502168 76.604472 78.264992
26.900000 71.902297 72.948457 75.338414 75.256275 77.443388 78.950055
26.985000 72.252528 73.463453 75.984196 75.838923 78.001014 79.548687
27.070000 72.479567 73.903881 76.656563 76.427491 78.721211 80.199942
27.160000 72.728995 74.456260 77.342674 77.042397 79.345649 80.908525
27.305000 73.115666 75.396913 78.938702 78.497919 81.131964 82.794216
27.450000 73.445437 76.593945 80.789198 80.050881 83.055675 84.463049
27.560000 73.716205 77.221901 81.782918 80.903677 84.063757 85.362436
27.670000 74.110247 77.857820 82.744000 81.762662 85.030171 86.396509
27.740000 74.320536 78.420497 83.290236 82.190677 85.482527 86.759549
27.876667 74.724723 80.160734 84.383062 83.349505 86.319550 87.450046
28.013333 75.054141 81.897758 85.429319 84.508684 87.076724 88.235754
28.150000 75.313632 83.685119 86.485199 85.628278 87.858447 89.038105
28.275000 75.761707 84.800945 87.129939 86.408992 88.440952 89.996725
28.400000 76.140289 85.942684 87.793557 87.208503 89.130407 90.862453
28.545000 76.718747 87.009552 88.464758 88.149221 90.159113 92.190648
28.690000 77.552218 87.820307 89.258385 89.156962 91.300362 93.859265
28.795000 78.492043 88.354019 89.859917 89.863283 92.220144 94.772394
28.900000 78.991912 88.946770 90.558932 90.636374 93.245435 95.917354
29.025000 80.452862 89.745040 91.823951 91.822926 94.729711 97.623742
29.150000 82.335645 90.561391 93.152084 93.056757 96.053188 99.083526
29.275000 84.452525 91.686990 94.528797 94.509217 97.852779 100.491429
29.400000 86.228547 93.007556 95.949446 95.955256 99.351168 102.114022
29.525000 88.676413 94.306527 97.611454 97.435543 100.961922 103.734764
29.650000 90.541124 95.667009 99.072388 98.908872 102.451920 105.376683
29.760000 91.865382 96.958402 100.234184 100.136162 103.590045 106.270001
