depth(m) lower_95.4(kyr) lower_68.2(kyr) median(kyr) mean(kyr) upper_68.2(kyr) upper_95.4(kyr)
0.010000 0.049319 0.217281 0.560439 0.549302 0.870727 0.985695
0.110000 1.546561 1.841461 2.742646 2.896510 3.985947 5.487323
0.210000 2.703420 3.407831 4.837678 5.010477 6.515849 8.509085
0.310000 4.441022 5.834372 7.545453 7.688969 9.620982 11.340680
0.410000 11.176237 14.428585 15.745941 15.606646 16.743091 17.883125
0.510000 13.237467 16.312640 17.343825 17.118136 18.034909 19.077878
0.610000 16.381801 17.358981 18.588747 18.420839 19.382775 20.118972
0.710000 17.851936 18.557882 19.686652 19.648690 20.612253 21.799475
0.810000 18.814942 19.726988 20.890333 20.817271 21.752337 22.916951
0.910000 20.239585 20.954218 21.812796 22.028524 23.142712 24.420437
1.010000 21.621960 22.296029 23.076516 23.256200 24.298796 25.780547
1.110000 22.750231 23.475191 24.404412 24.462315 25.441155 26.662445
1.210000 23.606279 24.709384 25.555792 25.805779 27.165032 28.696374
1.310000 24.603365 25.923006 26.896344 27.154386 28.760484 30.647071
1.410000 25.774334 26.970196 28.128137 28.362163 29.941135 31.906185
1.510000 27.020278 27.962739 29.385857 29.599511 31.155223 33.248381
1.610000 28.077191 29.365374 30.697593 30.967513 32.693335 35.411694
1.710000 28.924658 30.415100 31.622299 32.139385 34.034547 36.295934
1.810000 29.979366 31.668198 32.977015 33.613259 35.952106 38.700343
1.910000 31.316901 32.568834 34.633889 35.004006 37.558151 40.257657
2.010000 32.609769 33.835201 36.197964 36.355665 38.720420 41.911649
2.110000 33.716332 35.101936 38.043733 37.943089 40.189268 43.528655
2.210000 34.959923 36.568950 39.614269 39.583848 42.295963 45.079147
2.310000 36.161659 38.230399 41.367477 41.408943 44.715947 47.038820
2.410000 37.139168 40.093350 43.652507 43.297492 46.617994 49.688264
2.510000 38.193535 41.942910 45.347644 45.118539 48.225824 50.705472
2.610000 40.511399 43.452175 47.251127 46.830191 49.831129 52.389962
2.710000 42.541836 45.511187 48.721417 48.589389 51.559870 54.294883
2.810000 44.653747 46.735871 50.692697 50.255652 53.156846 55.589707
2.910000 45.911466 49.200423 52.178012 51.944374 54.426800 57.103148
3.010000 47.130725 51.122891 53.833174 53.593292 56.279496 58.843740
3.110000 48.598096 52.805408 55.426243 55.184171 57.806794 60.391743
3.210000 50.089452 54.473419 56.786887 56.661144 59.418464 61.382534
3.310000 52.864913 55.717473 58.108064 58.019355 60.777386 62.885821
3.410000 53.383019 57.009557 59.450718 59.390210 61.891918 64.237682
3.520000 55.095166 58.511605 61.146689 60.875888 63.229182 65.443232
3.630000 57.614799 60.674444 63.040970 62.664940 64.734993 66.805334
3.740000 59.871438 62.625781 64.444574 64.320307 66.080187 67.578207
3.840000 61.733005 64.218169 66.237402 65.931022 67.584431 68.885365
3.940000 64.816555 66.524989 67.839016 67.850880 69.513643 70.398348
4.040000 68.687472 69.883994 71.301334 71.662845 73.113628 77.191690
4.140000 71.116980 72.546902 74.539345 74.777931 77.060521 79.974438
4.240000 72.948862 74.849493 77.057297 77.186381 79.500839 82.946584
4.340000 74.434657 76.907202 79.064605 79.359565 81.691092 84.980455
4.440000 76.286833 78.488735 80.990152 81.283861 84.201933 87.691402
4.540000 78.105154 80.341298 82.862644 83.131642 86.154357 89.480647
4.640000 80.793657 81.996232 84.949501 85.091113 88.202371 91.203220
4.740000 82.585118 84.494006 87.439116 87.409727 90.003955 92.938434
4.840000 84.055318 86.182479 89.900417 89.547013 92.702668 95.692133
4.940000 85.239377 88.465116 91.966954 91.758829 95.351058 98.421536
5.040000 87.501162 90.834708 94.469060 94.158782 97.264038 101.322074
5.140000 89.151078 93.028739 96.631130 96.364893 99.512943 103.621119
5.240000 90.856920 94.661744 98.606140 98.403798 101.621283 104.949185
5.340000 92.703464 97.410077 100.321072 100.408842 104.137243 106.847445
5.440000 95.816403 98.639316 102.161076 102.493985 106.644887 108.724485
5.540000 97.686641 100.961351 104.723233 104.679800 108.264391 111.320756
5.640000 99.923077 104.125643 107.173898 107.094924 110.414276 112.835147
5.740000 103.256325 107.022237 109.734608 109.639650 112.411905 114.047605
5.840000 106.768884 109.766465 112.659629 112.407501 114.594366 116.817139
5.940000 110.820360 113.666536 115.748685 115.772355 117.689265 120.949766
6.040000 116.229244 117.257259 119.510089 119.527780 121.833572 123.737636
6.140000 118.972953 120.653025 122.788034 122.733021 124.987709 126.491049
6.240000 121.943020 123.688025 126.028445 126.014291 127.637269 131.208299
6.340000 127.634958 130.418787 132.706451 132.616476 134.648331 137.098717
6.440000 131.249021 133.333743 135.832130 135.763574 137.842093 140.788717
6.573333 133.573347 135.979183 138.611674 138.594058 140.660470 143.856033
6.706667 135.233947 138.499098 141.430914 141.298228 144.514038 145.896015
6.840000 137.459872 140.401609 143.406070 143.402996 146.612096 148.723626
6.940000 139.609406 142.034632 144.674508 144.990348 148.465122 151.148342
7.040000 141.561519 143.805960 146.847628 146.824107 150.204505 152.785976
7.140000 142.474271 145.584414 148.472890 148.411310 151.603726 154.105412
7.240000 143.495943 147.077873 150.136540 150.006296 153.400848 155.817774
7.335000 145.848007 148.655107 151.538446 151.583229 154.770521 157.693512
7.430000 147.577125 150.422514 152.936684 153.101936 156.299261 159.265002
7.530000 150.204388 151.779361 154.417056 154.690792 157.917155 160.280780
7.630000 151.807051 153.332663 156.164415 156.398886 159.341403 162.642711
7.730000 153.384062 154.731630 157.615575 157.915949 160.814568 164.221035
7.830000 154.130754 156.376375 159.140569 159.303141 162.417487 165.044459
7.930000 155.771174 157.861695 161.060298 160.902704 163.924480 166.635064
8.030000 157.572531 159.486157 162.561244 162.605594 165.563805 168.735619
8.130000 158.718638 161.514430 164.334524 164.365059 167.057670 171.450464
8.230000 160.322957 162.931427 165.893696 166.047089 168.974804 174.949892
8.330000 161.719862 164.642715 167.532608 167.895495 171.079530 176.221024
8.430000 164.128627 166.455560 169.941745 169.936353 173.077054 177.582233
8.530000 165.279044 168.256341 172.563356 172.119366 175.620928 178.879333
8.630000 167.211740 170.732826 174.844304 174.429507 177.865085 180.884745
8.730000 168.719797 172.631119 176.749455 176.658468 180.186297 182.816688
8.830000 172.189116 175.291079 179.470753 179.083762 182.359668 185.110418
8.930000 174.006098 178.616423 182.181853 181.620647 184.294274 187.390167
9.030000 178.441203 181.709892 184.420104 184.380961 187.216479 189.913447
9.130000 182.686377 184.731703 186.977292 187.161127 189.675989 192.118570
9.230000 186.281300 187.519890 189.511957 189.686813 191.871166 194.770828
9.330000 188.270215 189.976072 191.874691 192.044708 194.243747 196.577947
9.430000 190.359743 191.843045 193.899885 194.275222 196.645087 199.616678
9.530000 192.373137 193.602753 195.946766 196.163994 198.414066 201.099970
9.630000 193.649322 195.066897 197.968243 197.954505 200.558916 203.740212
9.753333 195.172661 197.217894 200.240561 200.172583 203.459224 205.994980
9.876667 197.034388 199.501867 202.491625 202.651220 206.005136 209.700099
10.000000 198.690476 201.698059 205.011933 205.190969 209.102351 212.345546
10.100000 200.385813 203.633732 207.018313 207.320560 210.778164 214.375231
10.200000 202.580774 206.374730 209.249152 209.630702 213.193144 215.647310
10.300000 204.327420 208.906833 212.742992 212.400407 216.160709 219.562997
10.400000 207.589481 211.684423 215.401326 215.439818 219.325655 222.441829
10.500000 212.770395 217.191029 220.331235 220.385056 223.669519 227.441251
10.633333 217.039788 221.454454 224.660721 224.579799 228.240633 231.492268
10.766667 222.011292 225.527351 229.470513 229.018651 232.040986 239.061072
10.900000 225.677947 228.981500 233.084036 232.940346 236.531849 242.845640
11.000000 229.111461 231.519855 235.680298 236.004095 239.662141 244.831066
11.100000 231.774230 235.987497 240.225717 240.001226 244.251530 246.793834
11.200000 235.023859 239.468380 244.185724 243.625400 247.353386 248.947143
11.300000 237.231626 244.062292 247.331832 246.674066 249.678839 251.393923
11.400000 240.293345 246.995596 249.767394 249.157606 251.717946 253.291512
11.500000 243.798081 249.210815 252.055257 251.626604 254.160824 255.604413
11.600000 249.973278 251.888613 253.946172 253.982915 256.251022 259.015474
11.700000 252.089687 253.684335 255.924815 256.165367 258.296441 262.430812
11.800000 253.804002 255.621669 257.808121 258.041148 260.211278 263.727252
11.900000 256.333028 257.575682 259.760384 260.022425 261.957486 265.814935
12.000000 258.123042 259.479576 261.755825 261.996857 264.875312 267.447769
12.100000 259.532391 261.323558 264.108415 264.173042 267.205227 269.128116
12.200000 260.661329 263.491345 266.064079 266.070677 268.954805 270.926497
12.300000 262.313890 265.352383 267.850736 267.935622 270.492461 273.447826
12.400000 263.923676 267.761262 270.211674 270.128302 272.323672 275.265499
12.500000 266.541887 270.040056 272.334354 272.417851 274.942422 277.938728
12.600000 270.027757 272.762659 274.823021 275.071910 277.700164 281.303223
12.700000 273.237965 275.456044 278.444343 278.737975 282.097049 287.042425
12.800000 275.067621 278.797215 283.375813 283.104144 287.527790 289.661209
12.944000 277.668710 283.589840 286.994426 287.096392 291.720696 294.961384
13.088000 281.777984 286.269113 290.340528 290.816402 295.563841 301.417169
13.232000 284.752396 290.233503 294.371609 294.258050 298.743474 305.879059
13.376000 287.229573 292.964051 298.085721 298.159706 303.518693 308.087879
13.520000 290.582223 294.920829 302.436158 301.885882 307.219627 314.458872
13.664000 294.461132 299.491923 305.700458 305.852233 311.539629 319.664322
13.808000 297.983147 302.890359 308.931433 309.426656 315.297135 322.841284
13.952000 301.799150 306.510389 311.928918 312.887020 319.835457 325.446500
14.096000 305.346926 311.222829 315.354086 316.327303 323.219574 328.058676
14.240000 308.421349 314.189642 318.983963 319.788665 326.574647 331.101228
14.384000 313.461777 317.123479 322.003626 323.004897 329.496242 334.519350
14.528000 315.511971 320.798845 326.501686 326.391457 332.255897 338.339164
14.672000 318.956758 323.523902 330.121418 329.621580 335.359894 341.326882
14.816000 321.601352 327.116734 333.454051 333.417454 339.702693 343.745790
14.960000 324.505580 330.424412 336.510591 336.494554 343.264932 346.474478
15.104000 327.679146 334.265385 339.567091 339.943284 345.590657 351.442995
15.248000 332.415134 338.599251 343.504211 343.407881 349.251349 354.210790
15.392000 335.298213 340.978412 347.439247 346.836574 352.325282 357.362762
15.536000 338.357554 344.430226 351.485442 350.350430 355.361114 360.077130
15.680000 341.337667 347.766999 354.809685 353.781989 359.276487 362.472306
15.824000 347.259934 351.910583 357.951399 357.446778 362.858509 367.072255
15.968000 350.928648 355.630687 360.956190 360.869176 366.377787 369.932730
16.112000 354.716794 359.918104 364.200677 364.463846 369.675394 373.113145
16.256000 357.164044 363.364609 368.400052 368.027685 372.564594 376.497033
16.400000 362.311511 367.229910 371.817714 371.366100 374.924770 379.365363
16.500000 364.920987 369.659293 373.981290 373.573312 377.050567 381.078037
16.600000 368.384677 372.100044 375.931060 375.653865 379.036803 382.910786
16.700000 371.087763 374.692006 378.035769 377.874229 380.765106 384.364111
16.800000 373.937038 377.496779 380.179730 380.222636 382.880855 386.246408
16.900000 376.491214 379.708816 382.330497 382.325916 384.904044 387.447230
17.000000 378.114696 381.898348 384.456784 384.651472 387.413060 389.926719
17.100000 380.938112 384.172209 386.653049 386.744822 389.601560 392.607375
17.200000 382.938766 386.621752 389.385095 389.486492 392.769194 398.069622
17.300000 385.409978 388.650427 391.600280 392.098744 395.319007 401.820543
17.400000 388.710510 391.455759 394.308221 394.897017 398.578527 404.355549
17.500000 391.352274 394.578796 398.006722 398.111757 401.728356 407.576593
17.600000 394.388182 397.310546 401.166102 401.591711 405.852777 410.560794
17.700000 398.900416 401.561257 405.477863 405.689262 409.593209 415.133665
17.800000 403.929246 406.886756 410.083706 410.319910 413.878783 417.927865
17.900000 409.855792 413.345675 417.364611 416.979419 420.567574 423.700817
18.000000 414.779939 418.337123 422.263125 421.902919 425.143188 428.190686
18.100000 420.257985 423.479893 426.386260 426.364793 429.315583 432.285030
18.200000 423.199704 426.976810 429.680524 429.690112 432.574104 434.852719
18.300000 426.843278 429.470119 432.584202 432.326404 435.309746 437.239758
18.400000 428.826298 431.715405 434.738249 434.576866 437.535561 439.285406
18.500000 430.889260 433.741941 436.721343 436.716385 439.553871 441.869022
18.600000 432.615704 435.907467 439.027747 438.860512 442.077309 445.361896
18.700000 434.668611 437.997765 440.843331 440.984485 444.271373 447.374054
18.800000 437.257868 439.733308 442.721207 443.239681 446.638677 452.265299
18.900000 439.025732 441.820410 445.231743 446.199644 451.592267 458.653016
19.000000 441.471231 444.207919 447.797749 449.105303 454.017386 462.163297
19.145455 444.428080 448.484759 452.169501 454.035171 461.797217 468.667872
19.290909 447.150820 451.951695 456.945490 458.991793 467.749593 474.270236
19.436364 450.433050 456.373143 464.257507 464.065501 472.641337 480.284572
19.581818 454.342768 460.257323 468.968426 469.238465 477.754973 485.891552
19.727273 458.369734 464.471234 473.914697 473.987257 481.855948 490.285965
19.872727 463.094985 469.621265 478.906510 478.455913 486.299846 493.656126
20.018182 466.725660 475.711335 484.243931 483.477599 491.544113 498.442979
20.163636 473.182035 480.248270 488.922302 488.314722 495.404564 502.303607
20.309091 479.765354 488.264185 494.508571 493.878767 500.504812 504.497777
20.454545 486.657928 494.858186 500.309284 499.347997 503.741841 506.795976
20.600000 492.611799 501.417507 504.747438 504.202253 507.457426 509.297003
20.700000 498.915128 505.234980 508.223635 507.718260 510.464410 513.409550
20.800000 503.385790 508.559485 511.495871 510.974068 513.416442 515.930853
20.900000 508.779763 510.955228 513.593226 513.558774 515.764134 517.078819
21.000000 510.817240 513.343763 515.795108 515.542302 517.475395 518.638538
21.100000 513.664459 515.725338 517.431676 517.316591 518.928120 519.789146
21.200000 515.857150 517.359221 518.936438 518.780687 520.126892 521.317570
21.300000 517.680480 518.870832 520.182233 520.231892 521.663466 522.736591
21.400000 519.290794 520.339951 521.791043 521.623734 522.773479 523.702958
21.500000 520.785490 521.731084 523.151958 523.016822 524.132679 525.183962
21.600000 522.152147 523.102238 524.427362 524.306140 525.582084 526.141169
21.700000 523.135078 524.457058 525.819831 525.535937 526.540423 527.439300
21.800000 524.479683 525.800686 526.998036 526.834493 527.815609 528.918820
21.900000 525.927940 527.086510 528.285660 528.194804 529.231292 529.969843
22.000000 527.424830 528.862921 529.839268 529.712688 530.603258 531.276778
22.100000 529.519315 530.734228 531.584696 531.839934 532.975475 536.245214
22.200000 531.609904 532.453418 534.218946 534.559017 536.358661 540.163338
22.300000 533.301290 534.056314 536.130942 536.544519 539.013081 542.583448
22.400000 534.814633 535.936962 538.583984 538.673996 540.795347 543.793648
22.500000 536.472689 537.582046 541.083726 540.818734 543.649615 546.430174
22.600000 538.271031 540.662289 544.047576 544.027392 547.029996 549.267027
22.700000 540.330416 543.829037 547.510484 546.944715 550.031014 551.425219
22.800000 543.139503 547.192142 550.579777 550.004139 552.793067 554.795214
22.900000 547.285894 550.099831 553.538214 553.178499 555.889474 559.456133
23.000000 550.327187 552.973197 555.746895 555.827232 558.419401 561.405344
23.100000 552.002324 555.707093 558.545335 558.251688 560.733253 562.960879
23.200000 556.487104 558.598684 560.911483 561.013165 563.510440 564.988723
23.300000 559.356717 561.174942 564.147262 563.626213 565.761223 567.467400
23.400000 561.752888 564.135335 566.792738 566.486035 568.357258 570.595609
23.500000 566.282598 567.769853 569.431254 569.401600 571.123611 572.080357
23.600000 569.496840 570.121441 571.875946 571.840044 573.244470 574.328599
23.700000 571.360906 572.261631 573.574099 573.666992 575.170350 576.243464
23.800000 572.971442 574.455276 575.600604 575.593721 577.038777 578.380387
23.900000 575.173446 576.491117 577.896759 577.932611 579.526006 581.038372
24.000000 577.851050 579.226783 581.082029 581.136463 582.698300 585.930926
24.100000 582.926585 583.593205 584.791391 585.119036 586.993897 590.322251
24.200000 586.115741 587.395064 588.671023 588.911582 590.591741 592.837947
24.300000 590.357471 591.807306 593.107796 593.140334 594.470403 596.042125
24.400000 594.177978 595.061697 596.874350 596.963480 598.638633 601.569029
24.500000 596.168303 597.447501 599.868982 599.815084 601.778973 603.734109
24.600000 598.062475 600.050546 602.288486 602.348667 604.583213 606.231640
24.700000 599.949234 602.275340 604.569815 604.682497 607.090753 608.736404
24.800000 601.970017 604.927015 607.012122 606.871258 608.937871 610.714348
24.900000 604.153674 606.806099 608.952695 608.841832 610.756909 611.866166
25.000000 607.338035 609.438068 611.281873 611.105621 612.599859 613.642260
25.100000 609.756780 611.567918 613.301637 613.129933 614.449966 615.919847
25.200000 612.372886 614.172765 616.106073 616.078195 618.105120 620.051818
25.300000 614.445620 617.263463 620.325302 619.874947 621.759309 623.471196
25.400000 622.050364 623.339216 624.344753 624.316343 625.385073 626.099602
25.500000 623.936707 625.003366 625.881523 625.900650 626.794426 627.918596
25.600000 624.983573 626.217654 627.201162 627.146920 628.129051 629.243940
25.700000 626.089525 627.504384 628.390074 628.392090 629.389337 630.828958
25.800000 627.242399 628.633455 629.707404 629.671151 630.569163 632.083897
25.900000 628.576969 630.054658 630.952842 630.943846 631.875265 633.324050
26.000000 630.110005 631.397433 632.287300 632.279950 633.110408 634.590535
26.100000 631.625359 632.651913 633.603072 633.613910 634.518429 636.189528
26.200000 633.066370 634.050503 634.802429 635.002004 636.244205 637.667414
26.300000 634.398166 635.188512 636.137630 636.289936 637.450193 639.092925
26.400000 635.638429 636.360778 637.566848 637.642372 638.762096 640.904459
26.500000 636.659752 637.778720 638.971370 639.188993 640.688987 642.411445
26.600000 638.262715 639.252612 640.918380 640.979682 642.606263 644.955604
26.700000 639.760926 640.953684 643.241674 643.200352 645.143541 647.313124
26.800000 641.574177 643.143469 645.772787 645.670612 647.662654 649.554865
26.900000 644.244908 646.152430 648.103202 648.238336 650.386965 652.943959
27.000000 646.756006 649.726639 654.951840 655.980329 663.560865 671.256543
27.100000 652.245686 656.166994 666.435082 664.433072 671.146640 673.787896
27.200000 670.325546 672.414487 674.216243 674.155492 675.704284 677.177978
27.300000 672.533237 675.948415 677.440871 677.253311 678.500419 680.112810
27.400000 675.479309 677.888144 679.443484 679.479760 680.878510 682.772438
27.500000 679.430696 680.305957 682.057446 682.275505 683.930991 688.140657
27.600000 681.037586 682.588536 684.293566 684.871963 687.992635 691.082422
27.700000 683.756801 685.122610 687.289252 688.285954 692.366093 694.057530
27.800000 687.386417 689.266784 693.695118 693.085032 696.010456 697.928629
27.900000 691.136962 694.946293 697.636124 697.411861 699.491038 701.381819
28.000000 695.760740 698.549975 700.287869 700.150144 701.965413 703.331964
28.100000 699.480879 701.274732 702.809748 702.721999 704.232731 705.102431
28.200000 702.074964 703.875727 705.180979 705.034793 706.182298 707.105419
28.300000 704.660512 706.036015 707.069508 707.017259 708.000465 709.005830
28.400000 707.166220 708.118284 709.104691 709.129277 710.084418 711.106746
28.500000 709.707070 710.296050 711.490008 711.737842 713.138168 715.845016
