depth(m) lower_95(kyr) lower_68(kyr) median(kyr) mean(kyr) upper_68(kyr) upper_95(kyr)
185.410000 3510.447403 3514.395636 3517.861325 3517.197812 3519.811469 3521.243860
185.485000 3511.776033 3515.153925 3518.615373 3517.966880 3520.446622 3521.836213
185.560000 3512.547631 3515.986750 3519.302564 3518.708231 3521.154391 3522.534737
185.635000 3513.550864 3516.774047 3520.092515 3519.461901 3521.773506 3523.237987
185.710000 3514.478653 3517.537409 3520.835185 3520.206198 3522.402942 3523.848758
185.785000 3515.411122 3518.413076 3521.566266 3520.972025 3523.079912 3524.420346
185.860000 3516.241087 3519.079958 3522.323944 3521.706564 3523.773222 3525.235176
185.920000 3516.826050 3519.710171 3522.887941 3522.283169 3524.248780 3525.870830
185.995000 3517.582759 3520.556511 3523.585771 3522.992447 3524.931267 3526.569952
186.070000 3518.420092 3521.308544 3524.293443 3523.701845 3525.577103 3527.203811
186.160000 3519.142901 3522.135473 3525.084414 3524.539423 3526.505026 3528.109336
186.220000 3519.639202 3522.801075 3525.614707 3525.100316 3527.065365 3528.603532
186.310000 3520.518543 3523.760853 3526.398338 3525.929671 3527.801938 3529.328290
186.370000 3521.134490 3524.367716 3526.914553 3526.490049 3528.487602 3529.789195
186.460000 3521.731835 3525.408861 3527.684415 3527.312384 3529.246445 3530.684217
186.565000 3522.697252 3526.448568 3528.567474 3528.239586 3530.150882 3531.496784
186.670000 3523.747515 3527.605481 3529.434539 3529.134987 3530.947211 3532.222295
186.745000 3524.717756 3528.292457 3530.042949 3529.797788 3531.597797 3532.772958
186.820000 3525.446558 3528.975361 3530.694728 3530.458138 3532.208871 3533.430980
186.895000 3526.245493 3529.620979 3531.300880 3531.102956 3532.775972 3533.963014
186.970000 3527.148155 3530.368858 3531.970300 3531.760112 3533.415556 3534.503471
187.045000 3527.866414 3531.027970 3532.623968 3532.424241 3533.986259 3535.117430
187.120000 3528.727480 3531.812050 3533.228429 3533.081220 3534.537028 3535.978029
187.195000 3529.413543 3532.408863 3533.855766 3533.725288 3535.105818 3536.765381
187.270000 3530.468337 3533.057650 3534.468795 3534.369667 3535.658736 3537.683648
187.345000 3531.459802 3533.690163 3535.095879 3535.000669 3536.243451 3538.199286
187.420000 3532.363972 3534.369063 3535.682352 3535.632125 3536.774075 3538.926510
187.495000 3533.176947 3534.948382 3536.296363 3536.233752 3537.328507 3539.936927
187.570000 3533.936147 3535.557476 3536.815992 3536.825528 3537.880539 3540.434199
187.645000 3534.586763 3536.203476 3537.369427 3537.395132 3538.409906 3541.036832
187.720000 3535.236405 3536.721430 3537.915662 3537.970450 3538.952562 3541.458142
187.795000 3535.819276 3537.352285 3538.441230 3538.524387 3539.508112 3541.969296
187.870000 3536.505920 3537.934130 3538.976564 3539.075821 3540.047975 3542.585377
187.945000 3537.226205 3538.466808 3539.491057 3539.634120 3540.608379 3543.190559
188.020000 3537.770612 3539.115157 3540.018436 3540.202308 3541.225214 3543.769842
188.095000 3538.341851 3539.708006 3540.544337 3540.742162 3541.712522 3544.285086
188.170000 3539.083962 3540.209266 3541.087459 3541.291735 3542.290561 3544.729898
188.245000 3539.761732 3540.767393 3541.619016 3541.833334 3542.930330 3545.194445
188.320000 3540.340370 3541.325949 3542.145433 3542.383348 3543.539741 3545.719595
188.395000 3540.828003 3541.812266 3542.684431 3542.945807 3544.229941 3546.370924
188.470000 3541.450710 3542.330692 3543.238276 3543.510299 3544.869128 3546.835155
188.545000 3542.053677 3542.894765 3543.778053 3544.092615 3545.526683 3547.405158
188.620000 3542.662023 3543.445259 3544.299045 3544.677767 3546.297766 3547.953123
188.695000 3543.295693 3544.013885 3544.837061 3545.266650 3546.919433 3548.488437
188.770000 3543.890431 3544.561066 3545.413773 3545.868606 3547.631823 3549.197760
188.845000 3544.522859 3545.123780 3546.024233 3546.496368 3548.450784 3549.842248
188.920000 3545.065418 3545.639023 3546.606944 3547.103612 3549.224921 3550.509968
188.995000 3545.602115 3546.162596 3547.159735 3547.677655 3549.881313 3551.028899
189.070000 3546.058500 3546.659348 3547.680184 3548.233493 3550.500120 3551.542645
189.145000 3546.554072 3547.173622 3548.232449 3548.786511 3551.083691 3552.090309
189.220000 3547.099433 3547.719239 3548.751178 3549.342182 3551.647133 3552.593765
189.295000 3547.616026 3548.235273 3549.273611 3549.900806 3552.277779 3553.246459
189.370000 3548.146100 3548.770449 3549.803300 3550.458236 3552.883872 3553.730782
189.445000 3548.603761 3549.284198 3550.321188 3550.997432 3553.415800 3554.281883
189.520000 3549.065350 3549.793950 3550.854122 3551.522586 3553.947653 3554.782436
189.620000 3549.615972 3550.403704 3551.416194 3552.173989 3554.599667 3555.502491
189.720000 3550.212275 3551.051261 3552.062616 3552.826895 3555.301067 3556.077072
189.820000 3550.863036 3551.641051 3552.720294 3553.489547 3555.997863 3556.734065
189.895000 3551.371363 3552.144969 3553.191306 3554.009806 3556.517373 3557.183768
189.970000 3551.904188 3552.648972 3553.680008 3554.524361 3556.979077 3557.652072
190.045000 3552.354029 3553.139464 3554.233601 3555.051352 3557.514573 3558.104423
190.120000 3552.921930 3553.605344 3554.831713 3555.593636 3557.981059 3558.588575
190.195000 3553.452828 3554.113414 3555.389227 3556.142375 3558.485807 3559.101997
190.270000 3553.972393 3554.619361 3555.939669 3556.675684 3558.996895 3559.593335
190.410000 3554.909602 3555.549888 3556.963790 3557.647175 3559.843984 3560.377116
190.420000 3554.994643 3555.648531 3557.060932 3557.742349 3559.924753 3560.457194
190.560000 3556.404197 3557.235624 3559.701680 3559.259714 3560.868054 3561.491030
190.570000 3556.542951 3557.356355 3559.898791 3559.376188 3560.945018 3561.555188
190.710000 3558.489060 3560.082612 3561.530345 3561.217374 3561.990207 3563.027569
190.720000 3558.582634 3560.228642 3561.636030 3561.328362 3562.096652 3563.204820
190.860000 3560.337518 3562.098018 3562.737198 3562.695151 3563.256834 3565.154086
190.870000 3560.435103 3562.214055 3562.826352 3562.798985 3563.372889 3565.225944
191.010000 3561.988030 3563.394436 3564.103367 3564.267407 3565.118786 3567.450124
191.090000 3562.918554 3563.992116 3564.817737 3565.096494 3566.309582 3568.456818
191.170000 3563.582169 3564.703378 3565.645945 3565.977456 3567.435170 3569.594884
191.245000 3564.320678 3565.356163 3566.491512 3566.817881 3568.404266 3570.967072
191.320000 3565.127461 3566.066883 3567.398049 3567.712402 3569.483168 3571.660629
191.460000 3566.315544 3567.381381 3569.179259 3569.349785 3571.347510 3573.607780
191.540000 3567.000468 3568.169585 3570.226575 3570.373514 3572.496490 3574.765001
191.620000 3567.600615 3569.156463 3571.346091 3571.374244 3573.527725 3575.790239
191.760000 3568.798299 3570.719938 3573.100679 3573.085997 3575.346381 3577.406037
191.855000 3569.567010 3571.761574 3574.218600 3574.237365 3576.571652 3578.538957
191.950000 3570.413313 3572.935203 3575.435070 3575.372514 3577.766863 3579.646584
192.060000 3571.592190 3574.370839 3576.964506 3576.780699 3579.190491 3581.047010
192.135000 3572.254247 3575.408915 3577.996487 3577.746658 3580.101391 3582.033105
192.210000 3573.100132 3576.345408 3578.960168 3578.671064 3580.944240 3582.790890
192.285000 3574.280755 3577.219745 3579.939491 3579.612486 3581.860348 3583.962881
192.360000 3575.415673 3578.185693 3580.821191 3580.556638 3582.752781 3584.998392
192.435000 3576.451884 3579.087806 3581.671842 3581.471288 3583.537865 3586.114190
192.510000 3577.368338 3579.917840 3582.513189 3582.316344 3584.428243 3587.113826
192.585000 3578.276652 3580.713038 3583.304817 3583.164707 3585.375926 3588.305172
192.660000 3578.920786 3581.387151 3584.052427 3584.009427 3586.291861 3589.281167
192.735000 3579.643815 3582.029536 3584.846780 3584.824764 3587.146493 3590.397973
192.810000 3580.471235 3583.041194 3585.598908 3585.629419 3588.008066 3591.289123
192.950000 3581.798559 3584.345377 3586.969243 3587.156799 3590.173430 3592.906807
193.030000 3582.555433 3585.203466 3587.827806 3588.019563 3591.302106 3593.803929
193.110000 3583.431733 3586.002154 3588.668174 3588.872345 3592.182064 3594.750637
193.185000 3584.225668 3586.809833 3589.476021 3589.705255 3593.096813 3595.561497
193.260000 3584.955693 3587.608179 3590.324688 3590.545920 3593.995588 3596.104660
193.335000 3585.842392 3588.596048 3591.253836 3591.458285 3594.890602 3597.124985
193.410000 3586.455868 3589.342192 3592.159441 3592.321225 3595.643261 3598.026694
193.485000 3587.298018 3590.192347 3593.134275 3593.270661 3596.515150 3599.154229
193.560000 3588.213054 3591.157734 3594.116743 3594.239669 3597.445332 3600.375426
193.660000 3589.241767 3592.321835 3595.490518 3595.613542 3598.814066 3602.126132
193.760000 3590.858484 3593.564055 3596.994324 3597.007337 3600.204147 3603.362649
193.860000 3592.128933 3595.077073 3598.368936 3598.395088 3601.696091 3604.789302
193.935000 3593.054390 3596.039359 3599.319991 3599.445812 3602.871437 3605.996473
194.010000 3593.788853 3597.123004 3600.379612 3600.484184 3603.957829 3607.426641
194.085000 3594.734623 3598.290098 3601.444164 3601.557991 3604.956663 3608.748901
194.160000 3595.688135 3599.289651 3602.464909 3602.588950 3606.016508 3609.726560
194.235000 3596.857424 3600.386415 3603.741589 3603.689074 3607.023071 3610.454315
194.310000 3597.920248 3601.428824 3604.782233 3604.778257 3608.064791 3611.262926
194.385000 3599.465514 3602.470672 3605.848827 3605.821446 3609.075198 3612.118441
194.460000 3600.649604 3603.684797 3606.905937 3606.877712 3609.911831 3612.841871
194.535000 3602.049019 3604.879929 3607.968303 3607.944613 3610.827400 3613.434829
194.610000 3603.179303 3606.145750 3609.145996 3608.990902 3611.801509 3614.043953
194.685000 3604.363456 3607.194183 3610.231743 3610.020616 3612.843226 3614.893981
194.760000 3605.278853 3608.275851 3611.275971 3611.061779 3613.809093 3615.676906
194.835000 3606.531568 3609.598033 3612.187930 3612.122295 3614.762643 3616.619152
194.910000 3607.605786 3610.850954 3613.239284 3613.199463 3615.726511 3617.715831
194.985000 3608.788455 3612.106899 3614.453349 3614.305449 3616.675888 3618.966019
195.060000 3610.521248 3613.251742 3615.532417 3615.428028 3617.631202 3619.778125
195.135000 3611.853009 3614.391417 3616.523115 3616.491615 3618.603513 3620.760019
195.210000 3613.462102 3615.480597 3617.649261 3617.531832 3619.471225 3621.683262
195.285000 3614.694873 3616.703574 3618.744751 3618.656007 3620.516655 3622.590650
195.360000 3616.127138 3617.954840 3619.830570 3619.775685 3621.504819 3623.351322
195.435000 3617.087216 3618.937773 3620.835994 3620.761306 3622.480385 3624.306120
195.510000 3618.171101 3620.129103 3621.751709 3621.755230 3623.460925 3625.246813
195.585000 3619.262515 3621.154863 3622.642878 3622.719052 3624.386755 3626.506559
195.660000 3620.362518 3622.089433 3623.490954 3623.653479 3625.273357 3627.274965
195.735000 3621.326796 3622.942827 3624.376519 3624.517958 3626.095492 3628.568777
195.810000 3622.383258 3623.787506 3625.285161 3625.402081 3626.950421 3629.304485
195.870000 3623.189494 3624.598095 3626.088330 3626.169616 3627.679122 3629.976192
195.960000 3624.181890 3625.835433 3627.223487 3627.267413 3628.708929 3630.836967
196.020000 3625.238975 3626.680143 3628.025316 3628.095936 3629.525603 3631.500283
196.110000 3626.426577 3627.852994 3629.180371 3629.268168 3630.706323 3632.494493
196.170000 3627.346965 3628.616254 3629.991886 3630.016332 3631.405027 3633.117936
196.260000 3628.512575 3629.712256 3631.106552 3631.121235 3632.443623 3634.076290
196.320000 3629.257050 3630.522627 3631.866806 3631.900714 3633.293937 3634.975126
196.410000 3630.283841 3631.656741 3633.032967 3633.105372 3634.575813 3636.060196
196.470000 3631.021612 3632.567296 3634.063839 3634.093188 3635.586389 3637.036338
196.560000 3632.699586 3634.315115 3635.864536 3635.896087 3637.424600 3638.986508
196.620000 3633.845019 3635.349525 3636.944956 3636.926355 3638.509388 3640.106700
196.710000 3635.275681 3636.798937 3638.326400 3638.379272 3639.934697 3641.522575
196.770000 3636.149783 3637.758539 3639.381540 3639.364921 3640.931714 3642.396733
196.845000 3637.461124 3639.027324 3640.550654 3640.566778 3642.126681 3643.602441
196.920000 3638.586144 3640.157412 3641.728432 3641.743721 3643.392335 3644.825799
196.995000 3639.668511 3641.129014 3642.679972 3642.769372 3644.448978 3646.167366
197.070000 3640.462085 3642.102794 3643.604845 3643.689346 3645.387373 3647.192931
197.145000 3641.713539 3642.999655 3644.429696 3644.626132 3646.325048 3648.411686
197.220000 3642.643412 3643.833558 3645.330388 3645.485450 3647.138582 3649.425688
197.295000 3643.296345 3644.591192 3646.114047 3646.307288 3648.122209 3650.390464
197.370000 3644.059353 3645.309300 3646.940517 3647.131780 3648.980139 3650.995759
197.445000 3644.858908 3646.041322 3647.808198 3647.952124 3649.850693 3651.854676
197.520000 3645.606066 3646.861426 3648.675698 3648.792461 3650.833138 3652.757786
197.595000 3646.375824 3647.716951 3649.576245 3649.675985 3651.641778 3653.698795
197.670000 3647.066702 3648.674710 3650.505093 3650.577872 3652.508179 3654.529977
197.745000 3647.882551 3649.529410 3651.448803 3651.467994 3653.449521 3655.323961
197.820000 3648.548540 3650.462011 3652.409191 3652.372312 3654.270916 3656.175060
197.895000 3649.352405 3651.390347 3653.285966 3653.264581 3655.170601 3656.878004
197.970000 3650.331241 3652.303532 3654.281760 3654.234990 3656.018524 3657.938268
198.045000 3651.330572 3653.197691 3655.356591 3655.276306 3657.077870 3659.190482
198.120000 3652.213398 3654.388906 3656.348721 3656.330986 3658.098021 3660.135004
198.195000 3653.448445 3655.514118 3657.412454 3657.410000 3659.231886 3661.454715
198.270000 3654.824735 3656.717221 3658.428669 3658.521724 3660.282877 3662.785389
198.345000 3655.907604 3657.881631 3659.631799 3659.675968 3661.532089 3663.838136
198.420000 3657.053328 3658.933850 3660.693746 3660.780589 3662.642283 3665.302268
198.520000 3658.574598 3660.161205 3661.920499 3662.058752 3663.950273 3666.590136
198.620000 3659.752817 3661.426416 3663.042576 3663.281439 3665.175343 3668.118867
198.720000 3660.952414 3662.616544 3664.140806 3664.445769 3666.472187 3669.211945
198.795000 3661.665022 3663.417956 3664.990768 3665.296887 3667.361895 3669.966814
198.870000 3662.630428 3664.239678 3665.788585 3666.138640 3668.431760 3670.673015
198.945000 3663.359554 3665.051437 3666.618971 3666.984162 3669.292809 3671.518324
199.020000 3664.388380 3665.900374 3667.518137 3667.845085 3670.206606 3672.460094
199.095000 3665.067329 3666.748623 3668.434412 3668.742423 3671.203228 3673.338769
199.170000 3665.945095 3667.653826 3669.411631 3669.668079 3672.102263 3674.020217
199.245000 3666.725621 3668.459278 3670.332427 3670.585957 3673.039841 3674.828673
199.320000 3667.719844 3669.328136 3671.310690 3671.513737 3673.857764 3675.636190
199.420000 3669.107388 3670.663896 3672.760547 3672.846591 3675.164244 3676.850076
199.520000 3670.316958 3672.036860 3674.098055 3674.134442 3676.320362 3678.205574
199.620000 3671.476295 3673.232050 3675.439415 3675.460516 3677.606048 3679.871851
199.695000 3672.340725 3674.223327 3676.452937 3676.508656 3678.772534 3680.866155
199.770000 3673.512598 3675.286124 3677.495125 3677.562329 3679.844067 3681.896646
199.845000 3674.321043 3676.156376 3678.485842 3678.559618 3680.976390 3683.222882
199.920000 3675.429628 3677.025089 3679.465667 3679.559261 3681.998467 3684.157838
200.010000 3676.590161 3678.292738 3680.736065 3680.863270 3683.402308 3685.717697
200.100000 3677.671440 3679.595523 3682.056616 3682.178894 3684.776938 3687.120190
200.220000 3679.073637 3681.211363 3684.116560 3683.957832 3686.481503 3688.998246
200.295000 3679.938027 3682.266028 3685.350334 3685.055977 3687.620423 3690.003416
200.370000 3680.937502 3683.336616 3686.446819 3686.152366 3688.657531 3690.982851
200.445000 3681.969951 3684.385373 3687.518094 3687.234869 3689.689604 3692.121642
200.520000 3682.920114 3685.522224 3688.605991 3688.335383 3690.769791 3693.202192
200.595000 3683.832611 3686.781570 3689.621488 3689.366769 3691.859082 3694.072055
200.670000 3684.917066 3687.912212 3690.669956 3690.481062 3692.934754 3695.408826
200.800000 3686.522064 3690.035648 3692.491249 3692.299221 3694.450093 3697.109507
200.820000 3686.958995 3690.451675 3692.802005 3692.600463 3694.775970 3697.392211
200.950000 3688.754942 3692.776289 3695.077454 3694.753516 3696.763201 3699.268579
200.970000 3689.071630 3693.125322 3695.377609 3695.068510 3697.097603 3699.568830
201.100000 3691.091804 3695.481425 3697.658122 3697.410939 3699.647438 3702.100520
201.120000 3691.415340 3695.780269 3697.979917 3697.744199 3700.008979 3702.484167
201.205000 3692.975758 3697.257709 3699.444553 3699.337898 3701.546285 3704.531986
201.290000 3695.067969 3698.699130 3700.972841 3700.984195 3703.458093 3706.181539
201.400000 3698.052368 3700.813080 3703.213668 3703.391725 3706.051595 3709.082627
201.475000 3699.834109 3702.150947 3704.865062 3704.963572 3707.748368 3711.105875
201.550000 3700.978175 3703.505997 3706.307705 3706.448984 3709.300138 3713.042496
201.625000 3702.326609 3704.784082 3707.619280 3707.874630 3710.660997 3714.777072
201.700000 3703.494279 3706.152017 3709.197490 3709.363079 3712.253343 3716.984641
201.803333 3705.538958 3708.065302 3711.152946 3711.569381 3714.909300 3720.212889
201.906667 3707.366006 3709.875733 3713.251337 3713.779555 3717.577180 3723.763511
202.010000 3708.958623 3711.729298 3715.183738 3715.969210 3720.070121 3727.694720
202.150000 3710.996813 3714.223208 3718.266446 3719.427300 3724.828988 3733.998884
202.225000 3712.182553 3715.320926 3719.779823 3720.932715 3726.361905 3735.837155
202.300000 3713.329317 3716.450144 3721.343359 3722.401850 3728.243809 3737.281423
202.380000 3714.831288 3718.154882 3723.327148 3724.169750 3730.101355 3738.366614
202.460000 3716.170550 3719.646881 3725.021327 3725.897288 3731.905062 3740.110113
202.600000 3719.064576 3723.713807 3729.204070 3729.843161 3736.481790 3743.337845
202.695000 3720.756168 3725.721469 3731.511064 3732.034236 3738.791754 3745.100988
202.790000 3722.802301 3727.833097 3733.818713 3734.213257 3740.769397 3747.212248
202.900000 3724.128692 3729.964020 3736.537701 3736.594316 3743.103404 3749.296160
202.975000 3725.205831 3731.480786 3738.017780 3738.131304 3744.498972 3750.714841
203.050000 3727.203519 3733.012233 3739.762676 3739.577173 3745.763438 3751.628191
203.125000 3729.255788 3734.856804 3741.485003 3741.056454 3747.090890 3752.445295
203.200000 3730.534978 3736.123810 3743.042605 3742.467391 3748.311278 3753.231307
203.275000 3731.865105 3737.677168 3744.704215 3743.906311 3749.522551 3754.071421
203.350000 3733.425282 3739.195102 3746.151518 3745.300717 3750.762382 3754.760292
203.425000 3734.710972 3740.760913 3747.721583 3746.735760 3751.835982 3755.726775
203.500000 3736.200908 3742.654713 3749.180463 3748.130400 3752.888024 3756.633607
203.575000 3738.300383 3743.983833 3750.293528 3749.478894 3754.059971 3757.510526
203.650000 3739.864244 3745.773568 3751.495953 3750.801908 3755.163075 3758.359542
203.725000 3741.313839 3747.623037 3752.761533 3752.054796 3756.244630 3759.198329
203.800000 3743.464709 3749.183298 3753.911237 3753.309764 3757.372230 3759.975649
203.875000 3745.261565 3750.684623 3755.116819 3754.547205 3758.451969 3761.415084
203.950000 3746.641596 3752.068734 3756.158099 3755.719405 3759.429713 3762.636304
204.025000 3748.333758 3753.571656 3757.340928 3756.908642 3760.445455 3763.626988
204.100000 3749.559812 3754.929637 3758.441313 3758.037076 3761.329440 3764.593839
204.205000 3751.390497 3756.528944 3760.007828 3759.625068 3762.670733 3765.986304
204.310000 3754.346118 3758.350695 3761.556409 3761.201292 3763.964525 3767.223003
204.400000 3756.196337 3759.791508 3762.887545 3762.553948 3765.075991 3768.334839
204.475000 3757.414564 3761.088005 3763.968242 3763.666056 3766.062101 3769.144660
