depth(m) lower_95(kyr) lower_68(kyr) median(kyr) mean(kyr) upper_68(kyr) upper_95(kyr)
145.020000 3480.530091 3483.939512 3489.696658 3489.317817 3494.003658 3498.443293
145.100000 3483.151393 3486.707488 3492.042539 3491.765275 3496.290197 3501.020575
145.185000 3485.554573 3489.515722 3494.498288 3494.424404 3498.979743 3503.703463
145.270000 3488.087315 3492.283075 3497.095729 3497.042157 3501.378464 3506.357900
145.400000 3491.915645 3496.637905 3500.823317 3500.966908 3505.270655 3510.791078
145.475000 3494.493886 3499.251509 3503.475063 3503.649845 3508.158762 3513.187900
145.550000 3497.644420 3502.044057 3506.132837 3506.468279 3510.809263 3516.498330
145.661000 3502.394038 3506.032300 3510.583841 3511.182081 3516.101236 3522.685574
145.700000 3503.963391 3507.744370 3512.174737 3512.704818 3517.580152 3524.848224
145.775000 3506.311653 3510.415610 3515.147784 3515.551942 3520.129318 3527.362320
145.850000 3508.722299 3513.316185 3518.317292 3518.589060 3523.165062 3530.872951
145.925000 3511.201754 3515.954142 3520.996630 3521.401854 3526.019672 3533.296519
146.000000 3513.844428 3518.707096 3523.887576 3524.280701 3529.301546 3537.410946
146.075000 3516.232971 3521.305624 3526.648316 3527.211430 3532.488574 3541.306974
146.150000 3518.722702 3523.875837 3529.639166 3530.174967 3535.600230 3545.559630
146.225000 3520.800093 3526.660427 3532.633246 3533.221755 3538.970079 3552.268890
146.300000 3523.531469 3529.377612 3535.268260 3536.110628 3542.101977 3557.217264
146.410000 3527.914417 3533.793240 3538.957819 3540.837342 3547.769351 3565.060741
146.520000 3532.526929 3538.007571 3542.758726 3545.672456 3556.938119 3570.768184
146.620000 3536.700271 3541.827849 3546.256937 3549.830144 3562.679439 3574.613622
146.695000 3539.743688 3545.110074 3550.371417 3553.488631 3565.933562 3577.612890
146.770000 3542.451846 3548.540905 3554.449204 3557.073489 3568.475707 3580.040331
146.845000 3544.978314 3551.769979 3558.420806 3560.535491 3571.619351 3582.515078
146.920000 3548.021130 3555.462939 3562.360132 3563.949322 3574.526886 3585.209469
147.050000 3554.831287 3562.865292 3569.523338 3570.954625 3581.281459 3589.128132
147.125000 3557.977245 3565.873496 3572.832707 3573.961069 3583.902342 3591.508374
147.200000 3561.382689 3568.561681 3575.993983 3576.916339 3586.717375 3593.774146
147.275000 3563.959949 3570.933689 3579.391260 3579.786004 3589.323463 3595.876633
147.350000 3566.638451 3573.375403 3582.714932 3582.555749 3591.752856 3598.432373
147.425000 3568.975748 3576.054664 3586.191439 3585.447268 3593.998485 3600.041567
147.500000 3570.669948 3578.563576 3589.303352 3588.079404 3596.095934 3602.017863
147.520000 3571.451462 3579.412434 3590.061728 3588.735523 3596.788282 3602.382376
147.650000 3576.418660 3588.753584 3595.489414 3594.618197 3600.891803 3605.282646
147.725000 3579.629256 3592.482878 3598.500261 3597.592194 3603.490804 3607.105762
147.800000 3581.939259 3596.413804 3601.509657 3600.562549 3606.253196 3608.908236
147.820000 3582.386192 3597.175195 3602.129250 3601.203716 3606.763796 3609.530582
147.950000 3589.746850 3600.944043 3606.076258 3605.189383 3609.733609 3612.612970
148.025000 3592.494744 3603.282586 3608.394051 3607.385585 3611.706577 3614.242923
148.100000 3595.322058 3605.532771 3610.632721 3609.460301 3613.568181 3616.082474
148.130000 3596.860019 3606.433237 3611.404033 3610.292410 3614.403561 3616.770068
148.250000 3604.569814 3610.792737 3614.604508 3613.904468 3617.119430 3619.193025
148.325000 3608.035293 3613.412924 3616.592908 3616.137105 3618.955912 3620.904305
148.400000 3612.252419 3615.974114 3618.673374 3618.308402 3620.757743 3622.609103
148.475000 3614.898312 3618.012361 3620.497607 3620.216347 3622.509941 3624.301504
148.550000 3617.364673 3620.165656 3622.267066 3622.081981 3624.037199 3625.647041
148.625000 3619.810591 3622.147341 3624.012551 3623.898455 3625.659042 3627.609607
148.700000 3622.177101 3624.098351 3625.695069 3625.654142 3627.259018 3629.196531
148.720000 3622.582141 3624.613898 3626.089789 3626.070566 3627.660341 3629.516928
148.850000 3625.167145 3626.809866 3628.232824 3628.220058 3629.624559 3631.419551
148.925000 3626.513085 3628.063082 3629.377332 3629.421156 3630.819686 3632.487759
149.000000 3627.746477 3629.256030 3630.561252 3630.616384 3631.956073 3633.676008
149.020000 3628.258295 3629.620951 3630.890712 3630.959927 3632.292774 3633.978562
149.150000 3630.248100 3631.605076 3632.884506 3632.956808 3634.397497 3635.921664
149.225000 3631.589919 3632.828407 3634.126796 3634.248428 3635.725296 3637.486684
149.300000 3632.884620 3634.041724 3635.425675 3635.532129 3637.051147 3638.770496
149.320000 3633.337176 3634.432123 3635.827767 3635.945497 3637.528237 3639.175944
149.450000 3635.752495 3636.867388 3638.350296 3638.602054 3640.390553 3642.661200
149.525000 3637.183530 3638.261119 3639.967656 3640.285465 3642.259561 3644.868037
149.600000 3638.468869 3639.866104 3641.788288 3642.091652 3644.480163 3646.872783
149.640000 3639.191745 3640.784404 3642.820707 3643.062516 3645.413157 3647.744329
149.750000 3641.778874 3643.503581 3645.788140 3645.858170 3648.103892 3650.576432
149.825000 3643.267834 3645.210553 3647.689476 3647.707732 3650.005098 3652.767918
149.900000 3644.913295 3647.156930 3649.652402 3649.690494 3652.143289 3654.963978
149.975000 3646.745984 3649.324930 3651.918881 3651.986067 3654.728087 3657.619336
150.050000 3648.734764 3651.565016 3654.283585 3654.239982 3657.114805 3659.442868
150.125000 3650.859429 3653.834414 3656.736870 3656.661569 3659.472268 3661.819884
150.200000 3653.384890 3656.121698 3659.099588 3658.860192 3661.588849 3663.179634
150.230000 3654.214578 3656.821011 3659.834772 3659.527052 3662.159443 3663.763634
150.350000 3656.858475 3659.170089 3662.015130 3661.745794 3664.201878 3665.535206
150.425000 3658.062896 3660.632089 3663.417314 3663.159865 3665.527629 3666.662707
150.500000 3659.445040 3662.270193 3664.795476 3664.560566 3666.737694 3667.918773
150.530000 3660.012686 3662.908218 3665.387399 3665.110885 3667.265277 3668.386201
150.650000 3662.103184 3664.744058 3667.206262 3666.884690 3668.912684 3669.983947
150.725000 3663.012187 3665.832801 3668.380909 3667.995079 3669.974903 3671.053936
150.800000 3664.209398 3667.106172 3669.515516 3669.103685 3671.015978 3671.940799
150.830000 3664.738471 3667.596589 3669.971488 3669.566171 3671.500798 3672.450324
150.950000 3666.468075 3669.464049 3671.635383 3671.266467 3672.986695 3674.175617
151.025000 3667.507143 3670.647099 3672.784308 3672.436896 3674.102476 3675.581849
151.100000 3669.153185 3671.991427 3673.930113 3673.672125 3675.258003 3676.860085
151.140000 3669.923645 3672.825810 3674.657785 3674.409379 3675.940955 3677.547611
151.250000 3672.947269 3675.191916 3676.745831 3676.777791 3678.429001 3680.621683
151.325000 3675.003236 3676.831451 3678.556685 3678.733375 3680.729828 3683.228407
151.400000 3676.796737 3678.625588 3680.524927 3680.733387 3683.008942 3685.421572
151.430000 3677.428488 3679.180261 3681.304565 3681.444188 3683.742453 3686.100746
151.550000 3679.457448 3681.345631 3683.816345 3683.828157 3686.231466 3688.321091
151.680000 3681.612519 3683.525140 3686.489694 3686.265672 3688.778143 3690.484096
151.700000 3681.933435 3683.925442 3686.921236 3686.680393 3689.229240 3690.935098
151.775000 3683.105067 3685.174754 3688.307025 3688.031947 3690.563550 3692.195156
151.850000 3684.199319 3686.445745 3689.635109 3689.356352 3691.834046 3693.488517
151.925000 3685.452480 3687.717936 3691.006352 3690.645476 3693.066960 3694.655845
152.000000 3686.620615 3689.027199 3692.248891 3691.881404 3694.332076 3695.961409
152.030000 3687.093787 3689.592364 3692.745876 3692.394032 3694.828241 3696.596082
152.150000 3688.890822 3691.630748 3694.531793 3694.209174 3696.573703 3698.320087
152.280000 3690.914258 3693.615107 3696.416868 3696.195596 3698.537915 3700.649573
152.300000 3691.240953 3693.949351 3696.736743 3696.541167 3698.916928 3701.220151
152.400000 3692.796464 3695.434397 3698.191705 3698.127996 3700.404977 3703.740979
152.500000 3694.493671 3697.009600 3699.547472 3699.709428 3701.864985 3705.928935
152.600000 3696.196196 3698.463842 3700.963067 3701.268659 3703.403698 3708.247856
152.640000 3696.890017 3699.048191 3701.667597 3701.976031 3704.181002 3709.228578
152.760000 3698.528858 3700.950705 3703.411545 3704.034770 3706.384369 3712.827809
152.900000 3701.176391 3703.243088 3705.734240 3706.712960 3709.528656 3718.291874
152.930000 3701.629347 3703.786809 3706.331091 3707.334427 3710.281304 3719.078796
153.050000 3703.938402 3705.968424 3708.990686 3709.964157 3713.461024 3722.778258
153.125000 3705.451139 3707.574242 3710.659289 3711.706083 3715.062109 3724.772072
153.200000 3707.284554 3709.536962 3712.279112 3713.502179 3716.912365 3727.395399
153.230000 3707.962897 3710.224785 3712.926624 3714.199450 3717.419653 3728.236246
153.350000 3710.362446 3712.744284 3715.753150 3717.022883 3720.302605 3732.450635
153.480000 3712.652372 3715.189474 3719.029831 3720.232532 3724.292581 3737.651706
153.500000 3713.188037 3715.684691 3719.527500 3720.749530 3724.809316 3738.218328
153.575000 3714.890657 3717.860619 3722.195685 3723.258486 3727.717521 3740.681548
153.650000 3717.337774 3720.152485 3724.912118 3726.096287 3731.098726 3743.949822
153.785000 3719.909834 3724.763023 3731.341925 3732.939664 3741.103670 3753.327759
153.920000 3722.792423 3729.133758 3739.117056 3740.228073 3751.487736 3763.501872
154.055000 3725.394495 3733.834893 3746.629835 3747.118396 3760.704519 3772.806872
154.190000 3727.990362 3738.727004 3754.163185 3754.395948 3769.272166 3782.790762
154.325000 3730.634655 3743.008244 3762.494988 3761.653557 3778.377019 3792.220809
154.460000 3732.513671 3746.759458 3770.201387 3768.684452 3788.099298 3802.138846
154.595000 3734.865622 3751.381043 3778.424179 3776.150375 3798.319212 3813.024869
154.730000 3737.135173 3757.222720 3786.927085 3783.502655 3807.085136 3820.580297
154.865000 3739.073546 3763.287651 3793.927503 3790.399219 3816.760328 3827.900204
155.000000 3741.753792 3769.952180 3800.956672 3797.295046 3825.288063 3834.958913
155.100000 3743.522588 3773.339602 3806.756190 3801.534962 3830.198994 3839.440459
155.200000 3745.118176 3777.137587 3811.917903 3805.703562 3834.624210 3843.585145
155.300000 3746.488217 3780.626406 3815.920926 3809.458369 3839.440331 3846.443114
155.400000 3747.896185 3784.521596 3820.736658 3813.202109 3842.767945 3848.721807
155.500000 3749.904626 3787.680868 3825.244243 3816.763757 3845.900115 3851.991036
155.600000 3751.714031 3790.784258 3828.810148 3819.947340 3848.338908 3853.900866
155.700000 3753.657549 3794.513985 3833.731615 3823.182633 3850.721295 3855.933552
155.800000 3755.621696 3797.196876 3837.934940 3826.358629 3852.937492 3858.392618
155.900000 3757.732335 3800.960847 3842.134484 3829.520909 3854.974810 3860.544222
156.000000 3759.662907 3804.043805 3846.143594 3832.568306 3856.880312 3862.281394
156.100000 3762.137520 3807.035220 3849.690998 3835.566196 3859.056342 3864.402000
156.200000 3764.856837 3810.416062 3853.187831 3838.635906 3861.229144 3866.184192
156.300000 3766.995947 3813.485044 3856.669851 3841.528347 3863.158033 3868.560055
156.400000 3768.514071 3817.560903 3859.428018 3844.310268 3865.192297 3870.626838
156.500000 3770.292038 3819.798524 3862.050194 3847.123733 3867.409948 3873.354866
156.600000 3771.927736 3822.818818 3864.212307 3849.794520 3869.289174 3875.165245
156.700000 3773.971897 3825.640913 3866.371503 3852.419480 3871.397919 3877.546545
156.800000 3775.577181 3828.277883 3868.408453 3854.958448 3873.476545 3879.652740
156.900000 3777.930505 3830.558467 3870.520983 3857.371892 3875.447461 3881.741320
157.000000 3780.408677 3832.506184 3872.693945 3859.911806 3877.713017 3883.922864
157.100000 3782.949143 3834.626170 3874.806580 3862.500916 3880.126991 3887.089777
157.200000 3785.529447 3837.764351 3876.978359 3865.091383 3882.819953 3889.991084
157.300000 3787.710911 3840.683012 3879.135755 3867.699298 3885.666371 3892.900104
157.400000 3790.387516 3843.247000 3881.453410 3870.259726 3888.230878 3894.974566
157.500000 3794.922755 3846.231176 3883.572138 3872.907862 3890.930267 3897.208318
157.600000 3797.920595 3849.231485 3885.927402 3875.521808 3893.187382 3899.782791
157.700000 3801.410660 3852.947476 3888.044755 3878.117878 3895.712823 3902.096435
157.800000 3806.216160 3855.740624 3890.213424 3880.640300 3898.372590 3904.290269
157.900000 3811.965098 3859.209935 3892.549548 3883.268124 3900.550907 3906.278668
158.000000 3815.811421 3863.998632 3894.874367 3885.851229 3902.593750 3908.358542
158.100000 3817.951871 3867.808979 3897.311218 3888.244527 3904.756652 3910.437337
158.200000 3823.626796 3870.843941 3899.594509 3890.799964 3906.832227 3912.038286
158.300000 3826.518806 3875.588540 3901.990877 3893.299887 3908.990861 3913.730352
158.400000 3828.059756 3879.531601 3904.408080 3895.804530 3911.055041 3915.366667
158.500000 3833.465718 3883.423655 3906.562357 3898.272936 3912.863865 3917.219218
158.600000 3836.858461 3887.247113 3908.649128 3900.761528 3914.985401 3919.332299
158.700000 3842.048108 3891.120125 3910.786545 3903.292704 3916.971878 3921.436050
158.800000 3847.649030 3895.187125 3912.916481 3905.804233 3918.781374 3923.296624
158.900000 3850.601687 3899.004839 3915.270813 3908.243937 3920.961776 3925.551622
159.040000 3858.445229 3904.056538 3918.064438 3911.609773 3923.127313 3928.354272
159.180000 3865.513896 3908.060274 3920.876283 3914.977691 3925.875981 3930.866455
159.295000 3870.191377 3910.715103 3923.579515 3917.814633 3928.220443 3933.765513
159.410000 3873.814767 3913.965972 3925.941459 3920.570336 3930.608158 3936.180386
159.525000 3876.702832 3916.927057 3928.411392 3923.482191 3933.177712 3939.401757
159.640000 3880.896171 3919.951843 3930.762543 3926.309079 3935.699260 3942.009298
159.760000 3884.353580 3923.642722 3933.507717 3929.462012 3938.691252 3945.681158
159.840000 3885.638616 3925.677524 3935.383494 3931.591872 3940.610935 3947.846545
159.920000 3887.272645 3928.015423 3937.187071 3933.667843 3942.707468 3949.791782
159.995000 3888.769772 3930.026324 3938.882317 3935.605899 3944.440511 3951.573970
160.070000 3892.429412 3931.987118 3940.574888 3937.550783 3946.240937 3953.082842
160.200000 3895.201520 3935.607361 3943.512747 3940.816987 3949.274086 3955.941267
160.340000 3899.144328 3939.015279 3946.787067 3944.350129 3953.094686 3959.531751
160.415000 3902.575452 3940.735074 3948.710460 3946.277389 3955.308122 3960.747429
160.490000 3904.090990 3943.046518 3950.539857 3948.283196 3957.495259 3962.925341
160.565000 3905.281870 3944.985646 3952.559732 3950.321133 3959.569655 3964.583010
160.640000 3906.489829 3947.158660 3954.588641 3952.322355 3961.378927 3967.437275
160.750000 3907.860458 3950.643820 3957.581788 3955.408544 3963.793632 3970.093878
160.845000 3909.874726 3953.365127 3960.261089 3958.051157 3966.176919 3971.964217
160.940000 3911.548707 3956.244913 3962.985044 3960.847315 3968.412630 3974.990826
161.040000 3913.348871 3959.864040 3966.240306 3964.392611 3971.609227 3978.016410
161.140000 3915.343319 3964.116298 3970.200348 3968.418899 3975.744198 3981.568900
161.260000 3917.736920 3970.666491 3976.650172 3974.783246 3982.496793 3987.186318
161.340000 3919.755798 3976.200067 3982.550431 3980.211242 3987.353984 3991.351564
161.420000 3921.883579 3983.666994 3988.023428 3985.548671 3991.401640 3995.198332
161.495000 3925.529555 3987.218146 3991.139358 3988.773167 3994.479023 3997.584328
161.570000 3927.118316 3990.746565 3993.967948 3991.854834 3997.442522 4000.449058
161.645000 3935.579628 3993.622259 3997.083640 3994.928115 4000.554709 4003.740449
161.720000 3938.301844 3996.629759 4000.427843 3998.086982 4003.769892 4006.938890
161.795000 3941.223504 3999.698704 4003.726303 4001.322513 4007.041690 4010.087848
161.870000 3944.603985 4003.064160 4006.907380 4004.474810 4010.055867 4012.978093
161.970000 3949.978398 4006.504503 4010.296233 4007.802463 4013.140756 4016.179531
162.055000 3954.931810 4008.800069 4012.618320 4010.274357 4015.666739 4018.701601
162.140000 3958.993660 4011.228005 4014.826734 4012.580976 4017.916605 4020.621744
162.270000 3967.172058 4014.199413 4017.852186 4015.633445 4020.825999 4023.290775
162.355000 3971.386174 4016.053323 4019.858319 4017.624772 4022.611890 4025.304873
162.440000 3975.335301 4017.994228 4021.716402 4019.688928 4024.492483 4027.123582
162.550000 3981.647505 4020.692570 4024.322768 4022.296082 4026.999171 4030.237794
162.640000 3984.891131 4022.649529 4026.210878 4024.312646 4029.009211 4032.392846
162.760000 3990.902329 4024.964249 4028.515279 4026.874517 4031.239075 4035.585867
162.840000 3993.696587 4026.790029 4030.234600 4028.635371 4032.899214 4037.299912
162.920000 3994.792257 4028.449589 4031.836914 4030.389738 4034.578227 4039.655756
162.995000 3996.023008 4030.219382 4033.456970 4032.083365 4036.218700 4041.212428
163.070000 3998.935281 4032.006061 4035.114640 4033.838756 4037.846087 4043.159907
163.150000 4000.036837 4033.792208 4036.982122 4035.701827 4039.837864 4044.791000
163.230000 4001.404465 4035.733995 4038.658055 4037.573132 4041.562586 4046.592811
163.360000 4006.058968 4038.413596 4041.386650 4040.408803 4044.650253 4049.343452
163.450000 4008.769845 4040.367353 4043.452421 4042.595109 4047.225407 4051.919768
163.545000 4022.126263 4042.661388 4045.912934 4045.154787 4050.240556 4055.388480
163.640000 4027.408718 4044.952312 4048.432285 4047.754757 4052.971766 4058.905137
163.770000 4033.020584 4047.786646 4051.605519 4051.144024 4056.730439 4063.527745
163.855000 4038.464589 4049.763360 4053.743946 4053.298788 4058.818996 4066.948765
163.940000 4040.799879 4051.712111 4055.969173 4055.509001 4060.935183 4069.662952
164.050000 4045.692023 4054.435495 4058.851338 4058.355939 4064.076204 4072.626276
164.160000 4047.265000 4057.163542 4061.752354 4061.262304 4066.837076 4075.644719
164.250000 4050.270382 4059.151142 4064.175959 4063.699711 4069.983264 4078.465386
164.380000 4054.934811 4062.399045 4067.722360 4067.203468 4073.436494 4083.065725
164.510000 4058.371670 4065.797428 4071.374109 4070.904511 4077.368459 4086.935382
164.640000 4060.702885 4069.149047 4074.864075 4074.618636 4081.586065 4090.790720
164.720000 4062.924099 4071.661777 4077.450140 4077.042146 4084.377211 4092.502405
164.850000 4065.568964 4075.514766 4081.365619 4080.933188 4088.451110 4095.740949
164.935000 4068.229458 4078.035350 4084.116499 4083.663125 4091.450717 4097.641732
165.020000 4070.655102 4080.384980 4086.894348 4086.258831 4093.927203 4099.829677
165.150000 4075.064572 4085.065902 4091.626132 4090.616585 4098.050949 4103.061356
165.280000 4079.421943 4089.724739 4096.359656 4095.269100 4102.564152 4106.935208
165.365000 4083.203289 4092.650499 4099.460309 4098.138728 4104.883695 4108.995702
165.450000 4085.434330 4095.383254 4102.206903 4100.822220 4107.178078 4111.297034
165.560000 4088.628311 4099.140355 4105.408365 4104.026763 4110.233673 4114.979746
165.660000 4091.142292 4101.977753 4108.177411 4106.720700 4112.566665 4117.858572
165.750000 4093.133323 4104.174863 4110.391186 4109.118217 4114.919470 4120.903275
165.880000 4096.080416 4107.900594 4113.537267 4112.359282 4118.103989 4124.334374
166.010000 4100.346389 4111.233447 4116.527149 4115.575093 4121.358023 4127.273967
166.140000 4105.921580 4114.658653 4119.614220 4118.817283 4124.487837 4131.222616
166.230000 4108.980957 4117.144575 4121.882022 4121.289877 4127.293853 4133.585312
166.350000 4112.422994 4120.641579 4125.164585 4124.717375 4130.885870 4136.991749
166.435000 4114.670075 4123.042257 4127.737113 4127.299213 4133.561336 4139.690355
166.520000 4116.687373 4125.356964 4130.297048 4129.847880 4136.503160 4141.605754
166.650000 4121.011528 4129.263507 4134.604343 4133.877568 4140.336588 4145.124499
166.780000 4125.266905 4133.176227 4138.911752 4137.839373 4143.951123 4148.353484
