depth(m) lower_95(kyr) lower_68(kyr) median(kyr) mean(kyr) upper_68(kyr) upper_95(kyr)
169.840000 3502.547274 3506.772443 3511.736149 3511.309723 3515.734081 3518.378257
169.910000 3503.743296 3507.670920 3512.660156 3512.195682 3516.412166 3519.025967
170.040000 3505.871506 3509.374463 3514.272059 3513.725989 3517.679496 3520.111612
170.115000 3506.910477 3510.204547 3515.085840 3514.530986 3518.400936 3520.708701
170.190000 3507.751913 3511.021099 3515.884082 3515.289133 3519.027045 3521.434547
170.260000 3508.422516 3511.710416 3516.582542 3515.956490 3519.603184 3522.028965
170.340000 3509.173138 3512.581763 3517.252742 3516.686846 3520.293261 3522.788268
170.420000 3510.126086 3513.350665 3517.983781 3517.392790 3520.978454 3523.253368
170.562143 3511.365112 3514.557271 3518.999095 3518.469433 3521.971440 3524.405791
170.704286 3512.706732 3515.785276 3519.973986 3519.530551 3522.884130 3525.462107
170.846429 3513.794541 3516.802297 3520.959216 3520.597439 3523.841320 3526.259463
170.988571 3515.154528 3518.057063 3522.131694 3521.657776 3524.844244 3527.135966
171.130714 3516.402331 3519.307114 3523.128087 3522.701439 3525.776826 3527.902480
171.272857 3517.611161 3520.498568 3524.140137 3523.772333 3526.781953 3528.969460
171.415000 3518.734555 3521.693290 3525.130514 3524.826317 3527.818694 3530.116737
171.557143 3519.918352 3522.871036 3526.250504 3525.911108 3528.827328 3530.963363
171.699286 3521.356947 3523.980671 3527.230611 3527.003550 3529.873348 3532.065953
171.841429 3522.544051 3525.230906 3528.285711 3528.100295 3530.815538 3532.933566
171.983571 3523.827563 3526.468820 3529.388215 3529.234723 3531.831920 3534.032935
172.125714 3525.208772 3527.627397 3530.468252 3530.349927 3532.968537 3535.059416
172.267857 3526.319785 3528.854390 3531.620770 3531.505959 3534.029551 3536.066010
172.410000 3527.877772 3530.099536 3532.747040 3532.681217 3535.178049 3537.104594
172.530000 3529.091772 3531.282660 3533.713638 3533.719511 3536.169352 3538.094150
172.660000 3530.507826 3532.662049 3534.868872 3534.911538 3537.361029 3539.129997
172.760000 3531.532528 3533.603647 3535.867083 3535.924936 3538.376066 3540.128660
172.870000 3532.872634 3534.822498 3537.091151 3537.115874 3539.540869 3541.433630
172.960000 3533.986042 3536.008264 3538.189482 3538.230500 3540.506500 3542.452400
173.045000 3535.248596 3537.244670 3539.451611 3539.436708 3541.634472 3543.431881
173.130000 3536.409630 3538.519551 3540.738987 3540.654775 3542.761627 3544.464059
173.220000 3537.736407 3539.693125 3542.032400 3541.915801 3543.939874 3545.591679
173.340000 3539.452824 3541.598172 3543.687237 3543.540607 3545.431960 3547.007546
173.460000 3541.140826 3543.360175 3545.369253 3545.281118 3547.176449 3548.731002
173.540000 3542.192052 3544.790938 3546.776025 3546.649551 3548.471749 3550.359471
173.620000 3543.876530 3546.302937 3548.061935 3548.022603 3549.744142 3551.747576
173.740000 3546.673443 3548.322889 3549.922173 3549.990554 3551.721629 3554.098885
173.870000 3548.434303 3550.094539 3551.690725 3551.842319 3553.617159 3555.825397
173.960000 3549.448561 3551.178706 3552.785910 3553.013622 3555.053992 3557.137209
174.100000 3550.855436 3552.692165 3554.435843 3554.682743 3556.837783 3559.405052
174.240000 3552.260247 3554.175927 3556.115202 3556.358603 3558.710407 3561.494706
174.350000 3553.381914 3555.403160 3557.568743 3557.698578 3560.150084 3562.958401
174.480000 3554.839497 3556.848225 3559.272906 3559.356855 3561.883031 3564.862630
174.570000 3555.981045 3558.173806 3560.675732 3560.775942 3563.359121 3566.281800
174.700000 3558.019502 3560.270699 3563.085947 3563.122008 3565.731646 3569.050318
174.840000 3560.290645 3562.969236 3566.155625 3566.152965 3569.284882 3572.283814
174.950000 3562.414744 3564.962618 3568.104912 3568.222551 3571.500980 3574.678237
175.025000 3563.508047 3566.270859 3569.307356 3569.440650 3572.932229 3575.805112
175.100000 3564.917205 3567.431687 3570.592437 3570.705704 3574.065912 3577.072756
175.230000 3566.797740 3569.683534 3572.941747 3572.923919 3576.091474 3578.958570
175.370000 3569.147090 3572.125900 3575.476027 3575.385187 3578.565497 3581.945490
175.510000 3571.360392 3574.598608 3577.831053 3577.762929 3580.872836 3583.829962
175.620000 3573.602648 3576.698995 3579.769135 3579.678309 3582.738107 3585.365141
175.730000 3575.899081 3578.616788 3581.648452 3581.576983 3584.459750 3587.089100
175.860000 3578.009168 3580.916934 3583.834443 3583.800050 3586.643746 3588.980671
175.960000 3579.899817 3582.563337 3585.569797 3585.458100 3588.364241 3590.587602
176.060000 3581.357849 3584.238693 3587.057213 3587.151021 3590.161793 3592.974185
176.200000 3583.646942 3586.578110 3589.479196 3589.549573 3592.531256 3595.486696
176.290000 3585.386339 3588.012183 3591.096558 3591.201039 3594.166333 3597.901726
176.420000 3587.583749 3590.713646 3593.779880 3593.922964 3597.249028 3601.363851
176.495000 3588.986907 3592.202967 3595.417964 3595.594644 3599.102902 3603.129057
176.570000 3590.490076 3593.719332 3597.041614 3597.275476 3600.720431 3605.202288
176.645000 3592.096942 3595.223581 3598.551017 3598.793927 3602.416974 3606.604551
176.720000 3593.432983 3596.787362 3600.035362 3600.333308 3604.156530 3607.852790
176.800000 3595.261888 3598.225979 3601.905519 3601.974256 3605.860071 3609.583221
176.910000 3597.392205 3600.738132 3604.347008 3604.469445 3608.329948 3611.975050
176.990000 3599.089159 3602.417749 3606.140857 3606.255614 3610.087790 3613.485128
177.100000 3601.310559 3605.165818 3609.141239 3608.959701 3612.619111 3615.498889
177.230000 3605.015226 3609.177247 3612.829263 3612.552617 3615.744191 3618.495292
177.305000 3606.784987 3611.245131 3614.713495 3614.375626 3617.560062 3620.020357
177.380000 3608.607691 3613.211875 3616.424828 3616.155608 3619.369497 3621.873364
177.465000 3610.881731 3615.001662 3618.150054 3617.904690 3620.884131 3623.783877
177.550000 3613.418749 3616.990928 3619.691650 3619.616937 3622.363577 3625.172555
177.625000 3614.624455 3618.451996 3620.961461 3620.966480 3623.781444 3626.448629
177.700000 3616.364045 3619.775627 3622.288101 3622.358721 3625.228414 3627.952378
177.780000 3618.056972 3621.108381 3623.741251 3623.836678 3626.737167 3629.680126
177.860000 3619.455011 3622.367927 3625.309909 3625.296504 3628.264664 3631.051460
177.972500 3621.079527 3624.237112 3627.337127 3627.267870 3630.300305 3633.110310
178.085000 3622.778700 3626.101366 3629.320571 3629.168278 3632.192096 3634.888362
178.197500 3624.521549 3627.957540 3631.284523 3631.145207 3634.246617 3636.953168
178.310000 3626.410019 3630.133486 3633.430271 3633.175077 3636.123416 3638.953499
178.430000 3628.545789 3632.546857 3635.716707 3635.596357 3638.456796 3642.159273
178.550000 3630.370201 3635.033832 3638.205870 3638.070605 3641.218259 3644.481665
178.695000 3633.390188 3637.553622 3641.089714 3641.079732 3644.776762 3648.328505
178.840000 3636.033790 3640.166054 3644.186421 3644.124933 3648.046935 3651.405937
178.985000 3638.653963 3643.020084 3647.337230 3647.111213 3651.023820 3654.423008
179.130000 3641.916519 3645.995098 3650.268402 3650.062775 3654.087629 3656.986939
179.275000 3644.558645 3649.553461 3653.399323 3653.213021 3656.728205 3660.103908
179.420000 3648.818299 3653.037340 3656.452359 3656.345001 3659.763850 3663.138943
179.526667 3651.409869 3655.508707 3658.852762 3658.725094 3662.183842 3665.396828
179.633333 3653.913134 3657.863107 3661.127135 3661.038456 3664.350688 3667.093642
179.740000 3657.101893 3660.340827 3663.291848 3663.263515 3666.420403 3669.066954
179.840000 3659.028537 3662.083610 3665.204316 3665.131995 3668.252230 3670.638335
179.940000 3661.069995 3663.939806 3667.099335 3666.944831 3669.802037 3672.279384
180.040000 3662.999704 3665.948189 3668.963086 3668.742792 3671.536558 3673.720462
180.160000 3664.826004 3668.324953 3671.260699 3671.042350 3673.890142 3676.154234
180.280000 3666.742763 3670.929201 3673.723457 3673.478302 3675.985027 3678.722029
180.360000 3668.899542 3672.495134 3675.569218 3675.245369 3677.974305 3681.469844
180.440000 3670.215929 3674.307189 3677.202200 3677.001969 3679.861134 3683.551612
180.573636 3672.367847 3676.820814 3680.099547 3680.251355 3683.880075 3688.957748
180.707273 3675.198687 3679.304518 3683.100650 3683.429282 3687.857443 3693.588462
180.840909 3677.265528 3681.887292 3686.483499 3686.706854 3691.470837 3699.008733
180.974545 3679.542670 3684.478970 3689.492896 3689.816502 3694.978878 3702.664972
181.108182 3682.405896 3687.330510 3692.640896 3693.070324 3698.463935 3707.304763
181.241818 3684.991545 3690.405851 3695.636198 3696.120214 3701.855695 3710.781131
181.375455 3687.365307 3693.208568 3698.450318 3699.155346 3704.973240 3715.720176
181.509091 3690.300125 3696.163918 3701.663318 3702.256615 3707.915078 3720.013788
181.642727 3693.655412 3699.412218 3704.709292 3705.376116 3710.999401 3723.162324
181.776364 3697.017695 3702.826038 3707.660203 3708.552437 3713.899556 3726.793772
181.910000 3701.073025 3706.028459 3710.688061 3711.663777 3717.140046 3730.301893
182.010000 3703.448929 3707.913982 3712.678812 3713.695301 3719.325453 3732.951914
182.110000 3705.506096 3709.704466 3714.354140 3715.623562 3721.690283 3735.409696
182.210000 3707.369362 3711.299858 3715.954751 3717.564713 3724.012654 3738.129182
182.340000 3709.187148 3713.278550 3718.455559 3720.170888 3727.729396 3741.065740
182.470000 3711.482346 3715.128955 3720.887613 3722.775432 3731.579890 3743.665944
182.598750 3713.157331 3716.973761 3723.481144 3725.317519 3735.123039 3746.665261
182.727500 3714.527509 3719.069808 3725.907090 3727.933083 3738.525926 3748.953533
182.856250 3716.494392 3721.091301 3728.406198 3730.571511 3741.944560 3752.230871
182.985000 3718.442037 3723.041964 3731.315828 3733.246848 3745.133590 3754.171206
183.113750 3719.922874 3724.825847 3733.516229 3735.846012 3748.740382 3756.765881
183.242500 3721.805401 3726.910996 3736.029977 3738.539870 3751.854022 3760.018766
183.371250 3723.335556 3728.672422 3738.285431 3741.213034 3755.407857 3762.900706
183.500000 3724.952240 3730.226709 3740.425351 3743.905235 3759.149757 3765.253481
183.620000 3726.791735 3732.005361 3742.167626 3746.300958 3762.292508 3768.213329
183.740000 3728.624076 3734.003865 3744.341864 3748.635401 3765.068376 3770.428727
183.860000 3729.846190 3736.030724 3747.131616 3750.998861 3767.994997 3772.622324
183.960000 3731.136316 3737.827710 3748.473730 3752.810374 3769.927437 3774.773008
184.060000 3732.779799 3739.576857 3749.930376 3754.676937 3771.865072 3776.251268
184.160000 3734.245301 3741.076248 3751.775348 3756.458356 3773.705874 3777.823750
184.260000 3735.524462 3742.707408 3754.240270 3758.299221 3775.616476 3779.245077
184.360000 3736.793245 3744.284292 3756.503127 3760.015627 3776.975341 3781.130935
184.460000 3738.377047 3746.257880 3758.639625 3761.758438 3778.452967 3782.977961
184.590000 3739.908552 3748.167476 3761.604930 3763.950784 3780.079817 3784.709337
184.720000 3741.502394 3750.298035 3765.764020 3766.092212 3781.385790 3786.417104
184.843333 3742.820145 3752.330894 3768.999073 3768.190623 3783.149392 3788.623840
184.966667 3744.392567 3754.107616 3772.264429 3770.232764 3784.559124 3790.188027
185.090000 3746.051826 3755.940441 3775.419416 3772.211678 3785.976886 3792.352464
185.190000 3747.045111 3757.211705 3777.491599 3773.862641 3787.035870 3793.937870
185.290000 3748.283100 3758.688851 3779.950134 3775.512457 3788.402049 3795.242840
185.390000 3749.663276 3760.598245 3781.432597 3777.092564 3789.684160 3796.487692
185.490000 3751.131976 3762.199878 3783.420197 3778.725905 3791.005144 3797.773738
185.590000 3752.239280 3763.669359 3785.150855 3780.377403 3792.210077 3798.947603
185.690000 3753.520020 3765.191480 3786.861424 3782.039407 3793.449717 3800.211100
185.790000 3755.322262 3767.534500 3788.244003 3783.618409 3794.617646 3801.507529
185.890000 3756.329859 3769.663993 3789.504410 3785.170311 3795.879444 3802.662480
185.990000 3757.713468 3771.925548 3790.820776 3786.686282 3797.050843 3804.026398
186.105000 3759.588224 3774.223266 3792.124909 3788.405588 3798.475692 3805.340456
186.220000 3761.573659 3777.104291 3793.606056 3790.157392 3799.921820 3806.585770
186.320000 3762.955285 3779.383144 3794.827739 3791.623571 3801.061838 3807.915110
186.420000 3764.821835 3781.079520 3795.939636 3793.096166 3802.256285 3809.165695
186.520000 3766.324460 3783.452245 3797.106847 3794.517495 3803.516342 3810.276341
186.633333 3768.463949 3785.277790 3798.568290 3796.150184 3805.287248 3811.750012
186.746667 3770.153992 3786.853164 3800.227379 3797.808035 3807.038601 3813.112536
186.860000 3772.904490 3788.964074 3801.615224 3799.484667 3808.666550 3814.279874
186.980000 3775.335202 3791.114582 3803.178205 3801.212859 3810.395100 3815.328899
187.100000 3777.500258 3792.549942 3804.910227 3802.887856 3811.919555 3816.579010
187.200000 3779.478460 3794.095215 3806.042811 3804.242973 3813.368228 3817.532850
187.300000 3782.333616 3795.580806 3807.315755 3805.571542 3814.709523 3819.100752
187.400000 3784.262371 3797.171083 3808.455614 3806.871207 3815.880673 3820.346537
187.510000 3785.716993 3798.267851 3809.616546 3808.332483 3817.421141 3821.721635
187.640000 3787.251219 3800.290354 3811.011276 3809.930245 3818.987121 3823.569068
187.770000 3788.820017 3802.486069 3812.421059 3811.560916 3820.751743 3825.341329
187.900000 3790.654395 3805.476224 3813.984142 3813.256440 3822.194751 3827.233073
188.000000 3791.934569 3806.997807 3815.099283 3814.564844 3823.320413 3828.755489
188.100000 3793.476382 3808.451945 3816.589750 3815.843136 3824.428044 3830.213826
188.200000 3794.246085 3809.726883 3817.865687 3817.105799 3825.610380 3831.708369
188.340000 3796.320594 3811.248850 3819.883543 3818.917806 3827.393307 3833.730352
188.480000 3798.775397 3812.746999 3821.696731 3820.705680 3829.181714 3835.210638
188.600000 3800.582170 3814.197346 3823.215962 3822.229151 3830.902454 3836.821343
188.720000 3802.952400 3815.469310 3824.777905 3823.774624 3832.589759 3838.558836
188.820000 3804.015476 3816.387910 3826.343339 3825.084118 3833.744444 3840.053747
188.920000 3805.644450 3817.617092 3827.721324 3826.428921 3835.305254 3841.138056
189.020000 3806.797629 3819.292800 3829.149607 3827.761237 3836.669688 3842.446081
189.130000 3808.751360 3820.819970 3830.838282 3829.225211 3837.854905 3843.706344
189.240000 3810.326576 3822.158974 3832.577995 3830.744218 3839.452224 3845.260149
189.350000 3811.685092 3823.467451 3834.073507 3832.168464 3840.722769 3846.759980
189.485000 3813.386632 3825.031843 3835.824584 3833.870320 3842.455049 3848.760976
189.620000 3815.428412 3827.088619 3837.316715 3835.648251 3844.249498 3850.774520
189.720000 3816.944454 3828.490987 3838.601571 3836.948388 3845.326153 3852.023690
189.820000 3818.286147 3829.752967 3839.886379 3838.261987 3846.354753 3853.318685
189.920000 3819.727231 3831.173094 3840.901965 3839.601011 3847.605440 3854.651888
190.020000 3820.996450 3832.614322 3842.156979 3840.863973 3848.902102 3855.867219
190.120000 3822.467056 3834.341339 3843.506969 3842.190330 3850.039182 3856.896799
190.220000 3824.094857 3835.615322 3844.674938 3843.519306 3851.117441 3858.162229
190.320000 3825.513252 3837.304630 3845.826217 3844.799607 3852.340653 3859.986896
190.420000 3827.159546 3838.769685 3847.041035 3846.134573 3853.567403 3860.925122
190.520000 3828.465248 3840.307439 3848.150851 3847.463072 3854.742164 3862.299088
190.620000 3829.771735 3841.700181 3849.314774 3848.768508 3855.913600 3863.147676
190.720000 3831.614251 3842.935370 3850.434217 3850.124225 3857.109824 3865.139225
190.820000 3833.026352 3844.257713 3851.708710 3851.379903 3858.392913 3866.260102
190.946667 3835.985355 3845.821804 3853.285789 3852.955644 3859.864998 3867.500668
191.073333 3838.004888 3847.514533 3854.718083 3854.587167 3861.481847 3869.548333
191.200000 3840.387729 3849.072067 3856.293359 3856.191456 3862.899607 3871.248156
191.326667 3842.066657 3850.636294 3857.918779 3857.801612 3864.458656 3872.913689
191.453333 3843.630081 3852.474811 3859.384475 3859.459976 3866.026792 3874.896867
191.580000 3845.394333 3854.490453 3860.836694 3861.117256 3867.748709 3876.857815
191.655000 3846.135281 3855.327486 3861.853400 3862.127432 3869.023716 3877.770866
191.730000 3846.790474 3856.288686 3862.932028 3863.166664 3870.053369 3879.216550
191.820000 3848.816393 3857.640663 3864.380763 3864.493907 3871.201443 3880.298495
191.920000 3850.653839 3859.545661 3865.800029 3866.024812 3872.641388 3881.485749
192.020000 3851.705968 3861.361540 3867.518725 3867.631497 3874.305446 3883.275648
192.120000 3853.213453 3862.789567 3869.077879 3869.122250 3875.634910 3884.387824
192.220000 3854.776022 3864.204421 3870.568212 3870.620749 3877.013158 3885.580427
192.320000 3856.052464 3865.998354 3872.217678 3872.196726 3878.751128 3886.443414
192.426667 3856.948164 3867.597392 3873.932546 3873.777454 3880.412866 3887.680945
192.533333 3858.087034 3869.405482 3875.602893 3875.410973 3881.858944 3888.828588
192.640000 3859.985058 3871.002826 3877.241691 3877.028044 3883.426497 3890.800619
192.750000 3861.793412 3872.654218 3878.813887 3878.587496 3884.999419 3892.479149
192.860000 3863.692416 3873.914476 3880.355533 3880.122679 3886.483206 3894.219753
192.976667 3865.772566 3875.403166 3881.874221 3881.720516 3888.425931 3896.055492
193.093333 3867.587233 3876.680260 3883.280723 3883.225852 3889.839956 3897.201200
193.210000 3869.809691 3878.002309 3884.515341 3884.699966 3891.354416 3899.432117
193.310000 3871.530238 3879.287377 3885.864446 3885.987040 3892.468138 3900.516549
193.410000 3872.794091 3880.485039 3887.102025 3887.264273 3893.817421 3902.411651
193.510000 3874.723947 3881.666271 3888.496741 3888.559776 3895.133380 3904.080340
193.610000 3876.264181 3883.056947 3889.774999 3889.873127 3896.286168 3906.094460
193.710000 3877.692938 3884.280614 3891.303905 3891.196732 3897.389721 3907.490402
193.810000 3879.038502 3885.456433 3892.597128 3892.566017 3898.785245 3908.525167
193.910000 3880.376800 3886.775967 3893.613011 3893.863695 3900.055644 3909.993026
194.010000 3882.667955 3887.952780 3894.777674 3895.208465 3901.480725 3911.067382
194.110000 3884.461871 3889.288928 3896.277803 3896.531180 3902.888398 3912.418246
194.230000 3886.057666 3890.856192 3897.867058 3898.144606 3904.408488 3913.842623
194.350000 3887.289766 3892.444298 3899.595211 3899.718350 3905.805261 3917.125535
194.495000 3889.123176 3894.620860 3901.452563 3901.625999 3907.813639 3918.689503
194.640000 3891.020733 3896.813069 3903.388114 3903.594608 3909.722458 3920.691565
194.746667 3892.331565 3898.236577 3904.796322 3905.076142 3911.317283 3922.595628
194.853333 3894.089413 3899.672160 3906.039555 3906.531560 3912.752962 3924.613705
194.960000 3895.516386 3901.240304 3907.390481 3908.081369 3914.472864 3925.953044
195.060000 3897.123051 3902.817424 3908.878285 3909.492199 3916.033504 3926.918318
195.160000 3898.703513 3904.230597 3910.299551 3910.903047 3917.717407 3928.399838
195.260000 3900.127220 3905.771991 3911.559776 3912.401568 3919.228731 3929.626814
195.375000 3902.602521 3907.607628 3913.225972 3914.131540 3920.758775 3931.550593
195.490000 3904.744913 3909.657354 3915.291033 3915.947799 3922.410731 3932.934773
195.590000 3906.275335 3911.385934 3916.924037 3917.582541 3923.927036 3933.904977
195.690000 3907.941417 3913.058646 3918.613648 3919.236460 3925.205806 3935.196731
195.790000 3910.163177 3914.801911 3920.305261 3920.921058 3926.585151 3936.757914
195.890000 3912.133875 3916.838000 3922.181618 3922.670696 3928.084298 3938.305149
195.990000 3913.811842 3918.786863 3924.149087 3924.479595 3929.734641 3939.172098
196.090000 3915.552769 3921.040864 3926.122533 3926.317978 3931.375803 3940.239110
196.210000 3918.497092 3923.486608 3928.535950 3928.716954 3933.761076 3942.006456
196.330000 3921.327135 3926.146635 3930.855491 3931.005977 3935.699932 3942.859286
