depth(m) lower_95(kyr) lower_68(kyr) median(kyr) mean(kyr) upper_68(kyr) upper_95(kyr)
48.200000 636.194663 641.630621 646.307059 646.060018 650.408340 654.245880
48.300000 637.693583 643.145650 647.608237 647.362843 651.802962 655.445886
48.400000 638.999710 644.614261 648.874626 648.716914 652.900866 656.465913
48.500000 640.725345 646.091689 650.321773 650.137446 654.336375 657.825137
48.600000 642.300795 647.767681 651.719721 651.566973 655.674503 659.294866
48.700000 644.212062 649.469682 653.200282 653.072589 657.131783 660.728202
48.800000 645.899353 650.997211 654.603610 654.635647 658.552693 662.569324
48.900000 648.220118 652.441293 656.245183 656.301285 660.086650 664.038853
49.000000 649.858769 654.314690 658.017088 657.990148 661.722200 665.548577
49.100000 652.503654 656.229619 659.883512 659.826204 663.603383 667.373044
49.200000 654.799847 657.917829 661.665656 661.590829 665.314772 668.680569
49.300000 656.146498 659.632837 663.408503 663.322615 667.000089 670.284548
49.400000 657.650228 661.212684 665.101763 665.002549 668.695300 671.204860
49.500000 659.266195 663.066860 666.929513 666.682790 670.446464 672.740952
49.600000 660.893745 664.811902 668.614259 668.376615 671.843020 674.517331
49.700000 662.472176 666.405376 670.215448 669.934324 673.354919 675.987826
49.800000 663.967216 668.184443 671.734861 671.512309 674.844697 677.400970
49.900000 665.461704 669.961866 673.389781 673.117417 676.280921 678.828069
50.000000 667.002631 671.742386 675.019447 674.728300 677.822266 680.468596
50.100000 668.937175 673.453133 676.578138 676.337858 679.271064 681.855312
50.200000 671.313998 675.345539 678.182127 677.971476 680.741927 683.438990
50.300000 673.118973 677.040071 679.760880 679.571557 682.291949 684.778154
50.400000 674.637702 678.497814 681.256847 681.116866 683.901396 685.962981
50.500000 676.501750 680.199780 682.786925 682.594440 685.296410 687.324219
50.600000 678.159197 681.526406 684.311158 684.055905 686.691958 688.576519
50.700000 679.698059 683.129494 685.783164 685.582022 688.112864 689.927581
50.800000 681.405858 684.905150 687.400036 687.130706 689.488842 691.135670
50.900000 684.233727 687.187014 689.343342 689.133038 691.218911 693.112703
51.000000 687.192934 689.262564 691.305444 691.196811 693.131557 694.892802
51.100000 688.919508 691.114444 692.988192 693.033528 694.998827 696.881939
51.200000 690.740904 692.896678 694.619458 694.760080 696.804641 698.694776
51.300000 692.278200 694.285148 696.071878 696.212211 698.236562 700.473901
51.400000 693.950816 695.629113 697.498953 697.576269 699.579584 701.714433
51.500000 695.456604 697.068357 698.913030 698.965668 700.937987 702.775630
51.600000 696.908780 698.482879 700.275267 700.318909 702.209950 703.920226
51.700000 698.184347 699.805844 701.580664 701.592504 703.425375 705.173099
51.800000 699.316914 701.011814 702.801225 702.820320 704.655889 706.422993
51.900000 700.556212 702.228626 704.032870 704.049423 705.922617 707.428643
52.000000 701.859972 703.516881 705.324195 705.304535 707.103458 708.825118
52.100000 703.075452 704.931228 706.742821 706.676141 708.426454 710.223759
52.200000 704.529135 706.237836 708.015678 708.025260 709.737403 711.493198
52.300000 705.856134 707.707960 709.378594 709.415703 711.141849 712.898654
52.400000 707.370265 709.123185 710.788149 710.831208 712.589271 714.310446
52.500000 709.018973 710.576735 712.226820 712.328054 714.108357 716.051430
52.600000 710.253390 712.114390 713.774247 713.805945 715.524672 717.292292
52.700000 711.788435 713.557978 715.374181 715.323830 717.115843 718.655687
52.800000 713.410244 715.072286 716.852822 716.785817 718.481489 719.925649
52.900000 714.869583 716.727300 718.364596 718.303325 719.900215 721.191363
53.000000 716.483336 718.381140 719.878646 719.797678 721.279191 722.432128
53.100000 718.324157 719.993644 721.402385 721.309798 722.613769 723.795039
53.200000 720.024711 721.536343 722.843359 722.757316 723.948681 725.186836
53.300000 722.073941 723.060829 724.124504 724.155480 725.245551 726.345726
53.400000 723.322783 724.260373 725.307314 725.319253 726.435699 727.463058
53.500000 724.365240 725.335576 726.432281 726.395645 727.445064 728.489799
53.600000 725.296741 726.257181 727.415783 727.374982 728.363050 729.456051
53.700000 726.243904 727.280662 728.371630 728.319246 729.308854 730.248368
53.800000 727.177743 728.253967 729.287466 729.260857 730.240745 731.162826
53.900000 728.203986 729.263687 730.240156 730.208097 731.142807 731.988923
54.000000 729.167480 730.324957 731.290160 731.287803 732.204955 733.068622
54.100000 730.267404 731.452289 732.452568 732.441508 733.407059 734.454844
54.200000 731.310561 732.524395 733.668241 734.039091 735.303493 740.342905
54.300000 732.581341 733.661299 735.022716 735.678496 737.575923 743.291117
54.400000 733.906290 735.105478 736.986632 737.713733 740.636511 744.690614
54.500000 735.156780 736.683285 739.355264 739.714912 742.963417 746.206251
54.600000 736.537301 738.763101 741.763324 741.852632 745.013895 747.542771
54.700000 737.840227 740.953469 743.947197 743.863593 746.670854 748.942720
54.800000 739.687680 742.936703 745.856566 745.611220 748.203611 750.153365
54.900000 741.404702 744.650584 747.638625 747.197874 749.535696 751.245860
55.000000 742.820100 746.355504 749.306460 748.754266 750.877749 752.374511
55.100000 744.344766 748.134203 750.707219 750.225446 752.176370 753.555167
55.200000 745.605468 749.322795 751.730281 751.310234 753.313177 754.636017
55.300000 746.581207 750.411953 752.689838 752.331856 754.241023 755.772663
55.400000 747.714491 751.392510 753.667128 753.319643 755.319672 756.713566
55.500000 748.864208 752.216195 754.575279 754.268656 756.243475 757.628443
55.600000 750.073724 753.259759 755.505952 755.227558 757.160925 758.414685
55.700000 751.075791 754.286666 756.379103 756.172408 758.024337 759.272311
55.800000 752.394021 755.358309 757.361617 757.110597 758.897142 760.141507
55.900000 753.242686 756.398504 758.271290 758.045778 759.797863 761.000770
56.000000 754.394865 757.377751 759.191766 758.991864 760.728037 761.893032
56.100000 755.565991 758.384405 760.146789 759.973051 761.677061 762.859158
56.200000 757.165261 759.367500 761.094913 760.984713 762.602674 763.856127
56.300000 758.696120 760.543548 762.171260 762.094360 763.584741 764.960421
56.400000 760.212931 761.888869 763.338673 763.290194 764.705803 766.181098
56.500000 761.723777 763.113763 764.579594 764.530606 765.856652 767.422708
56.600000 763.037944 764.356033 765.645444 765.655952 766.930057 768.225523
56.700000 764.070321 765.393700 766.700125 766.728855 768.073782 769.223227
56.800000 765.230753 766.509197 767.773371 767.775771 769.029774 770.317699
56.900000 766.143022 767.634341 768.803819 768.791697 769.995085 771.296824
57.000000 767.311324 768.654003 769.740658 769.773486 770.990321 772.273213
57.100000 768.214724 769.525290 770.688399 770.709919 771.951811 773.172366
57.200000 769.186191 770.416248 771.609199 771.618610 772.864845 774.069706
57.300000 770.085341 771.348506 772.568888 772.550477 773.767529 774.833835
57.400000 771.056441 772.217760 773.519456 773.479890 774.718344 775.906615
57.500000 771.952307 773.129279 774.419011 774.389466 775.623221 776.734888
57.600000 772.814678 774.022643 775.296637 775.277839 776.568980 777.610328
57.700000 773.857252 774.939511 776.181134 776.184199 777.450555 778.509228
57.800000 774.807712 775.798646 777.084023 777.100472 778.376438 779.499836
57.900000 775.720739 776.794733 778.044454 778.056585 779.297343 780.545515
58.000000 776.754878 777.788071 779.034737 779.062477 780.290814 781.523451
58.100000 777.763613 778.891566 780.074948 780.083951 781.258530 782.591278
58.200000 778.778990 779.908805 781.116092 781.141663 782.317494 783.737725
58.300000 779.804221 780.954691 782.120925 782.159618 783.420011 784.699564
58.400000 780.813528 781.957316 783.148206 783.197186 784.466881 785.773601
58.500000 781.948624 782.983682 784.164756 784.211578 785.514585 786.656742
58.600000 782.891139 784.000153 785.165560 785.226027 786.538767 787.670454
58.700000 783.769766 785.021509 786.254294 786.261406 787.574468 788.644296
58.800000 784.954298 786.096474 787.357487 787.359890 788.655273 789.735600
58.900000 785.968828 787.319500 788.556205 788.573947 789.827587 791.022463
59.000000 787.147639 788.574041 789.857216 789.829958 791.107551 792.367702
59.100000 788.521481 789.843138 791.204835 791.160856 792.463823 793.654028
59.200000 789.943308 791.265196 792.587684 792.545397 793.826896 794.881301
59.300000 791.559047 792.856527 794.056226 794.047289 795.344260 796.350170
59.400000 793.223321 794.371965 795.548344 795.506762 796.655805 797.780426
59.500000 794.468011 795.543146 796.714813 796.680798 797.850088 798.961278
59.600000 795.619602 796.655532 797.776873 797.789455 798.892909 800.200249
59.700000 796.499054 797.664828 798.797439 798.815354 799.956618 801.418009
59.800000 797.573908 798.620577 799.734859 799.779704 800.879733 802.349414
59.900000 798.436629 799.527488 800.582013 800.693712 801.813165 803.519757
60.000000 799.348333 800.427053 801.497079 801.594914 802.660999 804.489918
60.100000 800.214280 801.247522 802.425200 802.505442 803.581029 805.454598
60.200000 801.187106 802.166763 803.358638 803.418940 804.545729 806.419786
60.300000 802.001264 803.104038 804.228518 804.346419 805.517320 807.484542
60.400000 802.929173 803.957949 805.183025 805.288943 806.561706 808.392688
60.500000 803.853624 804.895086 806.081557 806.234851 807.610836 809.517810
60.600000 804.642140 805.756218 807.020710 807.183067 808.660880 810.620057
60.700000 805.485464 806.673738 807.979282 808.142070 809.667346 811.557002
60.800000 806.453806 807.622177 808.986124 809.143438 810.775945 812.504165
60.900000 807.277119 808.671052 810.052361 810.210263 811.908923 813.602819
61.000000 808.436987 809.760898 811.223449 811.345970 813.050960 814.772215
61.100000 809.677141 810.971139 812.594251 812.669461 814.472943 816.046901
61.200000 810.793734 812.323513 814.047566 814.060530 815.786617 817.307483
61.300000 812.255513 813.854493 815.610868 815.587561 817.181721 819.029823
61.400000 813.864853 815.551379 817.168393 817.181695 818.746253 820.623393
61.500000 815.441163 817.150906 818.677433 818.805237 820.333894 822.692225
61.600000 817.179326 818.713822 820.170260 820.347826 821.948181 824.497052
61.700000 818.588467 820.055313 821.714865 821.842923 823.621906 826.358673
61.800000 820.092829 821.325695 823.159509 823.328963 825.172096 828.013724
61.900000 821.290894 822.586554 824.536923 824.755002 826.828141 829.950851
62.000000 822.426318 823.852378 825.843276 826.131263 828.423167 831.538724
62.100000 823.453820 825.160935 827.369408 827.647058 830.258144 833.804536
62.200000 824.549999 826.550704 828.838631 829.195590 832.071723 835.964658
62.300000 825.808123 827.800480 830.442883 830.763636 833.611039 837.608753
62.400000 827.010948 829.230540 832.031800 832.247336 835.336932 838.804590
62.500000 828.046170 830.667092 833.623195 833.750351 836.899913 839.874577
62.600000 829.231298 832.126481 835.229166 835.259842 838.483444 841.056159
62.700000 830.557447 833.572794 836.717690 836.695813 840.003985 842.266017
62.800000 831.780159 834.963962 838.176684 838.079983 841.318109 843.262385
62.900000 833.378574 836.324399 839.507526 839.444216 842.621492 844.424382
63.000000 834.827996 837.975892 841.139990 840.888479 843.743221 845.420922
63.100000 836.712591 839.647971 842.694632 842.347484 844.951092 846.606532
63.200000 838.436368 841.060377 844.247349 843.782646 846.076112 847.722802
63.300000 839.844128 842.833730 845.615488 845.205286 847.312928 848.852764
63.400000 841.770720 844.382957 846.953161 846.605461 848.604798 849.987277
63.500000 843.630821 846.070140 848.230398 847.957188 849.734987 851.125190
63.600000 845.579131 847.596933 849.388588 849.280164 850.925369 852.421521
63.700000 847.000063 849.012925 850.693723 850.590991 852.116925 853.497470
63.800000 848.609366 850.401980 851.917544 851.832095 853.287574 854.665483
63.900000 849.990238 851.699721 853.091630 853.037056 854.428991 855.828754
64.000000 851.070843 852.804280 854.221518 854.164612 855.528324 856.809117
64.100000 852.249777 853.940742 855.332740 855.252999 856.566426 857.751973
64.200000 853.297008 855.004553 856.428630 856.330707 857.593003 858.770283
64.300000 854.724561 856.152279 857.514397 857.422537 858.633768 859.775053
64.400000 855.999824 857.265893 858.628404 858.523681 859.764414 860.784645
64.500000 857.100952 858.417982 859.704647 859.610757 860.797547 861.814934
64.600000 858.443634 859.658274 860.740163 860.737451 861.833565 862.903576
64.700000 859.730874 860.824436 861.837846 861.838678 862.915752 864.051443
64.800000 860.866671 861.862673 862.900241 862.904152 863.965591 864.967593
64.900000 861.947972 862.895543 863.900259 863.914118 864.979982 865.917392
65.000000 862.997891 863.921087 864.947216 864.934446 865.989633 866.899411
65.100000 863.979802 864.942968 866.033041 866.012689 867.035874 868.022110
65.200000 865.187261 866.148016 867.233532 867.209432 868.247627 869.186138
65.300000 866.493748 867.607908 868.726870 868.676753 869.717020 870.671072
65.400000 868.208579 869.511586 870.623650 870.588038 871.652510 872.623162
65.500000 871.227318 872.104293 872.974319 873.049401 874.039265 875.158129
65.600000 872.667234 873.582817 874.506694 874.612229 875.719245 876.920859
65.700000 873.826449 874.843150 876.027897 876.063379 877.245333 878.585410
65.800000 874.891223 876.018297 877.356756 877.356883 878.650921 879.889600
65.900000 875.923025 877.108317 878.575933 878.537091 879.918811 881.219245
66.000000 876.843658 878.182316 879.711109 879.652987 881.114168 882.344639
66.100000 877.802398 879.396693 880.804109 880.743945 882.110650 883.286247
66.200000 878.790361 880.447500 881.955211 881.913493 883.380787 884.684822
66.300000 879.851471 881.546098 883.038626 883.049231 884.531387 886.106762
66.400000 881.082689 882.709114 884.192859 884.249672 885.803241 887.742500
66.500000 881.946965 883.739094 885.324809 885.425409 887.195537 889.212808
66.600000 883.041600 884.885789 886.579924 886.675710 888.483317 890.476371
66.700000 884.058762 886.048169 887.852178 887.905412 889.739515 891.761382
66.800000 885.104289 887.226874 889.175581 889.196296 891.224250 893.066834
66.900000 886.551994 888.464558 890.522168 890.532650 892.624745 894.647326
67.000000 887.750966 889.759399 891.930571 891.939867 894.068838 896.252124
67.100000 889.061384 891.136027 893.404838 893.335602 895.469944 897.490923
67.200000 890.264265 892.567817 894.853991 894.775115 896.918338 898.917050
67.300000 891.707970 893.938918 896.438997 896.455967 898.782694 901.588246
67.400000 892.972264 895.501892 897.980144 898.079040 900.511738 903.671977
67.500000 894.315336 896.829370 899.470615 899.562803 902.335162 905.837141
67.600000 895.700351 898.129268 900.836946 901.028270 903.876200 907.927822
67.700000 896.965785 899.512920 902.324407 902.688823 906.072745 909.951083
67.800000 898.314811 900.947379 904.086110 904.433643 908.215385 911.733071
67.900000 899.917991 902.892866 906.184620 906.414116 910.242567 912.853895
68.000000 901.591673 904.690222 908.707645 908.398080 912.005081 914.246035
68.100000 902.862944 907.088745 910.867495 910.427622 913.568179 915.453497
68.200000 904.918019 909.514824 913.007992 912.407266 915.030778 916.534003
68.300000 907.806030 912.194127 914.747751 914.287281 916.526896 917.715776
68.400000 910.898159 914.432182 916.261000 916.025648 917.767197 919.182381
68.500000 913.625769 915.890013 917.474328 917.325546 918.833443 920.288300
68.600000 915.618893 917.197786 918.542350 918.533585 919.934729 921.376717
68.700000 916.813165 918.268699 919.587398 919.605684 920.969244 922.284690
68.800000 917.903844 919.288957 920.635916 920.666495 922.036353 923.255022
68.900000 919.005064 920.291750 921.662297 921.701709 923.136824 924.553337
69.000000 920.069303 921.309466 922.717642 922.753904 924.226896 925.833682
69.100000 921.044093 922.310682 923.826719 923.878266 925.399683 927.238733
69.200000 922.038089 923.399887 924.990187 924.994092 926.577088 928.514783
69.300000 923.099180 924.495786 926.188622 926.181678 927.798627 929.586240
69.400000 924.318444 925.601441 927.450827 927.424496 929.050756 930.903763
69.500000 925.385731 926.891202 928.772942 928.768606 930.531265 932.639553
69.600000 926.656634 928.182589 930.039218 930.096100 931.960764 933.833291
69.700000 928.039750 929.654335 931.527130 931.550595 933.406099 935.223666
69.800000 929.200689 931.051634 933.012044 933.007825 934.935390 936.555212
69.900000 930.490963 932.545359 934.521063 934.427935 936.287463 937.844905
70.000000 931.817253 933.962423 935.998048 935.846638 937.714145 939.183335
70.100000 933.592672 935.391727 937.435062 937.335626 939.095873 940.983700
70.200000 935.066433 936.976039 938.925101 938.844122 940.694019 942.641815
70.300000 936.799781 938.564997 940.303293 940.301452 942.018859 943.886014
70.400000 938.176610 939.929236 941.625664 941.702181 943.521270 945.107204
70.500000 939.663850 941.361073 943.000119 943.011238 944.776204 946.219292
70.600000 941.006087 942.666460 944.338899 944.269234 945.924512 947.167412
70.700000 942.300869 943.926438 945.577718 945.485798 947.084132 948.146196
70.800000 943.666989 945.220794 946.770822 946.676702 948.141157 949.207152
70.900000 945.014533 946.616005 948.003663 947.897082 949.208139 950.295782
71.000000 946.432149 947.905991 949.212429 949.128235 950.290562 951.261884
71.100000 947.780096 949.227550 950.458449 950.372794 951.499398 952.550789
71.200000 949.217994 950.457279 951.655841 951.574967 952.655989 953.769900
71.300000 950.376197 951.512165 952.750745 952.696609 953.837378 954.920261
71.400000 951.433995 952.638496 953.796795 953.767238 954.875997 956.001347
71.500000 952.491091 953.716585 954.851078 954.813114 955.956515 956.967765
71.600000 953.571756 954.704883 955.893657 955.839287 956.929757 957.834753
71.700000 954.699587 955.780632 956.944411 956.903886 957.977511 958.838496
71.800000 955.865461 956.991062 958.054101 958.034497 959.023696 959.979523
71.900000 957.357791 958.398861 959.422011 959.407697 960.360725 961.727824
72.000000 959.042404 959.915913 960.886791 960.953388 961.912100 963.486276
72.100000 960.423530 961.482569 962.644607 962.776994 964.016638 965.797489
72.200000 962.113562 963.186408 964.493505 964.622808 966.105135 967.820768
72.300000 963.439416 964.718772 966.127591 966.266857 967.856369 969.500709
72.400000 964.728679 966.176611 967.877085 967.873877 969.663255 971.188966
72.500000 966.067426 967.687962 969.419392 969.461492 971.252161 973.130399
72.600000 967.567709 969.467129 971.082375 971.167401 972.893525 975.028792
72.700000 969.093593 971.057991 972.902536 972.969452 974.854660 977.473539
72.800000 970.915490 972.763916 974.709591 974.795325 976.814183 979.347595
72.900000 972.383780 974.392291 976.375442 976.536839 978.701074 981.345461
73.000000 974.015066 976.206182 978.113290 978.314391 980.476248 983.247333
73.100000 975.710917 977.958584 979.994502 980.156473 982.417651 985.221003
73.200000 977.778632 979.738682 981.998593 982.010009 984.193084 986.782893
73.300000 979.536565 981.497600 983.659495 983.834478 986.072739 988.905876
73.400000 981.324185 983.214098 985.566269 985.657000 987.913667 990.869250
73.500000 983.133295 985.177682 987.675681 987.679619 990.057619 992.611348
73.600000 984.968550 987.187213 989.547933 989.529193 991.905925 994.370008
73.700000 986.599774 988.881329 991.240961 991.298844 993.636026 995.948284
73.800000 988.291450 990.827299 993.040877 993.037728 995.366945 997.478856
73.900000 989.961187 992.429200 994.801768 994.690462 996.941314 999.008274
74.000000 991.527605 994.211151 996.551119 996.370766 998.465057 1000.475364
74.100000 993.296686 995.794893 997.949017 997.887181 1000.025393 1001.811361
74.200000 995.373066 997.394535 999.366141 999.365173 1001.335782 1003.092142
