depth(m) lower_95(kyr) lower_68(kyr) median(kyr) mean(kyr) upper_68(kyr) upper_95(kyr)
13.720000 630.482980 633.266267 637.795699 638.083015 642.895112 648.065550
13.820000 634.293239 637.346446 641.911697 641.980417 646.567425 651.653281
13.920000 638.095202 641.298342 645.757854 645.925233 650.296287 655.683629
14.020000 641.833038 645.343534 650.107715 650.132394 654.483203 660.136314
14.120000 646.171603 649.767711 654.732522 654.939763 659.774717 665.762412
14.220000 651.150993 655.323455 660.290033 660.939451 666.849397 672.752064
14.320000 657.131331 662.003276 668.686911 669.022081 675.718656 682.788314
14.420000 664.163307 672.493226 680.511649 680.231153 688.091963 693.749344
14.520000 684.615610 691.679774 696.953689 696.809408 702.519762 707.191485
14.620000 693.574196 699.539393 704.438874 703.985102 708.506462 711.894947
14.720000 701.144544 707.085804 710.741569 710.242538 713.632016 716.042692
14.820000 708.977851 712.596327 715.345694 715.114093 717.704473 719.578419
14.920000 714.181175 716.817971 719.292503 719.118537 721.506573 723.109711
15.020000 718.525911 720.447163 722.632016 722.602931 724.751495 726.573105
15.120000 722.669366 724.375692 726.342321 726.316746 728.215135 729.930343
15.220000 726.494678 728.208304 730.031295 730.066153 731.822275 733.892341
15.320000 730.542404 732.538806 734.236366 734.396278 735.975799 740.304669
15.420000 735.733239 737.418528 739.426288 739.652185 741.764691 745.651924
15.520000 740.047043 742.305054 744.842915 744.947775 747.641151 750.336635
15.620000 743.894536 746.526015 749.577267 749.311826 751.961766 754.137447
15.720000 747.543600 750.436353 753.040533 752.976432 755.673264 758.063199
15.820000 750.915883 754.000609 756.504821 756.438933 758.861730 761.226584
15.920000 754.518820 757.470560 760.085532 760.033359 762.464274 764.974230
16.020000 758.766509 761.318401 763.906005 763.904172 766.340976 769.249935
16.120000 762.747606 764.992307 767.825019 767.935701 770.852710 774.073747
16.220000 766.550296 769.235608 772.232148 772.416304 775.724182 779.259647
16.320000 770.826722 773.317817 776.675143 776.787048 780.376793 783.401204
16.420000 774.856431 777.859582 781.295208 781.279544 784.795395 787.517324
16.520000 779.701766 783.367803 786.637236 786.247552 789.088134 790.857897
16.620000 786.028914 789.114922 791.487423 791.167385 793.145228 794.770545
16.720000 791.372838 793.405765 795.073459 795.090259 796.667192 798.587918
16.820000 795.367732 797.007070 798.589476 798.791713 800.554500 803.541761
16.920000 798.716920 800.383251 802.220181 802.467313 804.657709 807.157906
17.020000 802.093918 804.070311 806.093646 806.297937 808.670539 811.356715
17.120000 805.670863 807.760396 810.280047 810.313656 812.870558 815.649147
17.220000 809.287705 811.841393 814.700086 814.742628 817.284349 821.029563
17.320000 816.082076 818.502705 821.274278 821.702548 824.633544 830.980943
17.420000 821.019829 823.808014 826.931164 827.618283 831.560660 837.475736
17.520000 825.568398 829.271061 833.285804 833.660391 838.334381 843.008791
17.620000 830.095205 835.023050 839.357039 839.377477 843.914403 848.032230
17.720000 835.012862 840.712280 844.688979 844.547928 848.491454 853.038936
17.820000 841.749663 846.193001 849.858344 849.834624 853.573745 858.246717
17.920000 847.952291 851.114782 854.718718 854.850260 858.865847 862.182968
18.020000 852.791900 855.986069 859.857454 859.634418 863.259301 865.618360
18.120000 857.279446 861.658823 864.739797 864.376000 867.338045 869.092522
18.220000 862.504771 867.412225 869.608991 869.206068 871.214100 872.593015
18.320000 871.489839 873.012385 874.657747 874.715200 876.371789 878.550801
18.420000 874.873945 876.792061 878.676444 878.702077 880.546510 882.605418
18.520000 878.271878 880.118195 882.138828 882.107265 883.943624 886.270967
18.620000 881.332321 883.402579 885.212839 885.355239 887.331886 889.936041
18.720000 884.114776 886.163241 888.184789 888.304766 890.473711 892.959025
18.820000 886.968475 889.016667 891.158473 891.208642 893.420969 895.908391
18.920000 889.729967 891.892378 894.055273 894.081342 896.371193 898.784048
19.020000 892.754209 894.690478 896.983378 897.039258 899.296517 901.914197
19.120000 895.812305 897.974991 900.202203 900.388685 902.857361 906.248921
19.220000 899.068423 901.374207 903.924791 904.104617 906.983097 910.163642
19.320000 902.588660 905.184591 908.327442 908.227936 911.225312 913.683953
19.420000 905.969391 909.845012 913.076752 912.654990 915.341533 917.244395
19.520000 910.038473 915.443105 917.859413 917.575272 920.003712 922.167732
19.620000 913.215204 919.131193 921.852470 921.519159 924.069746 926.543026
19.720000 916.478856 923.019616 925.491502 925.156663 927.761960 930.112192
19.820000 921.884411 926.223356 928.849292 928.599223 931.153691 933.760940
19.920000 926.806786 929.801607 932.411901 932.339394 934.770669 937.350029
20.020000 931.321092 934.023228 936.684001 936.542280 938.736987 941.832354
20.120000 936.422376 939.381073 941.346086 941.506169 943.909815 946.257760
20.220000 940.814183 943.469498 945.765992 945.632702 947.806371 949.631193
20.320000 945.586554 947.919561 949.888218 949.752835 951.549596 953.328160
20.420000 949.906008 951.870904 953.357833 953.349151 954.926534 956.398509
20.520000 953.808908 955.540828 956.878109 956.794762 958.063075 959.184484
20.620000 958.685659 959.777281 960.740274 960.844899 961.924933 963.418106
20.720000 962.266064 963.615694 965.236825 965.367217 967.135859 969.098965
20.820000 965.264896 967.450419 969.769349 969.778086 972.113694 974.717563
20.920000 969.187638 971.321098 974.193336 974.181840 976.804142 979.645603
21.020000 972.846884 975.651948 978.936253 978.900629 981.800575 985.619126
21.120000 976.490919 979.740137 983.122846 983.224203 986.473349 991.405851
21.220000 979.390909 983.606939 987.190903 987.457070 991.205885 996.520481
21.320000 984.308823 987.765078 991.300158 991.601502 995.668628 999.812527
21.420000 988.752075 992.078630 995.689818 995.848189 999.840573 1003.439488
21.520000 992.882884 997.024495 1000.302389 1000.309876 1003.780470 1006.974195
21.620000 998.311097 1001.932686 1005.169795 1004.905608 1007.702147 1010.612166
21.720000 1002.446761 1007.268735 1009.963926 1009.763142 1012.487826 1015.276656
21.820000 1008.081806 1011.019977 1013.990224 1013.940748 1017.045769 1020.017422
21.920000 1012.294006 1015.091389 1017.933996 1018.005509 1021.075700 1024.073310
22.020000 1017.337467 1019.834377 1022.599831 1022.820685 1025.896245 1028.920708
22.120000 1021.758033 1024.556534 1027.894580 1027.774907 1030.810481 1033.487287
22.220000 1026.638580 1029.849063 1033.110877 1032.690897 1035.276661 1036.817405
22.320000 1033.295015 1036.064783 1037.893399 1037.669987 1039.342339 1041.443002
22.420000 1038.123018 1039.871980 1041.465350 1041.591343 1043.377738 1045.821019
22.520000 1040.757283 1042.762981 1044.679489 1044.858706 1047.029583 1049.946549
22.620000 1043.383517 1045.640755 1047.827501 1048.012626 1050.460161 1053.713771
22.720000 1046.595115 1048.794321 1051.041478 1051.298466 1054.002247 1056.580677
22.820000 1050.377256 1052.447643 1054.766571 1054.921269 1057.570738 1059.807270
22.920000 1053.957390 1056.201267 1058.720383 1058.679611 1061.017783 1063.111666
23.020000 1057.865181 1060.516219 1062.573110 1062.417427 1064.320777 1065.804336
23.120000 1063.764955 1065.449319 1066.779610 1066.734163 1068.036663 1069.620491
23.220000 1067.996446 1069.442343 1070.746017 1070.754937 1072.094572 1073.543051
23.320000 1071.248894 1072.565282 1073.792824 1073.802020 1075.081521 1076.467402
23.420000 1074.187215 1075.445614 1076.613176 1076.630929 1077.844564 1079.051340
23.520000 1077.161532 1078.353870 1079.591625 1079.605586 1080.802721 1082.090411
23.570000 1078.708129 1079.917074 1081.172491 1081.198873 1082.508853 1083.831954
23.620000 1080.205932 1081.470008 1082.827195 1082.906794 1084.360256 1086.149078
23.670000 1081.946566 1083.341431 1084.841895 1084.987877 1086.566020 1089.115248
23.720000 1083.812041 1085.559519 1087.356628 1087.617242 1089.754567 1092.687203
23.770000 1085.903789 1087.840679 1090.057705 1090.356581 1093.040088 1096.582136
23.870000 1089.817272 1092.473721 1095.486696 1095.810461 1099.072770 1103.934967
23.970000 1093.371521 1097.703147 1101.418976 1101.287799 1105.002025 1108.207190
24.070000 1098.814954 1103.516325 1107.296802 1106.785826 1110.040988 1112.502312
24.170000 1105.887171 1109.436669 1112.105149 1111.892989 1114.439921 1116.435295
24.270000 1111.038723 1114.053571 1116.305188 1116.140945 1118.269487 1120.118660
24.370000 1115.343546 1118.139356 1120.336965 1120.216233 1122.413911 1124.667494
24.470000 1120.128118 1122.367084 1124.972981 1125.001657 1127.641833 1130.509923
24.570000 1124.425516 1127.195137 1130.313465 1130.564526 1133.683643 1138.149861
24.670000 1128.335944 1132.091212 1135.947652 1136.107058 1140.050999 1144.346934
24.770000 1133.205274 1137.705328 1141.685399 1141.572483 1145.287182 1150.477515
24.870000 1138.929250 1143.523939 1147.579265 1147.581840 1151.735204 1156.338417
24.970000 1144.719242 1148.573181 1152.927708 1152.752835 1157.020290 1160.555904
25.070000 1149.752116 1153.497866 1157.558479 1157.400911 1161.306294 1164.523302
25.170000 1154.133010 1158.052829 1162.062050 1161.906596 1165.712383 1168.559637
25.270000 1158.606369 1162.202508 1165.723508 1165.625829 1168.949767 1171.700085
25.370000 1162.655879 1165.811186 1169.047093 1169.000001 1172.044571 1175.010875
25.470000 1166.060586 1169.144829 1172.284918 1172.215906 1175.091509 1178.335318
25.570000 1168.968541 1172.293855 1175.407111 1175.460802 1178.464717 1182.470119
25.670000 1172.023157 1175.468877 1179.173102 1179.124595 1182.887801 1186.589007
25.770000 1175.291042 1179.024198 1183.229415 1183.069181 1187.144896 1190.316973
25.870000 1178.741197 1183.652444 1188.105735 1187.443169 1190.910573 1193.665014
25.970000 1183.930021 1189.070618 1192.724371 1192.087905 1194.963740 1197.468647
26.070000 1190.330222 1195.022427 1197.301306 1197.036257 1199.319174 1201.246117
26.170000 1197.757583 1200.025616 1202.130835 1202.247523 1204.462517 1207.571227
26.270000 1202.057262 1204.131377 1206.537893 1206.680356 1209.121207 1212.181968
26.370000 1205.741248 1208.221635 1211.182400 1211.201310 1214.045424 1217.152174
26.470000 1209.914248 1213.185638 1216.397044 1216.336217 1219.454898 1222.110131
26.570000 1214.990528 1218.882074 1222.305962 1221.980653 1224.823430 1227.229126
26.670000 1219.032611 1222.719688 1225.852671 1225.557406 1228.305475 1230.445304
26.770000 1222.816624 1226.349114 1229.102284 1228.913891 1231.403665 1233.373556
26.870000 1226.991190 1230.202581 1232.504603 1232.395426 1234.788109 1236.741681
26.970000 1230.936688 1233.597334 1235.838931 1235.797262 1237.945680 1239.747754
27.070000 1234.924718 1237.326440 1239.238607 1239.195687 1241.200718 1243.026373
27.170000 1238.511601 1240.527975 1242.449569 1242.395428 1244.298570 1245.895877
27.270000 1241.322265 1243.682903 1245.499457 1245.334588 1247.019479 1248.193906
27.370000 1244.365703 1246.709883 1248.405818 1248.237762 1249.778427 1250.878039
27.470000 1248.687625 1250.345588 1251.526357 1251.508259 1252.701450 1253.937958
27.570000 1252.386330 1253.682227 1254.823002 1254.886098 1256.134808 1257.596052
27.670000 1255.378870 1256.579135 1257.903813 1257.998196 1259.393140 1261.049250
27.770000 1258.075003 1259.474943 1260.765970 1260.816946 1262.270192 1263.686873
27.830000 1259.929175 1261.179062 1262.587866 1262.606793 1264.048778 1265.622731
27.870000 1260.964533 1262.422250 1263.858179 1263.917162 1265.359395 1266.894944
27.930000 1262.926739 1264.307297 1265.883410 1265.920697 1267.506973 1269.073142
27.970000 1264.212300 1265.688908 1267.294165 1267.289392 1268.934499 1270.476501
28.030000 1265.985957 1267.508558 1269.263515 1269.215381 1270.914694 1272.750397
28.130000 1269.071126 1270.972007 1272.792046 1272.744556 1274.449290 1276.697977
28.230000 1273.408551 1275.053147 1276.965442 1277.122829 1279.197837 1281.847958
28.330000 1276.867274 1279.095310 1281.468129 1281.587403 1284.051353 1286.909778
28.430000 1280.635008 1283.775016 1286.208218 1286.056268 1288.137769 1290.628531
28.530000 1286.286620 1288.462250 1290.365858 1290.625882 1292.835603 1296.224241
28.630000 1290.073684 1291.776821 1294.164015 1294.457256 1297.004879 1300.444079
28.730000 1293.006443 1295.029765 1297.776670 1297.949853 1300.811426 1304.376078
28.830000 1296.358948 1298.461393 1301.402187 1301.488519 1304.548681 1307.649753
28.930000 1299.431484 1302.308535 1305.353150 1305.290612 1308.340275 1310.513433
29.030000 1303.169731 1306.315505 1309.537401 1309.183362 1311.836136 1313.979080
29.130000 1307.659156 1311.030771 1313.634582 1313.367517 1315.581923 1317.270690
29.230000 1312.570320 1315.451722 1317.281307 1317.106556 1318.930831 1320.465889
29.330000 1316.749394 1319.009242 1320.521954 1320.446046 1321.933338 1323.407608
29.430000 1320.408674 1322.498989 1323.875791 1323.940084 1325.431981 1327.506343
29.530000 1324.003727 1325.528521 1327.284480 1327.698149 1329.926001 1333.397450
29.630000 1326.897553 1328.435989 1330.814325 1331.256678 1334.127448 1338.184784
29.730000 1329.494529 1331.622937 1334.636777 1334.954936 1338.243064 1342.163392
29.830000 1332.819243 1335.545129 1338.853850 1338.975292 1342.421022 1345.364756
29.930000 1336.336356 1339.942368 1343.290436 1343.069864 1346.129436 1348.304577
30.030000 1341.137477 1345.089659 1347.834715 1347.482895 1349.945541 1351.571443
30.130000 1347.557028 1350.346053 1352.090304 1351.943670 1353.667824 1355.295216
30.230000 1352.827651 1354.364917 1355.745684 1355.845773 1357.435427 1359.078512
30.330000 1356.003554 1357.450377 1358.986614 1359.029018 1360.650868 1362.317757
30.430000 1358.745240 1360.283059 1362.081002 1362.029988 1363.685585 1365.227167
30.530000 1361.742191 1363.623029 1365.344565 1365.318700 1366.880825 1368.835705
30.630000 1366.055454 1367.916968 1369.522001 1369.781611 1371.651207 1375.135807
30.730000 1370.154920 1371.728349 1373.861391 1374.200563 1376.701032 1380.408045
30.830000 1373.570678 1375.619349 1378.208136 1378.447818 1381.310290 1384.789706
30.930000 1377.079717 1379.784621 1382.784060 1382.747570 1385.755402 1388.102338
31.030000 1381.345619 1384.372971 1387.383427 1387.095218 1389.725405 1391.717368
31.130000 1386.030466 1389.050546 1391.538444 1391.407919 1393.827468 1395.881903
31.230000 1389.667541 1392.727007 1395.193047 1394.986394 1397.250906 1399.361142
31.280000 1391.567396 1394.564013 1397.119578 1396.987114 1399.431015 1401.349364
31.355000 1394.624454 1397.052769 1399.593094 1399.499533 1401.848307 1403.769469
31.430000 1397.557360 1399.747260 1402.036824 1401.990879 1404.083985 1406.006260
31.530000 1401.392240 1403.607972 1405.574317 1405.523045 1407.511671 1409.132576
31.630000 1406.073248 1407.964459 1409.784019 1409.807685 1411.621331 1413.844200
31.730000 1410.208534 1411.902685 1413.623272 1413.954150 1416.253025 1418.860075
31.830000 1413.271406 1415.461951 1417.723744 1417.858896 1420.280161 1422.842280
31.930000 1416.651622 1419.246474 1422.046414 1421.911771 1424.566817 1426.755190
32.030000 1420.399979 1423.435805 1426.065832 1425.939700 1428.427156 1430.542949
32.130000 1425.147825 1427.835434 1430.120493 1429.978601 1431.928111 1434.504764
32.230000 1430.282511 1432.391057 1434.288616 1434.395082 1436.582630 1438.604312
32.330000 1433.518186 1435.573006 1437.769481 1437.742462 1439.922271 1441.753785
32.430000 1436.770050 1438.266664 1440.803527 1440.677478 1442.828950 1444.759529
32.530000 1439.604515 1441.476791 1443.718337 1443.531594 1445.488436 1446.989165
32.630000 1442.965520 1444.837086 1446.742719 1446.518362 1448.104100 1449.398462
32.730000 1446.680180 1448.575187 1449.909309 1449.786799 1451.012797 1452.118502
32.830000 1450.744350 1451.838823 1452.910584 1453.075611 1454.243548 1456.513200
32.930000 1453.810858 1454.891302 1456.216759 1456.475713 1458.144266 1460.432986
33.030000 1456.267405 1457.864311 1459.794699 1459.938740 1462.033485 1464.193407
33.130000 1459.233766 1461.688728 1463.987996 1463.965153 1466.185676 1468.332149
33.230000 1464.323408 1466.714368 1469.020869 1468.968990 1471.138664 1473.510876
33.330000 1468.668964 1470.615943 1472.823635 1472.822470 1474.958332 1477.010390
33.430000 1471.617300 1473.862997 1475.939414 1475.932719 1478.032084 1479.925931
33.530000 1474.617798 1476.801770 1478.824547 1478.770027 1480.687917 1482.450691
33.630000 1477.378361 1479.744445 1481.621269 1481.515690 1483.323266 1484.811555
33.730000 1480.551554 1482.610648 1484.397943 1484.239414 1485.817516 1487.048334
33.830000 1484.240490 1485.858595 1487.251202 1487.114064 1488.380769 1489.534621
33.930000 1487.845451 1489.078453 1490.255783 1490.380105 1491.545048 1494.323271
34.030000 1490.728125 1491.858754 1493.459409 1493.948591 1495.814968 1500.837724
