depth(m) lower_95(kyr) lower_68(kyr) median(kyr) mean(kyr) upper_68(kyr) upper_95(kyr)
36.260000 642.078793 647.908112 652.394613 652.518718 657.425114 662.422600
36.360000 644.690692 650.212504 654.662394 654.742299 659.290200 664.173919
36.460000 648.315592 653.219396 657.172462 657.288283 661.542850 666.319415
36.560000 651.574502 655.982832 659.834982 659.961923 664.052347 668.218144
36.660000 654.881308 658.293849 662.166782 662.333973 666.530417 670.252652
36.760000 657.438093 660.864791 664.644415 664.755364 668.762946 672.473480
36.860000 660.254761 663.096620 667.210046 667.110147 671.013589 674.752258
36.960000 662.372532 665.262885 669.568913 669.375126 673.148904 676.522870
37.060000 664.730565 667.690085 671.819102 671.608491 675.252404 678.257400
37.160000 666.956921 670.129180 673.913213 673.805158 677.172207 680.417225
37.293333 669.987264 673.242802 677.223180 676.932183 680.262826 683.368749
37.426667 673.261566 676.843006 680.295280 680.074775 683.302935 686.097921
37.560000 677.404853 680.376573 683.536433 683.298555 685.973020 688.712272
37.660000 679.999964 682.769352 685.595694 685.536589 688.093839 690.798435
37.760000 682.294182 685.170884 687.811764 687.722287 690.194438 692.591795
37.860000 684.464359 687.190424 689.741353 689.693253 692.168097 694.423547
37.960000 687.025516 689.463302 691.628674 691.722458 694.145505 696.441558
38.060000 689.713022 691.635614 693.823327 693.937363 696.286759 698.687726
38.160000 691.750405 693.570590 695.991105 696.041685 698.402309 700.706389
38.260000 693.744482 695.486114 697.774525 697.907595 700.301166 703.028093
38.360000 695.294242 697.266276 699.666654 699.747085 702.114435 704.786976
38.460000 697.082127 699.152651 701.554474 701.588813 704.037299 706.399913
38.560000 698.706294 701.048680 703.451035 703.398290 705.790913 708.089243
38.650000 700.229940 702.813348 705.139525 705.099227 707.396521 709.505883
38.740000 701.950182 704.670201 706.925310 706.830785 708.994434 711.257024
38.840000 704.298543 706.772193 708.902632 708.809814 710.856156 712.979846
38.940000 706.762795 708.966244 710.896537 710.864357 712.813845 714.599188
39.040000 708.834672 710.983900 713.010762 712.973842 714.991514 716.602568
39.140000 711.255264 713.027331 715.024289 714.979313 716.908791 718.803450
39.240000 713.037763 714.878757 716.834585 716.861314 718.815284 720.752491
39.340000 714.527675 716.615365 718.754886 718.641915 720.642119 722.591456
39.440000 716.603794 718.580954 720.602943 720.585568 722.513684 724.609379
39.540000 718.388870 720.325183 722.347678 722.364331 724.390499 726.603714
39.640000 720.432923 722.169634 724.016364 724.068361 725.978971 727.966600
39.740000 722.039416 723.660883 725.644781 725.691287 727.621488 729.855616
39.840000 723.574689 725.430581 727.244894 727.340691 729.369348 731.339587
39.940000 725.292859 727.344510 729.070381 729.081378 730.860362 732.727778
40.040000 727.328342 729.296381 730.975981 730.957601 732.571132 734.210999
40.140000 729.666568 731.387558 732.939405 732.976292 734.532373 736.408070
40.240000 732.536127 733.949636 735.446765 735.650019 737.270687 739.607762
40.340000 734.835934 736.453279 738.350725 738.422040 740.235443 742.776639
40.440000 736.509940 738.664792 740.933300 741.124819 743.376934 746.840945
40.540000 738.383478 740.833459 743.421791 743.525294 746.182851 749.683343
40.640000 739.993952 742.724995 745.421635 745.551526 748.492000 752.131189
40.740000 741.714322 744.392748 747.408696 747.521896 750.559336 754.102778
40.840000 742.983675 746.088426 749.291541 749.349077 752.513780 756.412667
40.940000 744.308890 747.889942 751.387833 751.355858 754.955851 758.172525
41.040000 745.793752 749.369736 753.500658 753.367354 757.217921 759.942020
41.140000 747.510912 751.067744 755.540126 755.254477 759.078558 761.819150
41.240000 749.204556 752.853437 757.535795 757.040318 760.781992 763.387322
41.340000 751.031545 754.792381 759.287905 758.793401 762.431815 765.033326
41.473333 753.706098 757.454428 761.534481 761.179165 764.731929 767.050637
41.606667 756.318855 760.317964 763.832645 763.571555 766.949231 769.151975
41.740000 759.665012 762.934751 766.109043 766.009778 769.086540 771.286486
41.840000 762.392129 765.323025 768.146147 768.068237 770.966537 772.979581
41.940000 764.515142 767.438324 770.142491 770.056870 772.714960 774.612983
42.040000 766.858128 769.669085 772.472004 772.230956 774.649275 776.517569
42.140000 769.335484 772.052635 774.790239 774.547491 776.848645 778.739037
42.240000 772.081303 774.690785 777.223673 777.047796 779.259994 781.210314
42.340000 774.811605 777.240074 779.386781 779.391454 781.643367 783.235774
42.440000 777.304976 779.558542 781.759559 781.688868 783.875088 785.603530
42.540000 779.496184 781.670661 783.825878 783.738407 785.864742 787.486661
42.640000 781.486039 783.740531 785.799850 785.704467 787.620953 789.267010
42.740000 783.753735 785.854286 787.843672 787.709984 789.594859 791.068207
42.840000 786.166398 788.209647 789.965671 789.862180 791.552952 793.003771
42.940000 788.804892 791.020113 792.713122 792.600942 794.186149 795.566922
43.040000 793.307247 795.042473 796.497963 796.586858 798.141082 800.327385
43.140000 796.066566 797.817019 799.619930 799.644540 801.466763 803.515681
43.240000 798.254208 800.096051 802.166635 802.149536 804.147169 806.156734
43.310000 799.481676 801.574189 803.834503 803.763520 805.817519 807.946449
43.340000 800.119596 802.343302 804.546576 804.454891 806.502327 808.452140
43.440000 802.446105 804.568955 806.671787 806.611943 808.705908 810.455558
43.540000 804.876070 807.035145 809.004676 808.917868 810.749383 812.596575
43.640000 807.537173 809.589918 811.410507 811.415700 813.272765 815.144616
43.740000 809.820495 811.844468 813.566876 813.674833 815.476210 817.801930
43.840000 812.030399 813.928343 815.783745 816.004942 817.920303 821.197016
43.940000 814.101561 816.104314 818.372916 818.965624 821.751255 828.293108
44.040000 816.113413 818.851813 822.404393 822.809497 826.874538 831.548767
44.140000 817.852408 821.159091 826.973746 826.516983 831.304209 834.732104
44.240000 819.579082 823.642458 830.016039 829.479881 834.285064 837.487453
44.340000 822.274826 826.664758 832.815668 832.215381 836.831624 840.053784
44.440000 825.046299 830.244323 835.838847 835.154985 839.469240 842.566644
44.540000 827.899556 833.299868 838.718027 837.951269 841.926456 845.101864
44.640000 831.452756 836.711629 841.440826 840.834399 844.463555 847.720705
44.740000 834.788056 840.440387 844.319073 843.850819 847.301653 850.550141
44.840000 839.781015 845.235648 848.426799 848.296613 851.529800 855.219763
44.940000 845.134716 849.015367 852.122086 852.099570 855.037129 859.351367
45.040000 848.391306 852.399938 855.187799 855.289663 858.373357 861.904791
45.140000 850.682625 854.892216 857.976202 857.910065 861.126039 863.947968
45.240000 853.056300 857.442758 860.879625 860.492787 863.670622 865.751726
45.340000 855.073109 860.024899 863.453671 862.893432 865.696292 867.505461
45.440000 857.338659 862.437502 865.930048 865.143113 867.749193 869.272464
45.540000 859.467735 865.115033 867.932550 867.246145 869.505046 870.779469
45.640000 861.382262 867.610855 869.913927 869.351112 871.418715 872.654105
45.773333 865.564497 870.119002 872.106790 871.741796 873.593264 875.275287
45.906667 869.587674 872.493928 874.204811 874.076168 875.795499 877.741203
46.040000 873.109023 874.776318 876.246124 876.288334 877.791680 879.840415
46.140000 874.823952 876.321373 877.769876 877.842997 879.429213 881.446874
46.240000 876.473040 877.986834 879.413846 879.468471 880.955745 883.012066
46.340000 878.201254 879.577820 881.076738 881.146887 882.670336 884.508443
46.440000 879.941275 881.260651 882.728711 882.844717 884.465028 886.440586
46.540000 881.654009 882.881378 884.382176 884.583865 886.317958 888.623279
46.640000 883.356139 884.612028 886.161857 886.367145 888.105360 890.503794
46.740000 884.910884 886.315646 887.971593 888.099075 889.993218 892.216334
46.860000 886.726003 888.284219 889.957406 890.105091 892.027972 894.054527
46.960000 888.233617 889.852195 891.676022 891.770074 893.738080 895.653220
47.060000 889.817532 891.501180 893.344684 893.433953 895.398094 897.435250
47.160000 891.329998 893.128962 895.066723 895.098229 897.021794 899.208852
47.260000 893.081554 894.976860 896.840272 896.911500 898.932189 900.958745
47.360000 894.960487 896.774411 898.671978 898.742464 900.929294 902.642899
47.460000 897.346601 898.638179 900.478634 900.627875 902.707055 904.694874
47.560000 899.171728 900.921168 902.634395 902.730779 904.696203 906.726677
47.660000 901.238918 902.941619 904.670746 904.792934 906.760945 908.951979
47.760000 902.912182 904.775360 906.728948 906.771805 908.806173 910.792339
47.860000 904.779602 906.722650 908.650971 908.672572 910.691882 912.578111
47.960000 906.608816 908.693396 910.566975 910.558683 912.441164 914.299540
48.060000 908.551361 910.660754 912.629042 912.592713 914.362600 916.361694
48.160000 910.958921 912.976040 914.834528 914.995095 916.654988 921.079199
48.260000 913.548804 915.518888 917.580074 918.107058 920.915743 925.226707
48.360000 916.120710 918.059352 920.581626 921.193210 924.699198 928.584612
48.460000 918.463866 920.867806 923.931236 924.473337 928.232005 931.717418
48.560000 921.386123 924.923934 929.152720 928.907566 932.745521 935.988849
48.660000 926.648648 930.154270 933.466312 933.195610 936.185104 938.612762
48.760000 930.382196 933.340190 936.514292 936.160686 938.684492 941.098242
48.860000 933.534332 936.539742 939.209727 938.948785 941.167877 943.315668
48.960000 936.491125 939.365893 941.729492 941.491594 943.669705 945.210575
49.060000 939.192226 942.038173 943.982631 943.828490 945.730012 947.057689
49.160000 941.889838 944.525884 946.227339 946.033859 947.591793 948.879236
49.260000 944.585074 946.702331 948.106931 948.028135 949.424829 950.485326
49.360000 947.126739 948.574716 949.926145 949.834837 951.091104 952.082611
49.460000 949.173868 950.459243 951.720127 951.650104 952.819596 953.878814
49.560000 950.909688 952.155619 953.445903 953.375567 954.536457 955.488548
49.660000 952.839317 953.889989 955.186465 955.090737 956.187617 957.192241
49.760000 954.594429 955.888156 956.972121 956.880496 957.888167 958.852127
49.860000 956.769269 958.068606 959.082392 959.054831 959.987133 961.154950
49.960000 960.134651 961.359535 962.607928 963.214938 965.004147 969.735717
50.060000 962.249071 964.065690 966.244568 966.617866 969.200658 972.817042
50.160000 964.857861 967.438930 969.942693 970.106187 972.792703 975.712196
50.260000 968.835762 971.466064 973.707598 973.786080 976.239779 978.963093
50.360000 972.146085 974.475740 976.767095 976.851298 979.248835 981.800170
50.460000 974.950468 977.055017 979.467217 979.497611 981.902938 984.439889
50.560000 977.338903 979.485376 981.883741 981.936632 984.350030 986.698626
50.660000 980.062791 981.907717 984.242574 984.310138 986.663983 989.043381
50.760000 982.357706 984.609007 986.860116 987.053083 989.491716 992.595084
50.860000 984.557396 986.885683 989.341501 989.527160 992.189820 995.229796
50.960000 986.617079 989.341905 992.020395 992.103045 994.992582 998.126835
51.060000 989.242434 991.898770 994.453841 994.660244 997.595128 1000.894350
51.160000 991.373654 994.376700 997.104199 997.309781 1000.276202 1003.703051
51.260000 994.152041 997.118482 999.796746 999.981444 1003.018834 1006.346641
51.360000 996.538864 999.715101 1002.516572 1002.573571 1005.522304 1008.839007
51.460000 999.448534 1002.456842 1005.377110 1005.258024 1008.056140 1010.965946
51.560000 1002.830376 1005.853889 1008.422806 1008.415736 1011.026803 1013.770702
51.660000 1006.873817 1009.425361 1011.558228 1011.616142 1013.965332 1016.368322
51.760000 1009.920436 1012.186780 1014.472190 1014.441820 1016.618626 1018.958159
51.860000 1012.848620 1015.018695 1017.208863 1017.197655 1019.382345 1021.792428
51.960000 1015.701595 1018.060175 1019.970133 1020.049836 1022.151490 1024.675549
52.060000 1018.536580 1020.510254 1022.495250 1022.536923 1024.679892 1026.794634
52.160000 1020.921702 1022.807759 1025.064114 1025.058470 1027.427245 1029.231467
52.260000 1023.538464 1025.341574 1027.634326 1027.609347 1029.769324 1031.610626
52.360000 1025.867464 1027.878911 1030.123064 1030.082966 1032.187692 1033.769287
52.460000 1028.114041 1030.673016 1032.853317 1032.636193 1034.580349 1035.829933
52.560000 1030.978212 1033.762877 1035.582532 1035.301224 1036.866955 1037.919527
52.660000 1035.654550 1037.551548 1038.811893 1038.829975 1040.191518 1041.952957
52.760000 1038.656388 1039.853118 1041.240802 1041.442503 1042.994657 1045.103461
52.860000 1040.659193 1041.988961 1043.576123 1043.730527 1045.541634 1047.335973
52.960000 1042.529096 1044.100336 1045.754950 1045.922649 1047.970112 1049.761066
53.060000 1044.246804 1045.946286 1047.816450 1047.960423 1050.051492 1051.860978
53.160000 1045.934592 1047.705541 1049.866370 1049.860682 1051.980693 1053.727111
53.260000 1047.832684 1049.594062 1051.854875 1051.741815 1053.803075 1055.356974
53.360000 1049.562845 1051.536806 1053.813826 1053.639123 1055.690538 1057.171122
53.460000 1051.297001 1053.490470 1055.724297 1055.561772 1057.549868 1059.000837
53.560000 1053.143449 1055.428812 1057.658929 1057.449695 1059.388628 1060.767341
53.660000 1055.422019 1057.569536 1059.582534 1059.365404 1061.071129 1062.396323
53.760000 1057.745339 1059.802258 1061.638103 1061.402623 1062.871581 1064.107523
53.860000 1060.502981 1062.386281 1063.793725 1063.688154 1064.976334 1066.211894
53.960000 1063.721486 1065.065061 1066.249313 1066.274107 1067.517473 1069.219000
54.060000 1066.911666 1068.170825 1069.646677 1069.736358 1071.334481 1073.178184
54.160000 1069.468727 1070.897918 1072.439584 1072.476500 1074.051923 1075.828309
54.260000 1071.757662 1073.451811 1075.123575 1075.068846 1076.635162 1078.145240
54.360000 1074.053088 1076.072856 1077.817872 1077.740809 1079.422460 1080.904865
54.460000 1077.067617 1079.089098 1081.123028 1081.233117 1083.316807 1086.175029
54.560000 1080.672874 1082.438866 1084.544201 1084.643904 1086.779817 1089.289453
54.660000 1083.079800 1085.296463 1087.393517 1087.484593 1089.762137 1092.040104
54.760000 1085.843580 1087.745233 1090.094304 1090.110249 1092.428232 1094.529256
54.860000 1087.990028 1090.070562 1092.312233 1092.431602 1094.861540 1097.001050
54.960000 1089.937343 1092.135275 1094.533088 1094.617515 1097.197260 1099.419766
55.060000 1092.063271 1094.249425 1096.672108 1096.760715 1099.362587 1101.667098
55.160000 1093.825643 1096.451744 1098.708069 1098.867922 1101.269767 1104.148693
55.260000 1096.298983 1098.781970 1101.035055 1101.056557 1103.336277 1105.958227
55.360000 1099.148875 1101.207934 1103.367903 1103.357970 1105.419281 1108.121289
55.460000 1101.513740 1103.617127 1105.646760 1105.746831 1107.853639 1110.417854
55.560000 1103.722621 1106.298812 1108.344037 1108.483008 1110.760701 1113.220025
55.660000 1106.797186 1108.932349 1111.149335 1111.220935 1113.545594 1115.615206
55.760000 1109.668016 1111.745299 1114.211282 1114.115701 1116.483565 1118.221703
55.860000 1112.095493 1114.318983 1116.827619 1116.661278 1118.941382 1120.710741
55.960000 1114.984967 1117.212247 1119.323812 1119.260215 1121.210396 1123.268180
56.060000 1118.412864 1120.486514 1122.294107 1122.366665 1124.232246 1126.546524
56.160000 1121.000247 1122.894815 1124.872963 1124.920441 1126.876138 1129.186651
56.260000 1123.002781 1125.051356 1127.373103 1127.356001 1129.584789 1131.970556
56.360000 1125.151168 1127.405818 1129.694348 1129.714404 1132.010231 1134.637236
56.460000 1127.236607 1129.493551 1131.764659 1131.924715 1134.181799 1137.523602
56.560000 1129.502957 1131.631990 1133.873439 1134.116211 1136.595662 1140.074775
56.660000 1131.373545 1133.847677 1136.024578 1136.384677 1139.011601 1142.754108
56.760000 1133.365485 1136.060188 1138.417657 1138.751109 1141.793654 1145.244244
56.860000 1135.806773 1138.271585 1140.933290 1141.342396 1144.831256 1148.218823
56.960000 1137.819407 1140.338282 1143.265086 1143.686193 1147.275042 1150.818941
57.060000 1140.154659 1142.443381 1145.701445 1145.924677 1149.538557 1153.021703
57.160000 1142.326594 1144.555267 1147.979698 1148.145773 1151.792648 1155.155845
57.260000 1144.102047 1146.858003 1150.296217 1150.444426 1154.073658 1157.314300
57.360000 1146.319613 1149.199433 1152.698372 1152.754354 1156.418980 1159.437535
57.460000 1148.548817 1151.484750 1155.234575 1155.096618 1158.514638 1161.608432
57.560000 1150.760401 1154.091391 1157.654436 1157.535390 1160.796128 1163.827216
57.660000 1153.710607 1156.921763 1160.273340 1160.156764 1163.358526 1166.029518
57.760000 1156.430223 1159.664953 1162.931562 1162.725794 1165.607544 1168.514748
57.860000 1159.243454 1162.577766 1165.410180 1165.280910 1168.099652 1170.638699
57.960000 1162.087499 1165.127999 1167.768870 1167.716995 1170.392220 1173.024375
58.060000 1165.266759 1167.466590 1170.097332 1170.055144 1172.611339 1175.019730
58.160000 1167.884010 1169.897663 1172.610422 1172.448691 1174.804102 1177.362813
58.260000 1170.177501 1172.449635 1175.009238 1174.874928 1177.152866 1179.395411
58.360000 1172.473368 1175.280402 1177.526226 1177.489417 1179.729688 1182.223098
58.460000 1175.034629 1177.695580 1180.095742 1180.008596 1182.206151 1184.890945
58.560000 1177.308109 1179.882429 1182.287836 1182.322962 1184.619669 1187.152702
58.685000 1180.232663 1182.487328 1185.034793 1185.055846 1187.671488 1189.795057
58.810000 1182.706809 1185.046787 1187.718530 1187.650004 1190.249016 1192.482190
58.935000 1185.433783 1187.686663 1190.400400 1190.289822 1192.736187 1195.143300
59.060000 1187.821581 1190.468618 1193.042068 1192.925519 1195.257803 1197.444832
59.160000 1190.513690 1193.153551 1195.448829 1195.416188 1197.707061 1200.213350
59.260000 1193.114880 1195.733929 1197.889219 1197.898126 1200.065141 1202.465636
59.360000 1196.917824 1198.484921 1200.302556 1200.475829 1202.396151 1205.369861
59.460000 1199.001491 1200.797619 1202.671008 1202.899734 1205.142592 1207.942829
59.560000 1201.042258 1202.858604 1204.927689 1205.148380 1207.533330 1209.946543
59.660000 1202.993895 1204.809558 1207.215473 1207.294050 1209.807879 1212.352984
59.760000 1204.781628 1206.865861 1209.395356 1209.432532 1211.984214 1214.115807
59.860000 1206.733049 1209.256601 1211.730994 1211.676983 1214.108234 1216.428934
59.960000 1209.272691 1211.853899 1214.322674 1214.187558 1216.492649 1218.842018
60.060000 1212.290965 1214.584879 1217.149686 1217.075701 1219.371324 1222.137218
60.160000 1215.155389 1217.914680 1220.333296 1220.417370 1222.840393 1225.973714
60.260000 1219.262863 1221.659535 1223.866281 1224.240658 1227.233743 1230.351094
60.360000 1222.461427 1224.812211 1227.403494 1227.737673 1230.967119 1233.683687
60.460000 1225.237025 1227.885252 1231.016387 1230.934765 1233.893836 1236.179332
60.560000 1227.741032 1231.236000 1234.231739 1233.927300 1236.600084 1238.807608
60.660000 1231.098884 1234.087596 1236.673553 1236.461937 1238.798781 1240.800195
60.760000 1233.647203 1236.255750 1238.696832 1238.542565 1240.673011 1242.598152
60.860000 1235.921705 1238.325123 1240.607655 1240.497588 1242.644134 1244.392906
60.960000 1238.323037 1240.368672 1242.408241 1242.370775 1244.355159 1246.143797
61.060000 1240.409465 1242.330261 1244.316329 1244.185363 1246.024899 1247.489027
61.160000 1242.325160 1244.255022 1246.192626 1246.013598 1247.666815 1249.081949
61.260000 1244.310131 1246.262956 1248.033759 1247.902707 1249.484761 1250.630996
61.360000 1246.417681 1248.514636 1250.082052 1250.006852 1251.518921 1252.943452
61.460000 1249.241553 1250.781902 1252.097226 1252.176722 1253.534499 1255.600195
61.560000 1251.995643 1252.966097 1254.045581 1254.255594 1255.586749 1257.622629
61.660000 1253.714663 1254.815391 1255.869566 1256.136299 1257.733585 1259.820926
61.760000 1255.207765 1256.245854 1257.513356 1257.831482 1259.609059 1261.860321
