depth(m) lower_95(kyr) lower_68(kyr) median(kyr) mean(kyr) upper_68(kyr) upper_95(kyr)
84.120000 726.247632 727.525644 728.957518 728.785725 729.984794 730.635083
84.170000 726.737864 727.879779 729.304499 729.138882 730.290782 730.916036
84.220000 727.144163 728.308038 729.670092 729.504977 730.596139 731.179995
84.270000 727.630209 728.738878 730.050756 729.873775 730.921081 731.451480
84.320000 728.118127 729.150837 730.456786 730.257783 731.230545 731.758976
84.370000 728.605234 729.605959 730.838125 730.649399 731.561263 732.046471
84.420000 729.082962 730.063899 731.235329 731.052720 731.910980 732.370411
84.470000 729.527299 730.510497 731.579818 731.426088 732.232287 732.682419
84.520000 730.021276 731.015890 731.958856 731.804091 732.563091 732.960765
84.570000 730.457672 731.450736 732.302328 732.172516 732.870620 733.331421
84.620000 730.942040 731.816607 732.645771 732.543246 733.220541 733.666990
84.670000 731.360106 732.214523 733.006340 732.902793 733.545677 734.015418
84.720000 731.801142 732.620125 733.346950 733.260249 733.882379 734.351750
84.770000 732.228154 732.990785 733.676554 733.610394 734.205030 734.742572
84.820000 732.739309 733.362436 733.997723 733.979313 734.579479 735.205091
84.870000 733.082633 733.778915 734.336463 734.348015 734.953460 735.618628
84.920000 733.481814 734.159983 734.692792 734.729283 735.356454 736.197501
84.970000 733.819781 734.520187 735.071702 735.118559 735.727378 736.613075
85.020000 734.311724 734.891003 735.468497 735.521553 736.149300 737.026780
85.070000 734.669978 735.261496 735.872896 735.922287 736.564532 737.598770
85.120000 735.007253 735.630822 736.271362 736.344130 737.028459 738.091825
85.170000 735.364277 736.025317 736.689747 736.775476 737.542036 738.601354
85.220000 735.868172 736.424263 737.079764 737.209450 737.996515 739.017888
85.270000 736.161809 736.834570 737.534805 737.640871 738.446779 739.571187
85.320000 736.603372 737.214859 737.979790 738.082347 739.006264 739.969646
85.370000 736.930652 737.649465 738.441883 738.542927 739.488589 740.427867
85.470000 737.693321 738.589712 739.468747 739.507240 740.478284 741.514345
85.520000 738.073421 739.016317 739.914431 739.970900 740.935386 741.965988
85.570000 738.548136 739.474795 740.411895 740.446679 741.372246 742.631506
85.670000 739.614360 740.524807 741.425289 741.499888 742.472709 744.050186
85.720000 740.022182 740.942654 741.819048 741.941821 742.943887 744.470370
85.820000 741.039440 741.820293 742.664227 742.820957 743.873782 745.539119
85.870000 741.451985 742.224058 743.096246 743.243378 744.358989 746.012540
85.920000 741.887516 742.598729 743.481549 743.664801 744.763708 746.440475
85.970000 742.318968 743.025338 743.913694 744.098249 745.221740 746.873733
86.070000 743.067069 743.870968 744.822472 744.978546 746.201421 747.697202
86.170000 743.718034 744.621675 745.699425 745.833749 747.100396 748.539299
86.220000 744.069451 745.033944 746.144830 746.263209 747.523935 748.868966
86.270000 744.506270 745.452243 746.635716 746.707931 747.964850 749.221556
86.340000 745.165928 746.127917 747.363714 747.371726 748.574504 749.708092
86.440000 746.167573 747.342274 748.564625 748.533300 749.645994 750.805386
86.490000 746.719411 747.924912 749.133405 749.109922 750.185373 751.407432
86.540000 747.236243 748.513858 749.648913 749.637112 750.683484 751.827900
86.590000 747.939135 749.060380 750.122820 750.149580 751.137075 752.513178
86.640000 748.528386 749.647395 750.619867 750.667117 751.611698 753.102700
86.690000 749.121930 750.203817 751.143408 751.193625 752.132248 753.735551
86.740000 749.682898 750.718367 751.602544 751.696634 752.673878 754.242998
86.790000 750.094864 751.160927 752.058831 752.169071 753.187096 754.734808
86.840000 750.732530 751.617486 752.517209 752.642887 753.684174 755.284099
86.940000 751.631169 752.528339 753.540059 753.668877 754.824931 756.417610
86.990000 751.964044 752.939117 754.013516 754.132062 755.323215 756.895904
87.040000 752.428061 753.350915 754.467250 754.605422 755.955803 757.323059
87.130000 753.052792 754.193902 755.565202 755.623142 757.105852 758.528011
87.180000 753.596343 754.661999 756.078005 756.178385 757.703228 759.246256
87.230000 754.110485 755.214975 756.685994 756.755703 758.304804 759.877170
87.305000 754.831859 756.205475 757.931472 757.912399 759.524177 761.214844
87.380000 756.035920 757.411868 759.110270 759.112042 760.698638 762.506891
87.430000 756.876494 758.374520 759.913295 759.874791 761.415467 762.954729
87.480000 757.551889 759.039133 760.496906 760.523067 762.039803 763.598133
87.530000 758.069584 759.760961 761.067753 761.080692 762.512588 763.977525
87.630000 759.568741 760.791620 762.097063 762.096343 763.397295 764.872092
87.680000 760.151047 761.238398 762.539130 762.525144 763.763791 765.207972
87.780000 761.054614 762.198010 763.427747 763.382590 764.467033 765.822509
87.830000 761.500570 762.638028 763.805907 763.776409 764.796645 766.253363
87.880000 761.931820 763.011991 764.189099 764.155215 765.162244 766.518732
87.980000 762.951442 763.807679 764.874072 764.883251 765.818539 767.317601
88.030000 763.320394 764.202931 765.220605 765.217921 766.122178 767.630389
88.080000 763.562121 764.520634 765.522017 765.529343 766.431668 767.898545
88.130000 763.896599 764.846995 765.869266 765.855995 766.703984 768.264219
88.180000 764.296855 765.167142 766.179223 766.181403 767.006796 768.633331
88.230000 764.680547 765.558862 766.520771 766.514412 767.334522 768.875678
88.280000 765.010916 765.916918 766.838139 766.852430 767.680031 769.236723
88.330000 765.335149 766.262989 767.188330 767.193423 768.027447 769.544215
88.380000 765.739529 766.596980 767.516326 767.538087 768.372997 769.854129
88.430000 766.086762 766.933121 767.828246 767.884606 768.668211 770.313227
88.480000 766.374230 767.281757 768.165176 768.224950 769.024532 770.601542
88.530000 766.762963 767.676789 768.496252 768.564438 769.345794 770.886079
88.580000 767.144672 767.992550 768.825817 768.892620 769.651213 771.225052
88.630000 767.479496 768.355519 769.162483 769.222392 769.999429 771.551666
88.730000 768.210620 769.059847 769.811995 769.883770 770.698190 772.197291
88.780000 768.540728 769.401892 770.156321 770.235069 771.039113 772.444784
88.830000 768.913189 769.747691 770.478994 770.567946 771.383442 772.693938
88.880000 769.249551 770.122652 770.818618 770.903692 771.768545 772.958045
88.930000 769.551794 770.479740 771.111738 771.233578 772.108577 773.292171
88.980000 769.984903 770.811706 771.398958 771.563331 772.425065 773.643867
89.030000 770.365342 771.149591 771.726722 771.908797 772.805892 773.962706
89.080000 770.726078 771.490007 772.044495 772.247103 773.159969 774.366936
89.130000 771.087391 771.811575 772.383426 772.580746 773.544249 774.660629
89.180000 771.493550 772.116660 772.703460 772.897969 773.883466 774.898378
89.280000 772.039070 772.678977 773.275162 773.509748 774.557957 775.537167
89.355000 772.497140 773.070994 773.688514 773.948609 775.049805 775.996271
89.430000 772.999710 773.462458 774.145356 774.392430 775.528725 776.380115
89.480000 773.343896 773.743423 774.424508 774.694051 775.832186 776.638303
89.530000 773.593116 774.049208 774.734541 774.994417 776.117272 776.952582
89.580000 773.888424 774.343957 775.057698 775.287296 776.402242 777.193241
89.630000 774.183061 774.611649 775.368032 775.587226 776.690864 777.392827
89.680000 774.453351 774.901047 775.722458 775.889848 776.966333 777.665678
89.730000 774.767955 775.205173 776.110864 776.205819 777.255237 777.908357
89.830000 775.310966 775.805028 776.804613 776.808716 777.791419 778.459068
89.880000 775.592688 776.135734 777.136314 777.126276 778.066728 778.700621
89.930000 775.895724 776.490848 777.460929 777.444621 778.365554 778.967705
89.980000 776.197355 776.821776 777.769464 777.755755 778.636276 779.251377
90.030000 776.454421 777.192118 778.087401 778.065040 778.912941 779.490370
90.080000 776.735357 777.548237 778.388622 778.365991 779.187029 779.781369
90.130000 777.064885 777.868277 778.680284 778.660628 779.446097 780.019260
90.230000 777.665894 778.517408 779.207756 779.213388 779.968698 780.522494
90.280000 778.013588 778.844822 779.507644 779.503628 780.238780 780.812399
90.330000 778.302506 779.152595 779.791673 779.786855 780.481218 781.081404
90.380000 778.640686 779.476628 780.065948 780.088904 780.763341 781.370849
90.430000 778.995243 779.800619 780.362648 780.386003 781.032020 781.633456
90.480000 779.315644 780.099343 780.689454 780.688148 781.316455 781.908227
90.530000 779.657738 780.431127 780.996818 780.994164 781.618706 782.209204
90.580000 779.968691 780.725063 781.295273 781.296505 781.906466 782.475529
90.680000 780.587950 781.303613 781.854324 781.863216 782.430312 783.021314
90.750000 781.003877 781.736659 782.267921 782.271963 782.851741 783.388458
90.800000 781.365372 782.048260 782.581475 782.578764 783.140435 783.671925
90.850000 781.634468 782.354680 782.897223 782.885682 783.449704 783.948300
90.900000 781.865319 782.653638 783.200706 783.183349 783.730785 784.244033
91.000000 782.559075 783.233958 783.776650 783.752107 784.301525 784.730786
91.050000 782.873864 783.559104 784.065704 784.056783 784.588983 785.038297
91.100000 783.124348 783.845901 784.365796 784.354141 784.893763 785.387005
91.150000 783.457173 784.152736 784.670697 784.649495 785.159350 785.649277
91.200000 783.748040 784.442827 784.963359 784.945342 785.467665 785.930848
91.250000 784.012767 784.720914 785.261281 785.232490 785.764576 786.258878
91.300000 784.290668 785.010074 785.539116 785.514356 786.063514 786.573675
91.400000 784.866609 785.537792 786.070054 786.061943 786.614914 787.109513
91.475000 785.361979 785.968097 786.487114 786.484005 787.030505 787.495407
91.550000 785.799054 786.383089 786.875778 786.903452 787.464453 788.003757
91.600000 786.101194 786.638478 787.163492 787.189874 787.794040 788.301912
91.650000 786.403588 786.926306 787.449531 787.478702 788.062848 788.606553
91.700000 786.685872 787.208059 787.731478 787.759535 788.351169 788.866314
91.750000 786.965261 787.483848 788.023577 788.037549 788.626569 789.161144
91.800000 787.261061 787.752880 788.291016 788.314657 788.917985 789.448456
91.850000 787.537233 788.027807 788.564976 788.592528 789.185889 789.687787
91.925000 787.897192 788.408626 788.970451 788.993488 789.617340 790.080612
92.000000 788.271396 788.829824 789.378110 789.395322 790.001941 790.484199
92.050000 788.567909 789.107463 789.662400 789.678375 790.271327 790.767369
92.150000 789.008454 789.637130 790.187433 790.211034 790.814601 791.307100
92.225000 789.446511 790.025531 790.606007 790.622373 791.231471 791.727791
92.300000 789.847429 790.427485 791.034956 791.030082 791.633605 792.140229
92.400000 790.455157 790.978390 791.609748 791.599305 792.201843 792.715157
92.475000 790.836532 791.394931 792.067630 792.034401 792.647888 793.150216
92.550000 791.328887 791.849086 792.515023 792.480903 793.077558 793.587211
92.600000 791.632819 792.194573 792.825451 792.810420 793.403611 793.918040
92.650000 791.982354 792.561369 793.161201 793.163470 793.744749 794.261304
92.700000 792.330298 792.928647 793.535877 793.532291 794.117244 794.685299
92.800000 792.994342 793.660448 794.274705 794.272820 794.893178 795.526907
92.850000 793.355432 794.035542 794.634320 794.652799 795.286641 795.957636
92.950000 794.124865 794.771615 795.389430 795.401222 796.005560 796.769941
93.050000 795.062720 795.591729 796.221320 796.262115 796.911802 797.686591
93.100000 795.468365 795.998678 796.639945 796.691201 797.389119 798.157698
93.150000 795.834467 796.412673 797.100129 797.146531 797.866146 798.631851
93.200000 796.222751 796.846584 797.619599 797.635058 798.399418 799.291093
93.250000 796.641944 797.363240 798.185896 798.193650 799.021072 799.916166
93.300000 797.159264 797.894292 798.765610 798.799787 799.650486 800.724744
93.400000 798.064501 798.945265 799.884476 799.955116 800.928008 802.392694
93.450000 798.553472 799.322731 800.379001 800.422425 801.378257 802.834415
93.525000 799.020799 800.041792 801.130937 801.183159 802.264985 803.733190
93.600000 799.630715 800.651839 801.820920 801.899030 803.149649 804.730546
93.650000 800.009457 801.144130 802.268626 802.365206 803.619131 805.239455
93.725000 800.662586 801.789653 803.071433 803.154291 804.464736 806.209940
93.800000 801.176597 802.498174 803.919350 803.954822 805.417061 806.860292
93.900000 802.188969 803.525688 805.175322 805.150572 806.741544 808.241686
94.000000 803.303676 804.715957 806.544616 806.437953 808.043629 809.449651
94.100000 804.381788 806.115891 807.819891 807.723243 809.338948 810.718598
94.200000 805.793560 807.444109 809.088130 808.977487 810.483583 811.632450
94.250000 806.168876 808.056973 809.613961 809.484888 810.951238 812.079855
94.300000 806.546489 808.477125 810.110094 809.978444 811.405313 812.570177
94.400000 807.987285 809.700201 811.195760 811.114465 812.527714 813.814113
94.450000 808.479988 810.245065 811.671268 811.624560 813.042224 814.321624
94.500000 809.058119 810.816390 812.187086 812.154405 813.590324 814.852157
94.550000 809.673905 811.316518 812.844894 812.732000 814.238886 815.287927
94.600000 810.228688 811.906037 813.422230 813.337808 814.790131 815.754246
94.700000 812.632115 813.903281 815.150212 815.042339 816.101798 817.062016
94.750000 813.082232 814.521001 815.657215 815.588111 816.636883 817.555540
94.800000 813.583262 815.050456 816.185330 816.053581 817.048495 817.921360
94.850000 814.309163 815.617804 816.656789 816.543217 817.458248 818.344272
94.900000 814.827943 816.128733 817.088493 817.012954 817.910153 818.715353
94.950000 815.479736 816.633047 817.535309 817.471341 818.336417 819.145859
95.000000 816.130311 817.168892 817.961404 817.946999 818.758080 819.547445
95.050000 816.832214 817.742178 818.451753 818.461226 819.204759 820.055140
95.100000 817.443710 818.203327 818.895231 818.929224 819.693633 820.520090
95.150000 817.985174 818.709758 819.353855 819.407819 820.159751 821.070972
95.200000 818.446841 819.154261 819.741883 819.850267 820.579817 821.648112
95.250000 818.871119 819.535044 820.152315 820.250284 820.983512 822.122320
95.300000 819.266399 819.910754 820.510721 820.624119 821.406489 822.479776
95.350000 819.704283 820.224401 820.861620 820.999945 821.784156 822.855820
95.450000 820.255029 820.844766 821.608479 821.715467 822.609563 823.723790
95.500000 820.580006 821.126208 821.951179 822.072105 823.056135 824.212781
95.550000 820.864114 821.422979 822.277238 822.414875 823.413613 824.658418
95.650000 821.426064 821.953312 822.981234 823.065975 824.186025 825.287574
95.700000 821.698253 822.232981 823.335369 823.409454 824.595630 825.652658
95.750000 822.001354 822.527300 823.666042 823.745049 824.988389 825.984076
95.800000 822.369251 822.830304 824.035944 824.095123 825.343780 826.372044
95.850000 822.607053 823.131751 824.377520 824.454483 825.757391 826.717060
95.900000 822.881301 823.436173 824.743025 824.811719 826.144569 827.063664
95.950000 823.178077 823.764866 825.131831 825.183940 826.493395 827.393605
96.000000 823.465564 824.120582 825.504655 825.573079 826.912278 827.908249
96.060000 823.790879 824.551950 826.002210 826.068455 827.522141 828.773612
96.110000 824.018019 824.926690 826.456093 826.489925 827.977562 829.492936
96.150000 824.263336 825.234097 826.774922 826.834088 828.318292 829.955046
96.200000 824.585764 825.693468 827.299739 827.396563 828.900800 831.378680
96.275000 825.279736 826.777096 828.957297 830.069481 834.947640 837.946486
96.350000 826.330935 828.409491 832.386249 832.749579 837.468606 839.020437
96.400000 826.789892 828.924822 833.396307 833.366129 837.893555 839.388685
96.500000 828.110713 830.917416 836.851979 835.580844 839.079274 840.229583
96.550000 828.512405 831.476390 837.340465 836.060328 839.453919 840.587281
96.600000 828.968727 831.959715 837.842634 836.521372 839.852055 840.846410
96.710000 830.303490 835.228638 839.299171 838.214569 840.741500 841.622578
96.810000 832.215524 837.451749 840.329700 839.541424 841.414751 842.404796
96.910000 836.126938 839.464706 841.291862 840.817049 842.144126 843.159772
96.960000 836.628396 840.031014 841.676299 841.225886 842.467158 843.538434
97.010000 837.090845 840.486405 842.024467 841.589491 842.725482 843.888442
97.060000 837.516042 840.913749 842.354072 841.963247 843.034433 844.255677
97.160000 839.296028 841.973115 843.005133 842.778172 843.627750 844.952334
97.210000 839.778731 842.441844 843.341845 843.134877 843.943567 845.179332
97.260000 840.328106 842.806073 843.661515 843.487274 844.294000 845.475742
97.310000 840.753196 843.211104 843.987756 843.849827 844.635151 846.037499
97.360000 841.205427 843.636123 844.323296 844.233103 845.021618 846.519545
97.410000 841.670162 843.986166 844.677804 844.625266 845.372667 846.859043
97.460000 842.310077 844.367360 845.056672 845.028866 845.803193 847.295034
97.510000 842.815566 844.747381 845.450148 845.441919 846.251779 847.727282
97.560000 843.270659 845.071803 845.809911 845.839137 846.703400 848.190342
97.610000 843.716559 845.436337 846.177568 846.244071 847.149841 848.615458
97.710000 844.872132 846.172400 846.977908 847.069411 848.137055 849.364629
97.760000 845.451223 846.557870 847.360704 847.451329 848.541557 849.675744
97.860000 846.389284 847.212368 848.170153 848.231349 849.288596 850.288879
97.910000 846.735419 847.545460 848.579712 848.600348 849.697425 850.615391
97.985000 847.204480 848.094096 849.170301 849.171585 850.253511 851.134286
98.060000 847.746227 848.665632 849.769083 849.729279 850.780391 851.655849
98.160000 848.567094 849.453907 850.571410 850.520324 851.487583 852.269922
98.260000 849.209521 850.349518 851.381021 851.305413 852.201280 853.080571
98.310000 849.587409 850.715038 851.727124 851.684476 852.592388 853.405218
98.360000 850.078739 851.120815 852.107258 852.040955 852.903155 853.777691
98.460000 850.823151 851.881180 852.757328 852.717624 853.546747 854.491034
98.510000 851.273047 852.243164 853.081411 853.067736 853.885763 854.880277
98.585000 851.823686 852.810843 853.532357 853.564773 854.403690 855.324527
98.660000 852.303524 853.293054 854.009508 854.062528 854.910522 855.795191
98.710000 852.703918 853.614098 854.335612 854.388820 855.221439 856.115773
98.760000 853.073262 853.926858 854.677514 854.719477 855.534352 856.449119
98.810000 853.437552 854.217434 854.999857 855.041725 855.865183 856.753943
98.860000 853.740281 854.532107 855.332579 855.364459 856.218679 857.051568
98.910000 854.102313 854.840443 855.652411 855.700333 856.583070 857.387716
98.960000 854.390157 855.152079 856.012168 856.053324 856.928058 857.835390
99.010000 854.732761 855.525825 856.366317 856.418357 857.324988 858.391132
99.110000 855.267726 856.214818 857.096185 857.123677 858.043065 859.104715
99.160000 855.654349 856.548323 857.452365 857.464722 858.398576 859.492907
99.210000 856.032539 856.863326 857.785052 857.798635 858.764108 859.803489
99.260000 856.280715 857.200408 858.096596 858.147891 859.100936 860.101752
99.360000 856.966806 857.879126 858.765348 858.819227 859.795791 860.754178
99.410000 857.346029 858.266461 859.105512 859.162475 860.161180 861.088914
99.510000 858.065929 858.881801 859.836425 859.862860 860.857937 861.838229
99.560000 858.439833 859.294077 860.190946 860.231721 861.252334 862.172019
99.635000 858.954699 859.797357 860.781778 860.811318 861.839416 862.766328
99.710000 859.534694 860.422565 861.368705 861.404499 862.462506 863.252971
99.810000 860.252813 861.213376 862.095814 862.175360 863.299194 863.991320
99.860000 860.535909 861.521510 862.476717 862.516988 863.635928 864.255390
99.910000 860.840950 861.845541 862.810388 862.839565 863.933337 864.592317
99.960000 861.182336 862.176119 863.122075 863.152913 864.248817 864.858754
100.035000 861.632196 862.631963 863.567533 863.600390 864.665500 865.187217
100.110000 862.105842 863.083537 864.047537 864.046447 865.105101 865.630531
