depth(m) lower_95(kyr) lower_68(kyr) median(kyr) mean(kyr) upper_68(kyr) upper_95(kyr)
44.510000 637.952700 648.051243 654.331478 653.620928 659.140755 664.187309
44.643333 639.371694 649.574278 655.691373 654.949300 660.249625 665.469768
44.776667 641.112614 650.966315 656.967622 656.337085 661.580967 666.535284
44.910000 642.976220 652.308792 658.264729 657.662072 662.841390 667.693588
45.043333 644.488617 653.750848 659.524067 658.971310 664.053611 668.608634
45.176667 646.493923 655.207572 660.761865 660.224235 665.212335 669.440531
45.310000 647.532646 656.466279 661.877668 661.432291 666.154445 670.603343
45.451176 648.774604 658.051356 663.157999 662.696350 667.234053 671.719331
45.592353 650.624595 659.493448 664.292828 663.923717 668.518483 672.825580
45.733529 652.021562 660.795784 665.419136 665.150367 669.766678 673.869403
45.874706 654.280899 662.103419 666.605948 666.356066 670.898961 675.078752
46.015882 656.357859 663.287563 667.745661 667.526268 671.963632 676.394386
46.157059 657.800914 664.617629 668.966801 668.735219 672.982820 677.441693
46.298235 659.542441 665.769942 670.121283 669.900746 673.881942 678.457261
46.439412 660.903274 667.156271 671.390682 671.121541 674.993108 679.596073
46.580588 663.189480 668.422666 672.540585 672.334587 676.099396 680.364125
46.721765 664.799961 669.811485 673.668125 673.536224 677.153439 681.385050
46.862941 666.090564 671.191709 674.758575 674.745463 678.201529 682.334675
47.004118 667.579111 672.384548 675.858262 675.929674 679.293192 683.182654
47.145294 669.134876 673.569176 677.113935 677.163082 680.428765 684.205900
47.286471 670.617179 674.700796 678.295105 678.345551 681.478385 685.630335
47.427647 671.679542 675.928942 679.470137 679.507489 682.632283 686.629052
47.568824 673.252029 677.142446 680.613779 680.691896 683.691049 687.561830
47.710000 674.571294 678.285407 681.684623 681.866568 684.620862 688.786745
47.830000 675.616387 679.243042 682.685343 682.902754 685.617680 690.806826
47.950000 677.113314 680.311228 683.721247 683.949362 686.584200 691.822926
48.070000 678.225783 681.299283 684.706522 684.982645 687.492010 692.635958
48.190000 679.526488 682.288894 685.714138 686.079619 688.384671 693.841945
48.310000 680.464996 683.230300 686.864833 687.180591 689.465755 695.172836
48.410000 681.227249 684.096163 687.895519 688.074429 690.223867 695.992102
48.510000 682.170030 684.941052 688.906579 689.006929 691.130721 697.703032
48.520000 682.249760 685.045117 689.025410 689.108773 691.245542 697.793662
48.658000 683.270529 686.493345 690.491645 690.632163 693.546373 703.844543
48.796000 684.600483 687.970075 691.820295 692.136604 695.123273 709.156854
48.934000 685.601507 689.203584 693.102058 693.701280 697.054655 710.944717
49.072000 686.544114 690.407631 694.478510 695.264339 699.266275 714.492267
49.210000 687.578419 691.544160 695.791892 696.814027 701.121607 716.844462
49.343333 688.199455 692.806334 697.379790 698.487632 703.227450 719.152031
49.476667 689.169745 694.086636 699.044055 700.168985 705.163962 720.788690
49.610000 690.343808 695.794833 700.915267 701.925867 707.157984 722.771373
49.743333 691.257700 697.531132 702.974901 703.615476 709.066305 725.377184
49.876667 692.130362 699.048644 704.819709 705.225596 710.671987 728.155284
50.010000 692.978942 700.526544 706.766892 706.837415 712.276454 730.868188
50.020000 693.096312 700.632816 706.890731 706.949063 712.369956 731.103444
50.158000 695.164721 702.204930 708.620013 708.632096 713.697448 733.001842
50.296000 697.269619 703.904045 710.190648 710.341717 715.034829 734.908136
50.434000 699.509705 705.916225 711.751270 712.034294 716.304894 737.041548
50.572000 702.094166 707.703826 712.965241 713.741458 717.482342 738.726200
50.710000 703.787566 709.522311 714.478371 715.436955 718.772862 740.358036
50.843333 705.361024 711.056073 715.774218 716.809755 719.889053 742.019534
50.976667 706.735827 712.601149 716.886208 718.212798 721.320935 743.040565
51.110000 708.797635 714.183336 718.094428 719.615535 722.786258 744.312451
51.243333 710.365801 715.492874 719.317374 721.040833 724.215396 745.962445
51.376667 712.334869 716.944689 720.535103 722.475257 725.247589 747.502827
51.510000 714.315324 718.416192 721.821329 723.956056 726.739550 748.843946
51.647500 716.517128 720.180240 723.404002 725.689331 727.799631 750.417786
51.785000 718.461382 721.986655 725.201486 727.486664 729.337396 752.340886
51.922500 720.987010 723.747754 727.050636 729.337514 730.741381 754.250585
52.060000 722.830963 725.443649 728.812953 731.130078 732.367370 755.964228
52.135000 723.625978 726.537711 729.691625 732.089173 733.350993 757.075413
52.210000 724.475796 727.477123 730.706502 733.105924 734.372666 757.922402
52.340000 725.987013 729.418556 732.696841 735.034695 736.778937 759.567685
52.470000 728.214190 731.478693 734.483844 737.094871 738.928135 761.959256
52.600000 730.566312 733.598753 736.480729 739.077734 741.382079 763.641283
52.730000 732.648539 735.643500 738.379211 741.090271 743.790893 765.398861
52.860000 734.824299 737.736362 740.334645 743.091575 746.422649 766.904374
52.935000 735.775806 738.839525 741.538095 744.256000 747.596601 767.574050
53.010000 736.674459 739.927869 742.777085 745.452039 748.820358 768.374710
53.147500 738.373634 742.054938 745.510881 747.858068 751.481011 770.922033
53.285000 740.060513 744.155661 748.337661 750.326831 754.002280 772.545206
53.422500 741.403069 746.750406 751.136627 752.882063 757.127413 774.105162
53.560000 743.094197 749.678980 753.984327 755.397054 759.603202 775.292442
53.703750 744.674282 752.085364 756.658882 758.041237 763.752435 777.052510
53.847500 746.128544 754.467294 759.396186 760.741026 767.214055 779.136957
53.991250 747.622512 757.129532 762.153017 763.375908 770.368246 781.672834
54.135000 749.080615 759.784761 764.845930 766.150593 773.248195 784.204435
54.278750 750.538245 762.515851 768.450826 768.971133 775.903014 785.992754
54.422500 752.128708 765.465129 771.526889 771.802731 779.107424 788.068272
54.566250 753.559059 768.475521 774.573786 774.729211 781.792724 790.382309
54.710000 754.777533 771.551895 777.674395 777.643175 784.671846 792.920169
54.853750 755.990460 774.801222 780.685460 780.529026 787.172555 794.596386
54.997500 757.227824 777.895586 784.051125 783.528265 789.828396 796.416695
55.141250 758.330974 781.149877 787.224360 786.592119 792.573921 798.942175
55.285000 759.221965 784.554733 790.207409 789.567439 795.606451 801.552484
55.428750 760.405504 787.854639 792.946767 792.339078 798.212425 804.156503
55.572500 761.273181 790.961418 796.027660 795.230572 801.021912 806.296645
55.716250 762.473264 794.620753 798.618133 798.035469 803.443081 808.183512
55.860000 763.841542 797.719803 801.415674 800.811737 805.803293 810.424726
56.000000 767.046799 800.041279 803.884273 803.121693 807.912972 812.567952
56.140000 770.034704 802.212073 806.192290 805.405170 810.115382 815.365140
56.280000 772.758270 804.555487 808.417231 807.619180 812.311592 819.111467
56.420000 774.168816 806.572637 810.580855 809.723672 814.410264 821.315133
56.560000 776.158357 809.012931 812.776968 811.969481 816.268850 823.782908
56.701667 780.080457 811.179550 815.056028 814.440985 819.049701 827.496605
56.843333 791.390474 813.316991 817.451333 816.891001 821.983025 830.567798
56.985000 793.179441 815.476434 819.931895 819.362856 824.543858 832.742648
57.126667 799.500486 817.809462 822.342371 821.908403 827.404680 834.975357
57.268333 803.264807 820.087115 824.825434 824.327091 829.824685 837.920839
57.410000 807.529732 822.366367 827.093136 826.742142 832.374142 840.383558
57.551667 812.753878 824.547401 829.484564 829.194491 834.948113 842.512759
57.693333 815.185536 826.711668 831.936414 831.576768 837.571235 844.839604
57.835000 818.473811 828.754781 834.260273 834.095382 840.297295 846.914508
57.976667 821.230357 831.047497 836.617370 836.419306 842.818518 849.437064
58.118333 823.104357 833.062501 838.870172 838.801886 845.150768 852.030184
58.260000 825.328828 835.230776 841.170185 841.159257 847.616602 854.429827
58.401667 827.797157 837.402219 843.367331 843.476281 850.172514 856.960067
58.543333 830.397266 840.032436 845.758758 845.803802 852.525894 859.426390
58.685000 832.794356 842.285074 848.113645 848.140560 854.913441 861.860452
58.826667 835.546371 844.653290 850.393093 850.458972 857.026373 864.723960
58.968333 837.190823 846.788081 852.927853 852.738612 859.014483 866.340522
59.110000 839.568957 849.140230 855.498060 855.071306 861.097465 868.301174
59.246364 842.640851 851.542789 857.496325 857.157306 862.945419 869.768666
59.382727 844.679237 853.790664 859.635241 859.339953 864.912446 871.136604
59.519091 847.594839 856.238838 861.732326 861.503647 867.075372 872.464828
59.655455 852.450853 858.752274 864.074677 863.714608 869.120897 873.768053
59.791818 855.260020 861.171458 866.169067 865.916447 871.116707 875.189681
59.928182 857.721524 863.348370 868.288904 868.059893 872.981215 876.990418
60.064545 860.932169 865.821657 870.420704 870.212848 874.839773 878.490195
60.200909 863.872973 868.319799 872.295622 872.309890 876.672273 879.945145
60.337273 866.626578 870.706135 874.426713 874.461694 878.493408 881.389711
60.473636 869.517146 872.623862 876.410918 876.432291 880.215353 882.848877
60.610000 872.152643 874.473934 878.506144 878.325811 881.867166 884.341006
60.743333 873.624231 876.098740 880.413843 879.997152 883.519868 885.765444
60.876667 875.127482 877.544529 882.295765 881.624986 885.016574 887.520405
61.010000 876.240414 878.860218 883.911213 883.207176 886.640854 889.581911
61.110000 877.259405 879.883226 885.089056 884.323158 887.753044 891.003829
61.210000 878.276485 880.904568 886.212561 885.429969 888.795914 892.431551
61.310000 879.385434 881.927352 887.233445 886.509140 889.853858 893.467536
61.435000 880.733141 883.401645 888.517525 887.911536 891.139797 895.652166
61.560000 882.290165 884.705295 889.756199 889.341580 892.345269 899.704595
61.685000 883.736370 886.096794 891.044664 890.701279 893.530258 902.591078
61.810000 885.122275 887.582893 892.285255 892.085950 894.874606 905.367342
61.910000 886.135542 888.632707 893.302796 893.149109 895.670544 908.196044
62.010000 887.052501 889.759470 894.235889 894.168474 896.609704 909.558808
62.110000 888.011426 890.925336 895.157434 895.199658 897.566752 911.494750
62.243333 889.362840 892.474466 896.383240 896.521586 898.901805 913.192646
62.376667 890.768663 893.865425 897.635425 897.835625 900.134406 915.548351
62.510000 892.148205 895.301527 898.821602 899.185292 901.377646 917.391628
62.643333 893.774512 896.668626 900.091594 900.538494 902.709725 918.958701
62.776667 895.231903 898.122980 901.387804 901.920841 903.988456 920.256646
62.910000 896.523815 899.655630 902.705427 903.316306 905.374149 921.898428
63.043333 898.135172 901.134350 904.011325 904.677918 906.704592 923.593638
63.176667 899.663187 902.501516 905.275210 906.061426 908.079945 925.044253
63.310000 901.130466 903.988221 906.605496 907.485454 909.461681 926.496972
63.450000 902.518714 905.318327 907.901452 908.944831 910.975981 927.972198
63.590000 903.836121 906.622358 909.277268 910.405634 912.502282 929.516158
63.730000 905.258567 908.012032 910.646617 911.860057 913.888790 930.794896
63.870000 906.937966 909.471225 911.974738 913.325325 915.181012 931.959892
64.010000 908.368800 911.012602 913.482091 914.843525 916.595157 933.405093
64.143333 909.972826 912.437324 915.011166 916.453136 918.407626 934.836931
64.276667 911.573825 914.005794 916.639935 918.158881 920.812949 936.192541
64.410000 913.337875 915.510096 918.365302 919.892349 923.466146 937.522276
64.543333 914.841418 917.119347 919.995926 921.654462 925.792437 938.654369
64.676667 916.600052 918.844072 921.819082 923.535623 927.984200 940.401354
64.810000 918.120748 920.599003 923.677234 925.467682 930.284739 942.352675
64.950000 920.112015 922.743384 926.622227 928.363660 933.952194 944.747011
65.090000 922.211215 925.118192 930.154657 931.379015 937.197929 946.966601
65.230000 924.260008 927.734489 933.648420 934.441028 941.039675 950.343153
65.370000 926.307496 930.240232 937.355379 937.555833 943.877468 953.714970
65.510000 928.558880 933.425164 940.178529 940.426246 946.468518 956.996488
65.651111 930.530480 935.765213 942.102787 942.556145 948.521036 959.228865
65.792222 932.043366 937.977362 943.922644 944.623151 950.164085 962.298018
65.933333 933.834262 940.364838 945.897807 946.700631 951.718306 964.790906
66.074444 936.281081 943.001353 947.977965 948.821727 953.078183 967.886924
66.215556 938.439389 945.238545 949.792478 950.835153 954.345838 970.521690
66.356667 940.059960 947.559897 951.639690 952.795097 955.785402 972.535772
66.497778 941.854044 949.977373 953.516122 954.811572 956.938823 975.521924
66.638889 943.510106 952.542017 955.325267 956.833654 958.148025 978.341979
66.780000 945.143544 955.055016 957.142301 958.834957 959.484259 980.682367
66.895000 946.221836 957.201990 958.825286 960.657291 961.517211 982.254815
67.010000 948.042125 959.238497 960.678814 962.505590 963.405643 983.697644
67.143333 949.333284 961.202441 963.335559 965.275563 969.288832 985.735726
67.276667 950.813645 963.179606 966.351402 968.008101 973.711688 988.078725
67.410000 952.179984 965.511510 969.646382 970.838603 976.974405 989.452092
67.543333 953.901567 968.215527 973.174984 973.755125 979.406852 991.180123
67.676667 955.449093 971.366804 976.577110 976.567590 982.111223 992.579575
67.810000 957.652162 974.827864 979.543107 979.392495 984.521835 994.297540
67.927500 960.922743 976.784695 981.469884 981.486278 986.796944 995.814587
68.045000 965.713936 978.685614 983.346265 983.486608 989.150644 997.518211
68.162500 968.772934 980.533984 985.264121 985.424874 991.412117 998.965784
68.280000 972.506886 982.625688 987.143767 987.429326 993.746204 1000.486175
68.413333 975.536393 984.943227 989.726732 989.821651 995.999525 1001.805071
68.546667 977.608659 987.278895 992.000709 992.104602 998.231912 1003.796249
68.680000 979.195911 989.855174 994.684109 994.536102 1000.499950 1005.122332
68.813333 981.596634 992.588298 997.462322 997.001453 1002.382143 1007.079514
68.946667 983.116190 995.341816 1000.008960 999.470156 1004.290169 1008.587825
69.080000 985.433577 998.046086 1002.647954 1001.878915 1006.399482 1010.195019
69.220000 987.496836 1000.693353 1005.149136 1004.416765 1008.799196 1013.234235
69.360000 989.933411 1003.393146 1007.581404 1006.968803 1011.516120 1015.272821
69.500000 992.359072 1005.609009 1010.061770 1009.457408 1013.943647 1017.809792
69.640000 994.537496 1008.165283 1012.427254 1011.900123 1015.987222 1020.271138
69.780000 996.678100 1010.797732 1014.957265 1014.416205 1018.425290 1022.697542
69.913333 998.100793 1013.304548 1017.426638 1016.906151 1020.941494 1025.453872
70.046667 1000.937134 1015.762426 1019.969660 1019.433093 1023.738920 1027.792589
70.180000 1005.156644 1018.301647 1022.291204 1021.878461 1026.105778 1030.163322
70.313333 1010.050865 1020.932790 1024.710891 1024.319266 1028.616059 1032.048848
70.446667 1015.760311 1023.362401 1027.431168 1026.913898 1031.343720 1034.319959
70.580000 1019.971806 1026.038754 1029.987229 1029.421986 1033.570619 1036.388355
70.720000 1022.483213 1028.863401 1032.653510 1032.170131 1036.367402 1039.325860
70.860000 1024.924814 1031.585227 1035.632394 1035.013398 1038.981933 1042.271797
71.000000 1029.347992 1034.747258 1038.409494 1037.999186 1041.679587 1045.216410
71.140000 1033.462524 1037.729547 1041.003537 1040.809559 1044.309142 1048.130893
71.280000 1038.455165 1040.886702 1043.582361 1043.645505 1047.067369 1050.639821
71.413333 1040.191756 1043.222829 1046.243938 1046.262946 1049.927018 1053.942843
71.546667 1042.411517 1045.679956 1048.890408 1048.987076 1052.891062 1056.408511
71.680000 1044.598577 1048.178019 1051.650497 1051.624790 1055.714817 1058.712358
71.813333 1046.482692 1050.882002 1054.582356 1054.320596 1058.496789 1061.437372
71.946667 1049.002919 1053.562133 1057.529551 1057.082858 1061.025215 1063.565268
72.080000 1051.802644 1056.245281 1060.377416 1059.785334 1063.592310 1065.695667
72.220000 1054.926787 1059.046037 1063.380725 1062.842899 1066.815726 1069.878599
72.360000 1057.722473 1062.006968 1066.261625 1065.879502 1069.896579 1073.584355
72.500000 1061.217448 1065.123566 1069.177120 1069.015656 1073.060841 1076.325793
72.640000 1064.468346 1068.330558 1072.311148 1072.122232 1076.188646 1078.626178
72.780000 1068.555602 1071.248083 1075.526034 1075.239294 1079.106492 1081.468080
72.913333 1071.202004 1074.165925 1078.704762 1078.394823 1082.170779 1086.787675
73.046667 1073.446189 1077.083057 1081.700255 1081.676507 1085.873444 1091.667408
73.180000 1075.752317 1080.299238 1084.883415 1084.887713 1089.337733 1095.765317
73.313333 1078.427282 1083.191837 1087.427357 1087.918323 1092.580997 1099.045661
73.446667 1081.566762 1086.310747 1090.392276 1090.907582 1095.699796 1102.485587
73.580000 1084.654927 1088.832940 1093.258825 1093.769042 1098.978409 1105.264012
73.696667 1086.671725 1090.787074 1095.533162 1096.076715 1101.430012 1107.052180
73.813333 1088.634697 1092.852581 1097.848330 1098.388967 1103.827696 1110.174545
73.930000 1090.184915 1094.885942 1100.084675 1100.594244 1106.684662 1112.508816
74.063333 1092.026303 1096.987314 1102.887124 1103.122359 1109.595786 1114.797277
74.196667 1093.523087 1099.046791 1105.393633 1105.469568 1112.130157 1117.385675
74.330000 1095.267413 1101.227943 1107.885275 1107.845650 1114.772413 1120.003648
74.463333 1096.882939 1103.083621 1110.197407 1110.133534 1117.134693 1122.128799
74.596667 1099.298553 1104.974891 1112.629697 1112.398710 1119.624400 1124.581298
74.730000 1101.095389 1107.426112 1114.602094 1114.623979 1122.093138 1126.602348
74.870000 1103.133540 1109.769699 1117.070809 1116.917922 1124.031111 1128.923290
75.010000 1104.643715 1112.102984 1119.825596 1119.226999 1126.196799 1131.826658
75.150000 1106.224675 1114.500716 1122.099957 1121.541382 1128.159174 1134.699063
75.290000 1108.197506 1117.283418 1124.474509 1123.819193 1130.277260 1137.296590
75.430000 1109.748135 1119.910142 1126.472740 1125.961453 1132.215181 1139.639989
75.563333 1111.768830 1121.568855 1128.326385 1127.904618 1134.404303 1142.909247
75.696667 1113.665920 1123.309512 1130.213396 1129.809143 1136.632853 1145.227745
75.830000 1115.480067 1124.984353 1131.752647 1131.661924 1138.605443 1147.572348
75.963333 1117.938942 1126.678732 1133.490877 1133.540276 1140.707020 1150.168756
76.096667 1120.189948 1128.116424 1135.172466 1135.392737 1142.735714 1153.259053
76.230000 1121.906863 1129.802526 1136.743161 1137.304516 1144.631466 1155.950820
76.366364 1123.846306 1131.305478 1138.553592 1139.331186 1147.927348 1158.072569
76.502727 1125.471805 1132.813488 1140.319562 1141.414160 1151.073926 1160.428170
76.639091 1127.378555 1134.640193 1141.862925 1143.531120 1155.010363 1163.438432
76.775455 1128.687338 1136.255793 1143.664687 1145.538494 1157.812179 1166.324325
76.911818 1130.387018 1137.871107 1145.349126 1147.652713 1161.240764 1169.189260
77.048182 1132.193426 1139.485142 1147.125234 1149.690871 1163.762721 1171.670863
77.184545 1134.195978 1141.306588 1148.895226 1151.896616 1167.036818 1173.789880
77.320909 1136.206024 1142.781191 1150.467598 1153.960377 1170.034110 1175.870228
77.457273 1138.004795 1144.532935 1152.255839 1156.042222 1172.810172 1177.790124
77.593636 1139.677704 1146.295428 1154.053994 1158.185374 1175.649992 1179.958889
77.730000 1141.841153 1148.242359 1155.875228 1160.405954 1178.465184 1181.789768
77.846667 1143.723404 1150.251099 1157.871606 1162.450954 1180.164357 1183.445924
77.963333 1146.027937 1152.427164 1160.018804 1164.569986 1181.722415 1184.962510
78.080000 1148.006873 1154.528930 1162.124457 1166.680500 1183.455091 1186.449200
78.213333 1151.023260 1157.457961 1166.270867 1169.755805 1185.188519 1188.015722
78.346667 1154.189920 1160.363397 1171.033212 1172.875631 1187.021657 1189.794608
