depth(m) lower_95(kyr) lower_68(kyr) median(kyr) mean(kyr) upper_68(kyr) upper_95(kyr)
99.340000 630.475743 632.367027 635.295757 635.372372 638.236849 640.326059
99.440000 631.177400 633.076541 636.080339 636.146895 639.112721 641.022668
99.540000 631.849266 633.910930 636.877943 636.912074 639.862106 641.604597
99.640000 632.636511 634.745289 637.684068 637.670963 640.556423 642.245894
99.715000 633.200872 635.351116 638.279166 638.241960 641.074927 642.771728
99.790000 633.798497 636.041455 638.924614 638.817887 641.633249 643.186128
99.865000 634.306805 636.666936 639.522303 639.389163 642.200603 643.659922
99.940000 634.897265 637.147618 640.138847 639.959147 642.688045 644.149233
100.035000 635.528931 637.845118 640.851044 640.658382 643.310048 644.826585
100.110000 636.132807 638.494658 641.434592 641.226228 643.792582 645.512745
100.185000 636.626520 639.054615 642.013068 641.772101 644.295040 646.104337
100.260000 637.243181 639.583930 642.615040 642.319606 644.822582 646.721628
100.335000 637.749668 640.069555 643.219720 642.857845 645.309436 647.222696
100.410000 638.282774 640.581784 643.730243 643.392529 645.787340 647.824303
100.485000 638.728700 641.076063 644.254791 643.922107 646.304813 648.268164
100.585000 639.431798 641.771345 644.966641 644.603334 646.953555 649.143779
100.685000 640.149182 642.578133 645.697648 645.313206 647.563137 650.095465
100.785000 640.797636 643.256805 646.412464 646.034053 648.241260 650.977994
100.860000 641.368967 643.835415 646.992235 646.580439 648.692665 651.651554
100.935000 642.102117 644.371015 647.540769 647.138294 649.213599 652.110885
101.010000 642.794181 644.982963 648.038458 647.681809 649.678989 652.628216
101.085000 643.390328 645.502601 648.571186 648.246709 650.300627 653.521450
101.160000 644.053003 646.054887 649.102096 648.809872 650.907073 654.084306
101.235000 644.695657 646.670798 649.579975 649.382591 651.572633 654.643108
101.310000 645.257926 647.249856 650.082911 649.942375 652.129331 655.119244
101.385000 645.806534 647.943449 650.589404 650.528958 652.755241 655.674209
101.460000 646.408997 648.684471 651.099366 651.104375 653.470558 656.401596
101.535000 646.966568 649.295065 651.614994 651.677612 654.133997 656.936840
101.610000 647.526052 649.979911 652.122765 652.246591 654.701212 657.279986
101.685000 648.025158 650.663580 652.625361 652.828948 655.311764 657.936869
101.785000 648.885433 651.594145 653.325824 653.617760 656.134743 658.821667
101.885000 649.548595 652.455361 654.084488 654.413391 656.981160 659.841651
101.985000 650.484306 653.268520 654.743465 655.211632 657.743882 660.661462
102.060000 651.154582 653.866996 655.326305 655.838724 658.377878 661.389086
102.135000 651.898266 654.466166 655.938276 656.485576 659.195491 662.145743
102.210000 652.572668 655.046776 656.610472 657.162546 659.840371 662.681695
102.285000 653.231090 655.706328 657.302542 657.882499 660.540510 663.805872
102.360000 653.855401 656.318145 658.025089 658.589416 661.117121 664.623843
102.435000 654.439301 656.940896 658.754067 659.282280 661.977732 665.372916
102.510000 655.368267 657.558737 659.409673 659.952978 662.707328 666.019517
102.585000 656.212251 658.203699 660.102229 660.644363 663.480548 666.785709
102.685000 657.174234 658.980178 661.266750 661.632876 664.519559 668.081324
102.785000 658.069414 659.833047 662.343674 662.614033 665.490777 669.131181
102.885000 658.646645 660.684202 663.281804 663.552111 666.582159 669.946280
102.960000 659.156922 661.395056 664.013668 664.303290 667.454557 670.671833
103.035000 659.809095 662.018215 664.743173 665.034081 668.158070 671.361862
103.110000 660.607861 662.745288 665.653636 665.812222 668.812756 672.150338
103.185000 661.391367 663.447617 666.478876 666.590145 669.594650 672.892143
103.260000 662.234465 664.062208 667.317416 667.359875 670.275381 673.621601
103.335000 662.718302 664.779338 668.127368 668.144129 671.125910 674.375346
103.410000 663.579939 665.615558 668.865082 668.931536 671.899988 675.135247
103.485000 664.447362 666.386031 669.773381 669.742356 672.822894 675.966580
103.585000 665.353351 667.537030 670.926331 670.929917 674.065281 677.471773
103.685000 666.209325 668.646992 672.123771 672.067636 675.264133 678.562679
103.785000 667.287025 669.697025 673.189628 673.210774 676.337864 680.026088
103.860000 667.906130 670.647980 674.067125 674.077966 677.161174 680.978743
103.935000 668.625796 671.448672 674.896661 674.933116 678.102334 682.027771
104.010000 669.367961 672.358147 675.703091 675.785105 678.877105 682.683971
104.085000 670.106942 673.160591 676.615389 676.641950 679.950620 683.718832
104.185000 671.293030 674.390396 677.947483 678.067368 681.620576 685.781219
104.285000 672.455538 675.713293 679.335519 679.608398 683.886409 687.947111
104.385000 673.594123 676.975351 680.707838 681.046013 685.280833 689.590462
104.460000 674.526935 678.025175 681.898162 682.237781 686.677589 691.118922
104.535000 675.317234 678.986116 682.974236 683.363170 688.037454 692.989770
104.610000 676.193139 679.909380 684.003596 684.510597 689.361904 694.536641
104.685000 677.250190 680.948378 685.207981 685.728818 690.643258 696.237225
104.797500 678.602139 683.328684 689.110908 689.563275 696.575813 700.823368
104.910000 680.933857 686.497392 694.650525 693.519589 699.546376 702.726708
105.022500 684.302459 691.964174 698.864620 697.386186 701.882459 704.261748
105.135000 694.675495 698.341045 701.283793 701.017280 703.639375 705.469843
105.210000 695.822722 699.729810 702.279112 702.012404 704.490582 706.094334
105.285000 697.195886 700.851740 703.215456 702.978941 705.221310 706.791803
105.360000 698.130340 701.816897 704.091776 703.848733 705.944062 707.487661
105.435000 699.339402 702.857517 704.975563 704.732953 706.776037 708.221064
105.510000 700.543808 703.686440 705.807694 705.579449 707.527592 709.046148
105.585000 701.175595 704.561713 706.599200 706.394180 708.292383 709.941863
105.660000 702.040257 705.444753 707.428284 707.232643 709.056272 710.884022
105.735000 703.240723 706.278150 708.225249 708.067790 709.844987 711.683794
105.812500 704.397888 707.250699 709.049745 708.921986 710.753270 712.397204
105.890000 705.897920 708.183093 709.856768 709.819197 711.626870 713.325405
105.965000 706.807610 709.045601 710.756999 710.704385 712.519094 714.069986
106.040000 708.017698 709.876074 711.541218 711.577559 713.383248 714.968131
106.115000 708.891647 710.697863 712.396377 712.393644 714.203405 715.691369
106.190000 709.605692 711.521553 713.215803 713.197866 714.938335 716.520142
106.265000 710.358172 712.264904 713.906024 713.943148 715.636790 717.233097
106.340000 711.246272 713.028573 714.630948 714.663258 716.324330 718.007420
106.415000 711.945126 713.769664 715.360945 715.379979 717.082135 718.650746
106.490000 712.606362 714.435920 716.058341 716.100560 717.841173 719.350034
106.565000 713.332364 715.143435 716.819101 716.823597 718.557017 720.067090
106.640000 714.179686 715.848252 717.534046 717.551078 719.284625 720.681478
106.751250 715.241436 716.918084 718.630017 718.593875 720.298172 721.668557
106.862500 716.337723 717.942663 719.662906 719.605892 721.291959 722.402725
106.973750 717.624291 719.074687 720.704914 720.638479 722.191744 723.313396
107.085000 718.634919 720.023741 721.699512 721.597209 723.073949 724.082244
107.160000 719.298280 720.681963 722.374081 722.234855 723.678688 724.630156
107.235000 720.063450 721.374168 723.064536 722.879115 724.283480 725.105068
107.310000 720.767748 721.965185 723.655057 723.469023 724.829313 725.662830
107.385000 721.444245 722.593681 724.260109 724.062085 725.358234 726.152897
107.460000 722.048393 723.165303 724.885867 724.641616 725.912288 726.642027
107.535000 722.611424 723.748577 725.442730 725.176852 726.390653 727.120696
107.610000 723.136969 724.447178 725.949850 725.721923 726.895826 727.556101
107.685000 723.716965 725.002410 726.473628 726.259818 727.364129 728.118411
107.785000 724.491151 725.717111 727.161627 726.934787 728.005812 728.699415
107.885000 725.203302 726.444951 727.809032 727.599227 728.608809 729.296931
107.985000 725.936414 727.170254 728.439120 728.259117 729.209115 729.895335
108.085000 726.689230 727.841363 729.055797 728.901947 729.847389 730.511615
108.185000 727.510247 728.572987 729.661340 729.541786 730.458447 731.096530
108.285000 728.251613 729.283692 730.293679 730.192884 731.062239 731.805491
108.385000 728.930749 730.000404 730.951862 730.859079 731.678319 732.367311
108.485000 729.738703 730.732106 731.578406 731.517436 732.295750 733.004991
108.585000 730.507488 731.429603 732.226753 732.190935 732.937845 733.697421
108.660000 731.044522 731.965151 732.730132 732.708683 733.473471 734.109420
108.735000 731.649502 732.504384 733.245635 733.232452 733.960924 734.682964
108.810000 732.274449 733.045225 733.783077 733.791942 734.533695 735.315921
108.885000 732.869340 733.633708 734.338049 734.347023 735.089227 735.857031
108.960000 733.450530 734.180822 734.939332 734.933131 735.690818 736.457011
109.035000 734.067415 734.741076 735.503907 735.537878 736.341564 737.182259
109.110000 734.625402 735.298492 736.101787 736.148468 736.988852 737.898351
109.185000 735.159866 735.933980 736.730357 736.777374 737.665629 738.784666
109.260000 735.738612 736.489114 737.337965 737.393053 738.276604 739.619616
109.335000 736.221627 737.013773 737.958057 737.999742 738.910059 740.194133
109.410000 736.766158 737.610109 738.579642 738.611951 739.511002 740.830713
109.485000 737.302421 738.231038 739.150077 739.221471 740.231523 741.369730
109.560000 737.802887 738.828083 739.722885 739.799200 740.852795 741.885971
109.635000 738.366032 739.374987 740.291624 740.368786 741.489574 742.437602
109.710000 738.960922 739.920025 740.878660 740.937721 742.091636 742.951047
109.785000 739.524788 740.477356 741.428694 741.495339 742.661357 743.522510
109.860000 740.016805 741.034456 741.973512 742.042675 743.200303 744.016134
109.935000 740.534907 741.580859 742.540612 742.580238 743.709132 744.541637
110.010000 741.137363 742.083773 743.103632 743.114569 744.242326 745.002002
110.085000 741.646375 742.595065 743.607858 743.629263 744.705444 745.439154
110.160000 742.067322 743.067605 744.086380 744.129172 745.213391 745.964091
110.235000 742.555704 743.583436 744.646736 744.639066 745.713849 746.389366
110.310000 743.136178 744.099724 745.152371 745.133951 746.181227 746.913839
110.385000 743.681264 744.626977 745.646053 745.623059 746.686028 747.361688
110.460000 744.167268 745.096132 746.148510 746.115877 747.134904 747.877328
110.535000 744.625793 745.563106 746.624225 746.592720 747.583633 748.349218
110.610000 745.240287 746.051619 747.119870 747.073856 748.063983 748.832633
110.685000 745.671046 746.561529 747.560299 747.540588 748.501722 749.289390
110.760000 746.193328 747.056922 748.049312 748.022514 748.953093 749.678404
110.835000 746.660796 747.585277 748.520523 748.505299 749.415302 750.139536
110.910000 747.193345 748.082570 748.991065 748.968529 749.871047 750.674451
110.985000 747.633575 748.543782 749.432999 749.428160 750.334163 751.228573
111.085000 748.394025 749.089713 750.006096 749.998259 750.873195 751.824473
111.185000 749.017158 749.702744 750.547110 750.569321 751.429206 752.362148
111.285000 749.675060 750.294764 751.096615 751.137089 751.967844 752.985982
111.360000 750.169405 750.765042 751.481897 751.576108 752.421945 753.464954
111.435000 750.600829 751.179902 751.892893 752.008422 752.878773 753.821781
111.510000 751.046627 751.645308 752.308393 752.435867 753.311055 754.339336
111.585000 751.462186 752.076226 752.721370 752.862987 753.779231 754.807122
111.660000 751.935726 752.499343 753.111154 753.285445 754.233961 755.293379
111.735000 752.405378 752.905063 753.532023 753.714802 754.636096 755.773197
111.810000 752.817608 753.315983 753.930019 754.127767 755.065744 756.163475
111.885000 753.223666 753.735679 754.361006 754.555965 755.547183 756.602477
111.960000 753.620748 754.161695 754.793751 754.984128 755.957572 757.011376
112.035000 754.063237 754.577024 755.225644 755.426678 756.421136 757.475481
112.110000 754.477664 755.013942 755.672662 755.872321 756.879869 757.948636
112.185000 754.837647 755.421925 756.113375 756.316687 757.342150 758.447281
112.260000 755.289851 755.829131 756.553114 756.769453 757.807929 758.911216
112.335000 755.734473 756.257341 757.025926 757.222034 758.261660 759.367839
112.410000 756.169366 756.686154 757.478986 757.680339 758.755975 759.874286
112.485000 756.605702 757.175412 757.958523 758.146976 759.235676 760.349840
112.560000 757.048482 757.610517 758.446116 758.634276 759.711466 760.861245
112.635000 757.479043 758.095204 758.964751 759.130297 760.221694 761.310701
112.710000 757.976303 758.586691 759.494703 759.627672 760.754609 761.799295
112.785000 758.419161 759.090098 760.015383 760.142621 761.280973 762.294507
112.860000 758.844045 759.624047 760.562627 760.693350 761.843953 762.918472
112.935000 759.363220 760.163888 761.149245 761.251976 762.394981 763.617296
113.010000 759.822958 760.699158 761.757118 761.830251 762.951588 764.323909
113.085000 760.392373 761.281054 762.333334 762.409447 763.542041 764.814370
113.160000 760.960476 761.905935 762.966352 763.015021 764.099256 765.509185
113.235000 761.522340 762.537451 763.669260 763.673642 764.669665 766.156907
113.310000 762.022667 763.148176 764.272422 764.309793 765.409637 766.812229
113.385000 762.750328 763.835744 764.922104 764.976617 766.029120 767.633108
113.460000 763.448177 764.471567 765.524805 765.634123 766.705183 768.416179
113.535000 764.159543 765.176126 766.234498 766.324276 767.429377 769.264440
113.610000 764.846189 765.838921 766.871741 767.012902 768.140164 770.003697
113.685000 765.573845 766.547057 767.505533 767.718353 768.906533 770.926745
113.760000 766.191069 767.146568 768.212762 768.430432 769.725775 771.903266
113.835000 766.774704 767.854254 768.926407 769.141947 770.459341 772.568894
113.910000 767.463982 768.499300 769.744798 769.941039 771.381811 773.622727
113.985000 768.142538 769.225510 770.548219 770.740689 772.198217 774.597271
114.060000 768.956575 769.896001 771.348579 771.579190 773.173290 775.575832
114.135000 769.670686 770.766742 772.283962 772.489583 774.210666 776.375049
114.210000 770.386036 771.581168 773.262982 773.386282 775.200251 777.164886
114.285000 771.004293 772.488153 774.224758 774.340401 776.256658 778.206867
114.360000 771.924964 773.332245 775.458273 775.416562 777.315201 779.422017
114.435000 772.799729 774.444205 776.546256 776.537837 778.407299 780.446754
114.510000 773.873161 775.745937 777.798239 777.789620 779.737275 782.089168
114.585000 774.883605 777.090908 779.036953 779.027495 780.901253 783.299272
114.660000 775.911981 778.149651 780.065798 780.069558 782.007027 784.143510
114.735000 777.174014 779.258887 781.110952 781.106721 782.976199 785.029271
114.810000 778.093293 780.193901 782.178220 782.116257 784.067888 785.997888
114.885000 779.241747 781.193876 783.092572 783.079728 784.935252 786.748611
114.960000 779.995385 782.140745 784.000003 783.964436 785.804167 787.556383
115.035000 780.872066 783.126643 784.923011 784.871417 786.608037 788.267779
115.110000 781.522193 784.032027 785.849277 785.722959 787.441345 788.882278
115.185000 782.608188 784.912231 786.679095 786.567102 788.278653 789.574485
115.260000 783.570666 785.818493 787.508821 787.396398 789.066301 790.192874
115.335000 784.551961 786.780473 788.328913 788.245859 789.776751 790.812548
115.410000 785.706681 787.829251 789.348088 789.195236 790.643945 791.711599
115.485000 787.067547 788.794546 790.240596 790.107510 791.406368 792.450570
115.560000 788.149578 789.679074 791.026412 790.904894 792.193825 793.151852
115.635000 788.920923 790.613702 791.836348 791.741960 792.969222 793.880484
115.710000 789.891055 791.353596 792.538693 792.451088 793.660006 794.532020
115.785000 790.637435 792.101537 793.227558 793.131941 794.278084 795.094544
115.901667 791.832123 793.129121 794.228631 794.176407 795.241964 796.129740
116.018333 793.103277 794.263021 795.263530 795.221455 796.174823 797.251032
116.135000 794.304191 795.390498 796.285678 796.281830 797.173481 798.170650
116.235000 795.375989 796.327578 797.187485 797.217310 798.126804 799.064338
116.335000 796.375874 797.207254 798.095967 798.099245 798.976166 800.007324
116.435000 797.182360 798.025418 798.932318 798.969063 799.881586 801.009067
116.535000 798.056568 798.880362 799.774598 799.814535 800.758592 801.933367
116.635000 798.786458 799.619537 800.594040 800.621875 801.613279 802.622177
116.735000 799.457179 800.426888 801.364499 801.391445 802.402007 803.402637
116.835000 800.224788 801.180013 802.193421 802.190858 803.210019 804.250330
116.935000 800.999151 801.946627 802.956892 803.001843 804.050411 805.187416
117.035000 801.661641 802.692728 803.790948 803.840082 804.951369 806.099912
117.135000 802.530786 803.570595 804.685196 804.728539 805.927943 807.032588
117.235000 803.315440 804.465880 805.634347 805.693602 806.955017 808.393892
117.335000 804.184126 805.410493 806.643856 806.683748 807.973597 809.423286
117.435000 805.091774 806.419148 807.764435 807.784438 809.121333 810.656196
117.535000 806.122608 807.562087 808.995141 808.994403 810.355681 811.766391
117.635000 807.252238 808.847788 810.287157 810.291300 811.730551 813.298563
117.735000 808.862287 810.208930 811.790938 811.806441 813.397490 814.893173
117.835000 810.137981 811.755104 813.370616 813.451117 815.052214 816.667089
117.935000 811.855536 813.435698 815.215599 815.407611 816.830631 819.919024
118.035000 813.663287 815.297732 816.957153 817.470436 818.585596 830.566952
118.135000 815.392451 817.117206 818.589844 819.450903 820.716582 833.518968
118.235000 817.281887 818.767699 820.513401 821.482449 823.342417 834.894728
118.335000 818.613897 820.252558 822.090593 823.200096 825.344810 836.040530
118.435000 819.887575 821.638297 823.745279 824.892228 827.540539 837.489836
118.535000 820.870908 822.943319 825.357110 826.711991 831.272096 838.548897
118.635000 821.963779 824.230259 827.158545 828.716344 835.261830 839.691738
118.735000 823.084128 825.898049 829.321877 830.809206 837.315450 841.026822
118.835000 824.658489 827.792704 832.592530 833.148189 839.016142 841.941757
118.935000 825.992153 829.360641 835.795908 835.301594 840.916639 843.433795
119.035000 827.611954 831.204705 838.184264 837.169991 842.377467 844.772279
119.135000 829.094217 833.293424 840.187641 838.955593 843.708511 845.964725
119.235000 831.182750 836.453134 842.485049 841.387141 845.319646 847.684698
119.335000 833.244694 839.164472 843.995745 843.147843 846.635905 848.925360
119.435000 835.536000 842.013688 845.710209 845.069653 848.208420 850.534309
119.540000 839.468780 844.689770 847.724553 847.308502 849.970997 852.492905
119.640000 843.287444 846.820084 849.438369 849.178485 851.625754 853.936591
119.740000 845.574470 848.548467 851.215535 850.949389 853.367752 855.333023
119.840000 847.298471 850.316122 852.837587 852.613030 854.950373 856.632759
119.940000 848.585645 851.950091 854.457878 854.163994 856.401287 858.078624
120.040000 849.905139 853.338733 856.127051 855.730873 857.839587 859.486604
120.140000 851.072169 855.005003 857.583822 857.154970 859.171117 860.600780
120.240000 852.666770 856.797944 858.992298 858.591594 860.477844 862.044889
120.340000 853.796897 858.611671 860.354486 860.051754 861.824010 863.375459
120.435000 855.453703 860.059025 861.577536 861.397126 863.087295 864.521424
120.535000 858.635865 861.630395 862.957818 862.867107 864.398517 865.794853
120.635000 861.506745 862.859955 864.166120 864.187874 865.662837 866.952687
120.735000 862.941585 864.116822 865.476205 865.509809 866.916469 868.099169
120.835000 864.248992 865.577876 866.907120 866.860125 868.219147 869.286046
120.935000 865.766439 867.230276 868.384766 868.284746 869.370580 870.329410
121.035000 867.305048 868.669646 869.605596 869.520082 870.465517 871.138670
