depth(m) lower_95(kyr) lower_68(kyr) median(kyr) mean(kyr) upper_68(kyr) upper_95(kyr)
62.880000 638.808120 642.576930 646.257981 646.064469 649.593635 652.061429
62.990000 640.019666 643.816724 647.415273 647.278157 650.635777 653.015187
63.090000 641.630619 645.072038 648.581277 648.364666 651.758406 653.916658
63.190000 642.864322 646.335285 649.630864 649.469504 652.791876 654.873494
63.290000 644.424520 647.476020 650.687176 650.574120 653.790609 655.813315
63.390000 645.512236 648.640985 651.853473 651.719362 654.835390 656.817855
63.490000 646.879628 650.029633 653.112358 652.910969 655.861399 657.999977
63.590000 648.387732 651.251957 654.364717 654.105087 656.952384 658.923165
63.690000 649.853306 652.537895 655.584368 655.309114 657.941924 659.952949
63.770000 651.061977 653.770859 656.622086 656.382354 658.890290 660.965490
63.890000 652.686148 655.554167 658.294264 658.118602 660.541556 662.436024
63.990000 654.636553 657.372139 659.806671 659.616065 661.903664 663.465814
64.090000 656.003937 658.849191 661.195361 660.977806 663.074473 664.626964
64.210000 657.855735 660.394872 662.665420 662.441208 664.367822 665.902883
64.310000 658.918178 661.771004 663.875441 663.655936 665.424948 667.177336
64.410000 660.193102 663.011796 665.165847 664.839474 666.504485 668.463167
64.510000 661.746735 664.210670 666.312740 666.008352 667.578280 669.485773
64.520000 661.858680 664.336135 666.429511 666.125035 667.684713 669.610697
64.620000 662.836087 665.546968 667.544519 667.318889 668.919496 671.208317
64.720000 664.004486 666.658750 668.690144 668.533395 670.247711 672.537954
64.780000 664.734605 667.434616 669.371498 669.267153 671.027585 673.364759
64.880000 666.012051 668.628464 670.527149 670.499939 672.397976 674.701632
64.980000 667.327558 669.770456 671.679129 671.720170 673.750107 676.043710
65.080000 668.702291 671.046872 673.024143 673.049030 675.159955 677.648106
65.180000 669.763485 672.181877 674.350086 674.397362 676.639413 679.177991
65.280000 671.184363 673.538483 675.835213 675.875067 678.187816 680.666567
65.380000 672.945146 675.035550 677.411893 677.448131 679.822718 682.151453
65.480000 674.368323 676.546883 678.894543 678.920842 681.432243 683.496204
65.580000 675.545270 678.096932 680.300359 680.366213 682.916800 684.747576
65.680000 676.978210 679.626483 681.894992 681.857496 684.241068 686.317080
65.780000 678.671784 681.053388 683.463203 683.359611 685.692707 687.478105
65.880000 680.409641 682.795299 685.031206 684.951907 687.136733 688.729689
65.980000 681.832694 684.229950 686.404619 686.294383 688.427323 689.938682
66.070000 683.171386 685.634615 687.710940 687.548859 689.511061 691.163508
66.180000 684.934158 687.393204 689.220045 689.151691 690.989757 692.886715
66.230000 685.589182 688.011968 689.914324 689.822277 691.636063 693.434412
66.330000 687.063420 689.274565 691.198609 691.094968 692.891169 694.764403
66.430000 688.490378 690.429496 692.359629 692.287021 694.129093 695.984782
66.530000 689.786521 691.596625 693.397944 693.436428 695.347463 697.351878
66.630000 690.847909 692.767725 694.581232 694.664762 696.563323 698.644807
66.730000 691.937231 693.805327 695.797134 695.825382 697.853564 700.182732
66.830000 693.137123 694.943669 696.985338 697.036832 699.177479 701.530981
66.930000 694.150052 696.258205 698.249707 698.338307 700.403960 702.666343
67.030000 695.057673 697.418732 699.647624 699.611079 701.836679 703.888085
67.130000 696.263903 698.594161 700.932219 700.849218 703.049227 705.099512
67.230000 697.505179 699.941396 702.137609 702.085063 704.219758 706.253058
67.330000 698.836587 701.211197 703.510743 703.376141 705.399282 707.303657
67.430000 700.065065 702.556479 704.755605 704.625311 706.732718 708.382704
67.530000 701.182775 703.846290 706.053370 705.905452 708.057205 709.499484
67.630000 702.522088 705.185957 707.254867 707.150130 709.276629 710.879478
67.700000 703.560110 706.134880 708.075172 707.999367 710.011777 711.619374
67.800000 705.048700 707.507714 709.409416 709.314093 711.207663 712.692371
67.900000 706.771478 708.851887 710.657563 710.624042 712.419986 713.847292
68.000000 708.448483 710.148816 711.838791 711.845926 713.671902 715.079586
68.100000 709.890213 711.429303 713.080102 713.090355 714.914956 716.273896
68.200000 711.213343 712.608943 714.371402 714.331466 716.032604 717.379528
68.300000 712.389929 713.891352 715.581424 715.498413 717.084734 718.401385
68.400000 713.497612 715.118794 716.752423 716.659423 718.159434 719.409046
68.500000 714.925639 716.431553 717.890719 717.836092 719.242801 720.487345
68.600000 716.187784 717.734786 719.110763 718.983648 720.244855 721.448515
68.700000 717.422143 718.969414 720.197796 720.176070 721.394191 722.768832
68.800000 718.805289 720.258691 721.346646 721.353445 722.554657 723.770374
68.900000 720.094983 721.436903 722.611437 722.615204 723.855378 725.045324
69.000000 721.565239 722.813513 723.983997 723.988016 725.199039 726.570616
69.100000 722.792851 723.991405 725.154404 725.188902 726.388024 727.686695
69.150000 723.380423 724.540442 725.778538 725.759027 727.003088 728.170893
69.250000 724.439655 725.665788 726.859892 726.815773 727.973651 729.052863
69.350000 725.479363 726.709892 727.905910 727.846889 729.016708 729.961186
69.450000 726.569209 727.748714 728.943615 728.881052 730.029691 730.924842
69.550000 727.785549 728.826162 730.034278 729.940946 730.983603 731.893979
69.650000 728.840226 729.993472 731.137836 731.037035 732.069016 732.823798
69.750000 729.885525 731.219273 732.245009 732.176702 733.100928 733.973066
69.850000 731.385122 732.501291 733.375488 733.332838 734.185170 734.926772
69.950000 732.667116 733.568123 734.372785 734.358305 735.172045 735.938340
70.050000 733.670348 734.505588 735.281404 735.299155 736.085179 736.934536
70.150000 734.585254 735.423048 736.137022 736.179974 736.982035 737.821530
70.250000 735.397197 736.238321 736.958590 737.006308 737.785539 738.681462
70.350000 736.177989 736.996210 737.812755 737.819220 738.638608 739.560561
70.450000 737.061367 737.797719 738.622149 738.644160 739.471629 740.468029
70.550000 737.864485 738.617520 739.460263 739.491143 740.349385 741.425007
70.600000 738.260347 739.030732 739.914198 739.936055 740.807035 741.925152
70.700000 738.995363 739.876823 740.815794 740.839481 741.738299 742.888644
70.800000 739.850158 740.739304 741.710021 741.748164 742.759318 744.055533
70.900000 740.662260 741.591618 742.641357 742.672924 743.723473 744.917465
71.000000 741.315585 742.445204 743.542934 743.565332 744.689870 745.830358
71.100000 742.221727 743.276164 744.481431 744.491415 745.682729 746.892268
71.200000 743.052478 744.150458 745.359099 745.409045 746.643323 747.993202
71.300000 744.070257 745.139684 746.358243 746.419651 747.650688 749.097147
71.400000 745.001512 746.203192 747.394681 747.427774 748.686248 750.029700
71.500000 746.145893 747.303022 748.473324 748.515258 749.768139 751.005088
71.600000 747.240820 748.355147 749.488288 749.566420 750.798354 752.066109
71.700000 748.387546 749.497359 750.628175 750.682810 751.895219 753.106812
71.800000 749.348008 750.460548 751.619478 751.659202 752.858832 753.979660
71.900000 750.418219 751.340487 752.587048 752.564992 753.701343 754.865664
72.000000 751.207618 752.201005 753.453102 753.445628 754.650163 755.805547
72.070000 751.826016 752.812712 754.099845 754.070590 755.245323 756.431968
72.170000 752.611229 753.676216 754.938655 754.940069 756.097863 757.329979
72.200000 752.820205 753.939595 755.221967 755.217973 756.394453 757.647493
72.310000 753.791819 754.879807 756.243939 756.181001 757.357728 758.805023
72.410000 754.678037 755.737039 757.153296 757.097221 758.332679 759.675782
72.510000 755.526067 756.608771 758.003397 758.003377 759.301843 760.828492
72.610000 756.447108 757.560743 758.934360 758.953443 760.256629 761.879150
72.710000 757.364948 758.556389 759.844935 759.916028 761.276583 762.927531
72.810000 758.275402 759.601805 760.814155 760.924365 762.314121 764.220283
72.910000 759.073456 760.494942 761.757438 761.860271 763.288642 765.208969
73.010000 759.837322 761.393197 762.649352 762.757470 764.249882 766.209531
73.110000 760.804066 762.207790 763.589431 763.714394 765.175908 767.249803
73.210000 761.719886 763.193414 764.600581 764.728005 766.267127 768.406063
73.300000 762.680884 764.156102 765.536923 765.687286 767.314502 769.427463
73.420000 764.154239 765.468243 766.786866 767.005824 768.636693 770.598454
73.520000 765.078613 766.430794 767.847157 768.039964 769.716740 771.685236
73.620000 766.086094 767.377576 768.855447 769.012695 770.683226 772.701175
73.720000 767.038159 768.352262 769.868816 769.968119 771.619883 773.693385
73.840000 768.125102 769.491799 771.106838 771.145106 772.760069 774.611621
73.920000 769.001855 770.243051 771.867258 771.941710 773.586057 775.462199
74.020000 769.925203 771.194321 772.911459 772.943533 774.589819 776.436198
74.120000 770.960916 772.296610 773.999434 774.017127 775.644468 777.409845
74.220000 772.137249 773.484590 775.131407 775.135744 776.791732 778.451917
74.320000 773.271688 774.725162 776.301447 776.340377 777.998089 779.885131
74.420000 774.420482 775.877641 777.445530 777.511004 779.134881 781.214465
74.510000 775.575059 776.957227 778.505849 778.608722 780.202422 782.380688
74.610000 776.628835 778.169271 779.768367 779.864930 781.540600 783.755629
74.710000 777.825318 779.417430 780.981764 781.108853 782.808856 785.194450
74.770000 778.511713 780.202174 781.770304 781.904603 783.654791 785.878118
74.870000 779.949992 781.608972 783.131832 783.260919 785.061779 786.869489
74.970000 781.028606 782.792283 784.513634 784.540972 786.365694 787.923804
75.070000 782.374128 784.172117 785.882244 785.845848 787.578084 788.895357
75.170000 783.679771 785.529422 787.280396 787.160024 788.785227 789.893265
75.270000 785.105583 786.903897 788.687563 788.458077 789.869624 790.952150
75.370000 786.694526 788.343295 789.819774 789.656243 790.946473 791.954723
75.470000 788.021269 789.563058 790.874803 790.774848 791.984054 792.886371
75.570000 789.136867 790.663531 791.874465 791.778048 792.905597 793.773578
75.670000 790.354879 791.725120 792.832769 792.735042 793.771419 794.651644
75.770000 791.618849 792.859237 793.815590 793.763173 794.745172 795.543096
75.870000 793.186160 794.166267 795.014596 795.012643 795.922762 796.705900
75.970000 794.555550 795.435793 796.279228 796.266961 797.117853 797.900163
76.070000 795.686514 796.521015 797.280187 797.338675 798.157550 799.016332
76.170000 796.600177 797.505963 798.291102 798.308520 799.167166 799.958170
76.230000 797.019700 798.024227 798.827326 798.843957 799.685146 800.490949
76.330000 797.832520 798.755049 799.637537 799.625388 800.446376 801.299980
76.430000 798.478845 799.506870 800.418606 800.373670 801.230705 802.100352
76.530000 799.175318 800.189259 801.146853 801.106295 801.992465 802.824330
76.630000 799.989390 800.957500 801.857408 801.827632 802.706780 803.593900
76.730000 800.712233 801.666083 802.588130 802.549181 803.457987 804.276346
76.830000 801.383486 802.408591 803.305689 803.273931 804.172524 804.932067
76.930000 802.180988 803.166328 804.058472 804.017318 804.892366 805.710077
77.030000 802.889423 803.911648 804.795425 804.762791 805.645463 806.409259
77.130000 803.624903 804.640531 805.543929 805.508174 806.396479 807.172812
77.230000 804.431531 805.367852 806.292749 806.255880 807.113499 807.957129
77.330000 805.194569 806.199659 807.069285 807.041496 807.916846 808.702583
77.430000 805.932298 806.939255 807.853066 807.814598 808.692228 809.402026
77.530000 806.657765 807.786264 808.645275 808.602809 809.439097 810.170840
77.630000 807.551106 808.603915 809.421130 809.412015 810.282624 811.103368
77.690000 808.070776 809.120438 809.939928 809.932046 810.822384 811.660956
77.790000 808.959921 809.956522 810.824133 810.839988 811.715167 812.768938
77.890000 809.976779 810.923508 811.783553 811.840097 812.790923 814.007625
77.990000 810.956693 811.799508 812.793860 812.820357 813.814211 815.025015
78.090000 811.809823 812.699050 813.757851 813.800759 814.899654 816.143805
78.190000 812.900052 813.623341 814.837272 814.859487 816.003827 817.219716
78.290000 813.793445 814.818507 816.031831 816.068331 817.251750 818.649799
78.390000 815.034972 816.161015 817.470858 817.530138 818.784165 820.555694
78.490000 816.198366 817.427109 818.728132 818.824306 820.161820 821.769515
78.590000 817.497587 818.852558 820.117217 820.238539 821.633837 823.450075
78.690000 818.990950 820.230886 821.482255 821.642025 823.083290 824.949676
78.790000 820.226304 821.552951 822.828424 823.009900 824.445367 826.802398
78.890000 821.575070 822.924276 824.286724 824.428680 825.828164 828.176524
78.990000 822.956819 824.203084 825.696551 825.908342 827.379767 830.418511
79.090000 824.099425 825.601843 827.145415 827.455720 829.269462 832.525506
79.150000 824.841140 826.538609 828.105315 828.451527 830.359287 834.359795
79.250000 826.330077 827.996331 829.978706 830.329881 832.590539 836.957503
79.350000 827.649353 829.552539 831.664689 832.096560 834.915620 838.508482
79.450000 828.880615 831.086164 833.593826 834.071586 837.561861 841.169491
79.550000 830.318435 832.674518 835.617113 835.961655 839.319478 842.896486
79.650000 831.810241 834.379730 837.453285 837.804417 841.554537 844.411647
79.750000 833.499439 836.078445 839.622920 839.616141 843.173693 845.795788
79.850000 835.025365 838.181414 841.414514 841.382650 844.642107 847.015601
79.950000 837.299908 840.131804 843.326936 843.355912 846.574367 848.970179
80.050000 839.114522 842.021446 845.318674 845.146653 848.162604 850.559746
80.150000 841.324968 843.809804 846.798319 846.735847 849.707772 851.742252
80.250000 843.111909 845.460020 848.245709 848.257606 851.129007 853.122693
80.350000 844.689181 846.742725 849.695002 849.689547 852.670036 854.630238
80.450000 846.221201 848.021437 851.126915 851.080765 854.103120 855.961068
80.550000 847.218080 849.110583 852.550882 852.345389 855.566931 857.342634
80.610000 847.836539 849.762098 853.272022 853.087286 856.444655 858.063923
80.710000 848.933489 851.080745 854.574950 854.374619 857.709125 859.249004
80.810000 850.297154 852.497002 856.076769 855.777886 858.836240 860.342062
80.910000 851.583747 853.774203 857.673205 857.154596 859.905182 861.337369
81.010000 852.968352 855.354025 859.238977 858.582377 861.053093 862.600637
81.110000 854.196054 857.282483 860.649301 860.021340 862.210544 863.794699
81.210000 855.666553 859.149011 861.783286 861.335861 863.280081 864.728674
81.310000 857.549063 861.169473 862.971905 862.687735 864.376785 865.743568
81.410000 859.705242 862.527194 864.102401 863.945055 865.485281 866.946304
81.510000 861.289922 863.812463 865.308807 865.187149 866.651049 868.036494
81.610000 863.293778 865.207490 866.613746 866.513535 867.877067 869.123338
81.710000 864.978803 866.762904 868.178258 868.028719 869.321881 870.332031
81.810000 867.419329 869.014197 870.086232 869.991519 870.971805 871.857739
81.910000 869.621085 870.713908 871.553594 871.531125 872.408301 873.184154
82.010000 870.943162 871.942473 872.721644 872.709072 873.510193 874.347599
82.070000 871.840460 872.657945 873.391982 873.406568 874.179931 874.998838
82.150000 872.901040 873.627758 874.313879 874.359633 875.147096 875.995934
82.250000 873.775607 874.591020 875.358524 875.386687 876.197942 877.064046
82.350000 874.768536 875.486590 876.345242 876.330757 877.194439 878.007519
82.450000 875.647860 876.310928 877.205175 877.206868 878.083408 878.870449
82.550000 876.386938 877.158636 878.016762 878.045944 878.860208 879.922111
82.650000 877.122291 877.965334 878.836777 878.872982 879.727405 880.813204
82.750000 877.942483 878.811456 879.722443 879.711042 880.576130 881.560787
82.850000 878.778504 879.619191 880.565986 880.549114 881.478746 882.460561
82.950000 879.578908 880.489242 881.397300 881.418690 882.302562 883.477029
83.050000 880.504218 881.381101 882.321448 882.364408 883.306507 884.509762
83.130000 881.172648 882.196496 883.135588 883.169867 884.128212 885.467008
83.250000 882.433115 883.364506 884.207693 884.310010 885.327366 886.799224
83.350000 883.428454 884.306429 885.152032 885.310796 886.382739 887.868228
83.440000 884.269444 885.067962 886.006277 886.182956 887.296081 888.867110
83.460000 884.427643 885.282172 886.211752 886.390763 887.487924 889.068969
83.560000 885.288181 886.189394 887.216530 887.366975 888.607788 889.998487
83.660000 886.165792 887.038414 888.256603 888.351646 889.670696 891.024936
83.760000 886.873464 887.901879 889.200935 889.290504 890.668917 892.006087
83.860000 887.714347 888.853009 890.168927 890.233424 891.681731 893.119680
83.940000 888.338172 889.521813 890.963044 890.996564 892.460095 893.793307
84.060000 889.316168 890.618676 892.130676 892.106065 893.528635 894.921523
84.160000 890.241451 891.565787 893.056732 893.021440 894.439400 895.801680
84.260000 891.241568 892.511689 893.966517 893.964955 895.408190 896.602547
84.360000 892.167905 893.470479 894.955703 894.935348 896.353278 897.615563
84.460000 893.029092 894.502451 895.941771 895.938117 897.338438 898.770329
84.560000 894.070792 895.512719 896.988501 896.939921 898.272818 899.738176
84.660000 895.227509 896.664776 897.963455 897.989090 899.434863 900.614043
84.760000 896.292917 897.790932 899.071558 899.080723 900.405991 901.786164
84.850000 897.370162 898.772461 899.920358 900.003505 901.333292 902.644087
84.970000 898.758517 899.949312 901.162848 901.263592 902.617124 903.979134
85.070000 899.918199 901.017637 902.321252 902.365509 903.744835 905.161609
85.170000 900.903519 902.006977 903.439406 903.438070 904.883220 906.102964
85.270000 901.855669 902.944106 904.456108 904.454604 905.949203 907.207079
85.400000 902.934598 904.183399 905.766386 905.737830 907.247525 908.647921
85.500000 903.914375 905.092532 906.693528 906.705190 908.253812 909.680985
85.600000 904.820247 906.002274 907.665275 907.644331 909.249287 910.615490
85.700000 905.661143 906.872007 908.644915 908.602770 910.171883 911.517603
85.800000 906.539538 907.901319 909.663201 909.572239 911.131986 912.353664
85.900000 907.544357 908.930084 910.681590 910.577690 912.121964 913.223918
86.000000 908.605958 910.050679 911.711642 911.637919 913.135861 914.191536
86.060000 909.336493 910.824674 912.401261 912.315901 913.799770 914.843214
86.160000 910.496340 912.186537 913.691820 913.522046 914.908270 915.860522
86.260000 912.214027 913.655653 915.027148 914.895826 916.086345 916.953772
86.360000 913.931622 915.282238 916.418306 916.332202 917.334205 918.240852
86.460000 915.701770 916.705911 917.681683 917.688063 918.631377 919.609069
86.560000 916.935613 917.891486 918.820219 918.821403 919.773648 920.717309
86.660000 917.948860 918.865872 919.820783 919.844389 920.811602 921.853442
86.760000 918.726057 919.791572 920.780215 920.809216 921.820844 922.880147
86.860000 919.692571 920.667615 921.687419 921.747271 922.809535 923.988829
86.960000 920.559286 921.542887 922.623907 922.674720 923.753040 925.034739
87.060000 921.492906 922.437358 923.563339 923.665531 924.808828 926.290317
87.160000 922.580418 923.547271 924.707389 924.807009 925.990768 927.706296
87.260000 923.710568 924.742555 925.888554 926.033768 927.332433 928.847556
87.360000 924.872913 925.938261 927.185768 927.296368 928.543054 930.210040
87.460000 925.989600 927.120963 928.415790 928.480820 929.783515 931.357912
87.510000 926.587325 927.800959 929.129497 929.132023 930.416370 931.954649
87.610000 927.673044 929.140473 930.434051 930.482005 931.867929 933.357027
87.710000 929.165598 930.496887 931.845201 931.870598 933.279740 934.665664
87.810000 930.408185 931.669843 933.045499 933.087786 934.472979 935.809138
87.910000 931.412836 932.704967 934.206069 934.161238 935.598305 936.691054
88.010000 932.393840 933.687572 935.233092 935.157432 936.595262 937.655558
88.110000 933.396635 934.670390 936.239014 936.166000 937.596259 938.705883
88.210000 934.512010 935.779544 937.254407 937.199068 938.609524 939.802830
