depth(m) lower_95(kyr) lower_68(kyr) median(kyr) mean(kyr) upper_68(kyr) upper_95(kyr)
32.650000 191.632155 193.219036 194.503311 194.376784 195.498131 196.370262
32.750000 192.615944 194.047369 195.181391 195.088169 196.092658 197.078135
32.850000 193.565144 194.815112 195.828693 195.788401 196.755242 197.737897
32.950000 194.483112 195.594791 196.541887 196.500146 197.405721 198.328353
33.050000 195.345044 196.291738 197.227418 197.209098 198.062007 198.862335
33.150000 196.332967 197.111643 197.920138 197.956003 198.789049 199.599703
33.250000 197.127105 197.875383 198.637702 198.672134 199.465211 200.331478
33.320000 197.535379 198.371586 199.117300 199.142040 199.947924 200.772340
33.450000 198.329230 199.113076 199.984614 200.010850 200.877728 201.872932
33.595455 199.115745 199.930583 200.961660 201.030838 202.038645 203.661031
33.740909 199.897462 200.815671 201.940785 202.071768 203.284361 204.917130
33.886364 200.716752 201.706640 202.987671 203.105978 204.475912 206.185946
34.031818 201.467211 202.556708 204.010733 204.137566 205.672725 207.601442
34.177273 202.334997 203.467757 205.038100 205.174388 206.768279 208.925969
34.322727 203.125780 204.504731 206.078848 206.224828 207.868121 210.368481
34.468182 203.978157 205.454227 207.043040 207.262093 209.084476 211.644712
34.613636 204.931796 206.462265 208.035286 208.309960 210.260643 212.844385
34.759091 205.798077 207.528184 209.113120 209.364091 211.368386 214.058725
34.904545 206.897337 208.604498 210.168768 210.445923 212.553915 215.044501
35.050000 208.101397 209.629802 211.160168 211.545836 213.823081 216.210163
35.183333 208.957058 210.528707 212.213206 212.587106 214.986035 217.569881
35.316667 209.954563 211.507003 213.294256 213.660580 216.136237 218.733640
35.450000 210.821030 212.457510 214.308929 214.731603 217.293369 220.168891
35.583333 211.677495 213.417133 215.279143 215.794921 218.359796 221.265536
35.716667 212.719454 214.417599 216.535367 216.897486 219.640159 222.483157
35.850000 213.716932 215.339179 217.617413 217.984103 220.919355 223.972886
35.983333 214.833774 216.300863 218.689600 219.066365 222.055954 224.930483
36.116667 215.978707 217.430057 219.732685 220.226253 223.420780 226.031771
36.250000 217.032319 218.490945 220.794096 221.348688 224.674577 227.112254
36.350000 217.651825 219.195572 221.578914 222.105005 225.479855 227.845650
36.450000 218.243346 219.861806 222.325770 222.868655 226.294467 228.664576
36.550000 219.023166 220.691349 223.048232 223.649814 227.104003 229.462473
36.670000 219.779616 221.721994 224.597163 224.772076 228.023649 230.289264
36.790000 220.830152 223.055504 225.857415 225.948738 228.878550 231.033801
36.910000 221.745830 224.526744 227.332924 227.208308 229.909620 231.685049
37.030000 223.122504 226.056808 228.788592 228.497566 230.769543 232.489375
37.150000 225.072570 227.635942 230.109636 229.801640 231.716557 233.128626
37.270000 226.356244 229.172106 231.315549 231.003203 232.820575 234.089527
37.390000 227.767332 230.502375 232.466665 232.175763 233.889435 234.973542
37.510000 229.430743 232.016224 233.559056 233.390881 234.848654 235.834693
37.630000 231.549146 233.653841 234.760297 234.641427 235.725524 236.680741
37.750000 233.972313 235.051109 235.856817 235.823897 236.601548 237.454761
37.820000 234.637695 235.698181 236.455883 236.434529 237.193336 238.121191
37.935000 235.427933 236.381495 237.224864 237.231122 238.047396 239.110614
38.050000 236.291729 237.076378 237.940734 237.981845 238.880043 240.032743
38.150000 236.765540 237.620876 238.548839 238.613819 239.604994 240.811699
38.250000 237.384797 238.145317 239.156267 239.239779 240.304742 241.566687
38.350000 237.850678 238.736966 239.769731 239.862737 241.004638 242.264741
38.491667 238.725082 239.638897 240.798170 240.879363 242.196044 243.502731
38.633333 239.605810 240.536209 241.785167 241.897744 243.262026 244.743356
38.775000 240.357331 241.507888 242.858889 242.944679 244.417016 246.047157
38.916667 241.262066 242.454653 243.899320 243.968791 245.466432 247.143741
39.058333 242.227301 243.400019 244.938614 245.007560 246.481755 248.297800
39.200000 243.104102 244.388919 245.954305 246.019567 247.548440 249.283444
39.300000 243.635646 244.976425 246.588922 246.636395 248.166428 249.826086
39.400000 244.235116 245.616959 247.205492 247.247307 248.801086 250.476378
39.500000 244.919678 246.237521 247.824343 247.837303 249.402252 251.132550
39.642857 245.647921 247.034343 248.641628 248.655794 250.205052 252.060532
39.785714 246.372335 247.817588 249.371986 249.445671 250.984458 252.932298
39.928571 246.994499 248.514855 250.128974 250.240905 251.863012 254.060638
40.071429 247.876955 249.335232 250.909151 251.038642 252.662677 254.926966
40.214286 248.613991 250.096946 251.640972 251.818536 253.482811 255.946279
40.357143 249.371040 250.798114 252.418420 252.606928 254.416071 256.853041
40.500000 250.093476 251.589828 253.239748 253.401098 255.210001 257.618792
40.610000 250.735681 252.223061 253.831807 254.039318 255.837249 258.514867
40.720000 251.356375 252.829774 254.469465 254.662670 256.486964 259.244219
40.840000 252.047241 253.457237 255.087186 255.372075 257.324769 260.044830
40.960000 252.825761 254.151358 255.788868 256.088566 258.172551 260.804335
41.080000 253.463921 254.798813 256.449243 256.776200 258.988875 261.569084
41.200000 254.053330 255.456881 257.141887 257.485126 259.720706 262.490277
41.320000 254.644857 256.106694 257.811920 258.198099 260.500464 263.303607
41.420000 255.191740 256.640733 258.417955 258.806215 261.082202 264.122258
41.520000 255.839213 257.247175 259.079491 259.427710 261.655312 264.512619
41.620000 256.408341 257.885635 259.724756 260.067430 262.219522 265.402831
41.748571 257.089092 258.733899 260.580306 260.896611 263.039604 266.393432
41.877143 257.888658 259.534029 261.535614 261.743182 263.885391 267.365882
42.005714 258.508920 260.303571 262.374298 262.595310 264.714415 268.449133
42.134286 259.156593 261.169529 263.273954 263.489247 265.738167 269.498876
42.262857 259.849399 262.083798 264.131211 264.392593 266.670594 270.510359
42.391429 260.656674 262.940722 265.079185 265.303696 267.570081 271.811976
42.520000 261.647934 263.807388 266.005381 266.233041 268.438020 272.969585
42.648571 262.367730 264.711668 266.983723 267.208560 269.563008 273.963589
42.777143 263.213246 265.681278 268.043901 268.248644 270.691416 274.918571
42.905714 264.200124 266.603167 268.998455 269.297973 271.972330 275.960131
43.034286 265.111145 267.609032 270.144272 270.415497 273.307579 277.041637
43.162857 266.028519 268.739368 271.234647 271.521617 274.586284 278.012842
43.291429 267.251623 269.983633 272.383473 272.704573 275.853287 279.007428
43.420000 268.205967 271.019260 273.534960 273.913036 277.259750 280.116726
43.553333 269.561592 272.356168 275.294003 275.509073 279.064060 281.530020
43.686667 270.901043 274.020482 277.044842 277.248743 280.860449 283.684849
43.820000 272.631208 275.628179 279.185177 279.080776 282.653895 285.425158
43.953333 274.327630 277.377990 281.046844 280.910752 284.245549 287.026556
44.086667 276.080130 279.339443 282.960322 282.791746 286.010332 288.809233
44.220000 277.891457 281.395927 284.803280 284.553828 287.414579 290.397710
44.353333 279.339633 283.852513 286.725098 286.418309 288.939199 292.282472
44.486667 281.682140 286.173237 288.302572 288.197668 290.376471 293.909385
44.620000 283.022414 288.281030 289.712836 289.867023 291.872417 295.324789
44.720000 284.860408 289.267089 290.746999 290.966164 293.019650 296.393988
44.820000 287.268158 290.100770 291.802630 292.028147 294.225244 297.469876
44.920000 288.770305 291.037965 292.778745 293.046709 295.210243 298.428985
