depth(m) lower_95(kyr) lower_68(kyr) median(kyr) mean(kyr) upper_68(kyr) upper_95(kyr)
4.525000 140.943576 142.051885 142.889852 142.909419 143.774762 145.138401
4.535000 141.356912 142.363000 143.161990 143.211385 144.058240 145.352653
4.545000 141.733416 142.701874 143.443442 143.506891 144.324509 145.708236
4.555000 142.120197 143.031030 143.723919 143.805768 144.652179 145.965790
4.565000 142.477605 143.319660 144.013342 144.099482 144.938162 146.218122
4.575000 142.821227 143.642128 144.293531 144.394678 145.202086 146.488143
4.585000 143.187677 143.940963 144.574944 144.680986 145.460894 146.825444
4.595000 143.450363 144.236245 144.857735 144.969657 145.728367 147.210600
4.605000 143.720224 144.510110 145.132547 145.255193 146.007539 147.567147
4.615000 144.042137 144.783661 145.395593 145.544233 146.276423 147.911841
4.625000 144.381954 145.079993 145.660779 145.834439 146.593665 148.177366
4.635000 144.660214 145.374015 145.945188 146.122357 146.871072 148.513495
4.645000 144.967513 145.664409 146.225960 146.407489 147.119415 148.876969
4.655000 145.326113 145.960388 146.482582 146.701132 147.416739 149.109973
4.665000 145.649489 146.247168 146.811935 147.000768 147.764761 149.406511
4.675000 145.998380 146.547408 147.101058 147.300330 148.054503 149.673682
4.685000 146.323742 146.851889 147.415441 147.603853 148.336834 150.003574
4.695000 146.635146 147.134909 147.709005 147.898482 148.700985 150.382065
4.705000 146.915639 147.411153 147.990700 148.193018 148.963602 150.768569
4.715000 147.191771 147.681545 148.272494 148.487357 149.214663 151.081458
4.725000 147.497301 147.986868 148.565915 148.784432 149.515908 151.427518
4.735000 147.772368 148.289162 148.854631 149.084095 149.864009 151.648105
4.745000 148.066683 148.566859 149.155191 149.386696 150.211779 151.957189
4.755000 148.341471 148.855912 149.450943 149.685019 150.463979 152.192534
4.765000 148.674877 149.126385 149.745607 149.995087 150.814650 152.564965
4.775000 148.959203 149.422937 150.046424 150.313786 151.148298 152.912987
4.785000 149.280474 149.753134 150.388851 150.642200 151.437558 153.390103
4.795000 149.538059 150.063961 150.710324 150.979027 151.894850 153.794655
4.805000 149.886062 150.381947 151.047236 151.311548 152.250476 154.244829
4.815000 150.172903 150.688840 151.421366 151.665170 152.657695 154.585737
4.825000 150.488750 151.005237 151.781798 152.026692 153.022774 155.175043
4.835000 150.824488 151.328469 152.139015 152.422127 153.604858 155.803309
4.845000 151.199238 151.716758 152.511371 152.834179 154.036315 156.458016
4.855000 151.506577 152.122671 152.931179 153.259829 154.565930 156.978149
4.865000 151.859134 152.480249 153.337909 153.688882 154.996835 157.383349
4.875000 152.224350 152.819215 153.798721 154.125435 155.505927 157.746012
4.885000 152.564796 153.272228 154.303811 154.599626 155.984768 158.092750
4.895000 152.933281 153.707614 154.843303 155.071412 156.443799 158.537303
4.905000 153.290083 154.123672 155.307620 155.548356 156.957799 158.933544
4.915000 153.734277 154.559363 155.825774 156.030663 157.534818 159.333929
4.925000 154.105974 154.977726 156.352822 156.495418 158.031677 159.657146
4.935000 154.455020 155.428515 156.905224 156.978381 158.542205 160.086212
4.945000 154.850766 155.944687 157.487074 157.494549 159.044263 160.464247
4.955000 155.173947 156.385430 158.052781 158.009725 159.616754 160.880284
4.965000 155.630252 156.872481 158.587701 158.525706 160.130121 161.234409
4.975000 156.064851 157.267976 159.149882 159.001029 160.549034 161.612286
4.985000 156.421365 157.758021 159.628292 159.461955 161.024115 162.015654
4.995000 157.039963 158.292832 160.127317 159.925386 161.398136 162.381739
5.005000 157.433685 158.811485 160.552069 160.378762 161.800313 162.781024
5.015000 157.985956 159.358825 161.027119 160.854964 162.263046 163.163209
5.025000 158.344940 159.852650 161.485165 161.309544 162.646283 163.556963
5.035000 158.796930 160.356915 161.969334 161.782847 163.086676 163.941546
5.045000 159.226168 160.919049 162.409310 162.222461 163.490520 164.308248
5.055000 159.741721 161.345949 162.842979 162.654385 163.868387 164.637430
5.065000 160.182484 161.864984 163.296551 163.088809 164.227157 164.990582
5.075000 160.773468 162.272644 163.713277 163.492947 164.593833 165.268648
5.085000 161.096398 162.735303 164.130404 163.895364 164.891501 165.617451
5.095000 161.794111 163.217502 164.527852 164.284498 165.220661 165.932608
5.105000 162.195494 163.650259 164.876737 164.651775 165.520298 166.216600
5.115000 162.614407 164.045392 165.229244 165.023987 165.863619 166.508412
5.125000 162.990084 164.430641 165.565909 165.378382 166.200369 166.888821
5.135000 163.602805 164.914809 165.902090 165.743838 166.497236 167.158668
5.145000 164.015761 165.315546 166.226993 166.088797 166.806917 167.446764
5.155000 164.532976 165.754509 166.560074 166.451545 167.135000 167.789146
5.165000 165.069683 166.153619 166.892033 166.807986 167.440259 168.103464
5.175000 165.579482 166.539124 167.246499 167.171268 167.832020 168.392299
5.185000 166.107443 166.914733 167.585448 167.540255 168.161345 168.703009
5.195000 166.501607 167.303137 167.930552 167.920361 168.560157 169.085113
5.205000 166.967605 167.694797 168.318802 168.291801 168.906205 169.447212
5.215000 167.387262 168.066133 168.690489 168.672750 169.274878 169.941854
5.225000 167.831513 168.425146 169.030257 169.048533 169.660955 170.337204
5.235000 168.208645 168.821772 169.377428 169.409849 169.991913 170.733605
5.245000 168.592902 169.170050 169.735624 169.773390 170.387825 171.102909
5.255000 168.888509 169.482563 170.094300 170.120392 170.774731 171.491160
5.265000 169.177822 169.798060 170.428816 170.465117 171.177900 171.826999
5.275000 169.457215 170.109265 170.769130 170.800692 171.532235 172.216238
5.285000 169.806611 170.457926 171.099224 171.142203 171.879584 172.592335
5.295000 170.118833 170.786103 171.438121 171.479954 172.228374 172.894974
5.305000 170.426662 171.097639 171.765276 171.808058 172.543966 173.204498
5.315000 170.710668 171.449664 172.100202 172.138672 172.865091 173.511206
5.325000 171.086092 171.750650 172.449105 172.478668 173.227697 173.812240
5.335000 171.421623 172.101519 172.799862 172.812607 173.559297 174.140222
5.345000 171.718499 172.480244 173.142206 173.151372 173.886251 174.508626
5.355000 172.022524 172.817871 173.492200 173.491129 174.175686 174.820820
5.365000 172.437197 173.177584 173.836572 173.831502 174.494100 175.114075
5.375000 172.767468 173.509708 174.165778 174.156221 174.806116 175.458041
5.385000 173.015674 173.856645 174.500371 174.479934 175.116586 175.795251
5.395000 173.431178 174.177543 174.834192 174.800975 175.421329 176.037180
5.405000 173.804006 174.477585 175.144614 175.112368 175.741787 176.358822
5.415000 174.125795 174.803113 175.437926 175.421406 176.048628 176.707989
5.425000 174.433031 175.114939 175.740087 175.723153 176.325026 176.990046
5.435000 174.734619 175.410828 176.016435 176.023997 176.661610 177.268915
5.445000 175.010457 175.725101 176.328133 176.334092 176.942776 177.670820
5.455000 175.384329 176.050829 176.615983 176.630920 177.224071 177.957991
5.465000 175.701434 176.342244 176.926167 176.933693 177.545513 178.313461
5.475000 176.012746 176.648747 177.232248 177.245904 177.863405 178.591057
5.485000 176.341615 176.926246 177.530623 177.550027 178.191178 178.894118
5.495000 176.650158 177.233656 177.824214 177.858166 178.532612 179.208572
5.505000 176.930596 177.545956 178.159207 178.175726 178.853427 179.480263
5.515000 177.263692 177.835514 178.453387 178.488441 179.177509 179.831287
5.525000 177.575435 178.122840 178.783414 178.815204 179.533496 180.188946
5.535000 177.849304 178.395636 179.126704 179.134828 179.895436 180.547757
5.545000 178.128251 178.690410 179.450329 179.467169 180.236173 180.943874
5.555000 178.397312 178.989284 179.782618 179.798602 180.614677 181.361985
5.565000 178.686877 179.321319 180.151008 180.146957 180.929227 181.706747
5.575000 179.070271 179.645654 180.541855 180.515507 181.306607 182.058706
5.585000 179.426167 180.013278 180.936089 180.905791 181.746245 182.384777
5.595000 179.662874 180.360864 181.335053 181.284136 182.158101 182.797954
5.605000 179.998550 180.711395 181.703834 181.651915 182.538961 183.174967
5.615000 180.288337 181.070371 182.080777 182.017739 182.932685 183.565846
5.625000 180.629802 181.473927 182.454640 182.398230 183.288296 183.865623
5.635000 180.949471 181.865987 182.863482 182.783119 183.622808 184.185473
5.645000 181.266202 182.315704 183.265441 183.162419 183.971242 184.566764
5.655000 181.634831 182.720321 183.644039 183.543739 184.319239 184.856068
5.665000 182.109849 183.168218 184.001765 183.924069 184.679304 185.218293
5.675000 182.557818 183.614830 184.364197 184.295085 185.021703 185.592411
5.685000 182.982859 184.004662 184.717464 184.660307 185.366935 185.933378
5.695000 183.465017 184.344136 185.070136 185.036194 185.715928 186.302354
5.705000 183.863347 184.718269 185.424862 185.390154 186.076289 186.641646
5.715000 184.412391 185.098239 185.815500 185.757885 186.437278 186.978034
5.725000 184.729755 185.472812 186.146594 186.123632 186.798607 187.312914
5.735000 185.146745 185.870498 186.542201 186.527139 187.179966 187.781467
5.745000 185.605468 186.328688 186.975187 186.970061 187.615710 188.324110
5.755000 186.092618 186.791040 187.443875 187.457455 188.104649 188.929890
5.765000 186.632647 187.293486 187.987061 187.997451 188.660666 189.498787
5.775000 187.123513 187.867013 188.521361 188.562246 189.244836 190.288757
5.785000 187.585292 188.381099 189.048400 189.127376 189.914467 191.007474
5.795000 188.256153 188.896062 189.607742 189.703899 190.583228 191.681733
5.805000 188.676904 189.372032 190.183234 190.272173 191.233481 192.231655
5.815000 189.164600 189.837721 190.740168 190.808615 191.802379 192.747973
5.825000 189.536209 190.285016 191.266936 191.328219 192.387778 193.440748
5.835000 190.001747 190.767571 191.783590 191.828268 192.927995 193.867892
5.845000 190.365252 191.179510 192.297261 192.299886 193.426894 194.250087
5.855000 190.807256 191.645414 192.785099 192.758291 193.838964 194.626655
5.865000 191.276944 192.114849 193.287534 193.224119 194.286226 195.034523
5.875000 191.758949 192.632120 193.745755 193.692060 194.688592 195.352653
5.885000 192.243557 193.145680 194.243451 194.155021 195.090366 195.750529
5.895000 192.795557 193.703485 194.686253 194.610641 195.447823 196.081923
5.905000 193.341670 194.230936 195.102692 195.047533 195.826186 196.405240
5.915000 193.848357 194.766631 195.503768 195.463938 196.170533 196.727910
5.925000 194.389902 195.219009 195.919162 195.881045 196.515368 197.048485
5.935000 194.918060 195.671366 196.310525 196.285978 196.861326 197.484697
5.945000 195.447874 196.098598 196.702038 196.691128 197.295532 197.885054
5.955000 195.888954 196.500437 197.058737 197.074920 197.685122 198.261772
5.965000 196.353507 196.933310 197.430608 197.489119 198.082378 198.659489
5.975000 196.777698 197.360406 197.877621 197.922583 198.528377 199.130719
5.985000 197.191391 197.768132 198.308497 198.348392 198.925886 199.611124
5.995000 197.628001 198.166221 198.763439 198.781269 199.401509 200.098256
6.005000 198.028014 198.604073 199.204555 199.213445 199.812811 200.561431
6.015000 198.507674 199.016516 199.633905 199.664946 200.263196 201.022140
6.025000 198.823402 199.443658 200.093579 200.127834 200.789712 201.703689
6.035000 199.183215 199.850692 200.548510 200.601150 201.305799 202.591515
6.045000 199.639547 200.283986 201.098074 201.286071 202.028073 205.045836
6.055000 200.019863 200.818741 201.768151 202.182991 203.636766 206.760342
6.065000 200.453012 201.256486 202.352071 202.907541 204.975441 207.242718
6.075000 200.890587 201.756697 203.123345 203.695970 206.162645 207.727058
6.085000 201.357701 202.574638 204.754595 204.800050 207.119389 208.257577
6.095000 201.812821 203.522790 205.907474 205.717776 207.804869 208.713813
6.105000 202.350623 204.529481 206.837632 206.485975 208.329775 209.109040
6.115000 202.842814 205.345047 207.483641 207.126383 208.808188 209.511141
6.125000 203.746338 206.549432 208.185782 207.898478 209.243828 209.842673
6.135000 205.878977 207.738804 208.857993 208.644448 209.649211 210.200502
6.145000 207.114461 208.546830 209.403428 209.273315 210.044441 210.519996
6.155000 208.233662 209.218336 209.879931 209.800600 210.423980 210.930525
6.165000 208.974123 209.752864 210.283446 210.259478 210.795688 211.350200
6.175000 209.589056 210.141453 210.640304 210.641189 211.126682 211.678792
6.185000 209.913206 210.492070 210.988972 210.982782 211.458255 212.016094
6.195000 210.296708 210.862669 211.315782 211.312423 211.762611 212.346289
6.205000 210.666977 211.191365 211.640326 211.634143 212.080549 212.661323
6.215000 210.972103 211.491910 211.943467 211.940177 212.397698 212.977451
6.225000 211.282929 211.823011 212.234256 212.244628 212.684390 213.240787
6.235000 211.609654 212.122481 212.525007 212.544618 212.963241 213.541894
6.245000 211.973061 212.423136 212.832082 212.845717 213.249440 213.885693
6.255000 212.269801 212.732578 213.147834 213.154415 213.569423 214.195465
6.265000 212.571549 213.031193 213.462817 213.456496 213.878565 214.492129
6.275000 212.914578 213.326966 213.765266 213.768597 214.219738 214.784982
6.285000 213.204279 213.642221 214.059291 214.081008 214.539097 215.119786
6.295000 213.501623 213.944854 214.357372 214.406380 214.880823 215.480517
6.305000 213.854735 214.261914 214.715233 214.743268 215.233209 215.834311
6.315000 214.172623 214.578660 215.049588 215.095067 215.594653 216.266256
6.325000 214.517517 214.918908 215.425094 215.464804 215.987614 216.713619
6.335000 214.893927 215.310179 215.853759 215.882986 216.411084 217.164599
6.345000 215.298809 215.749874 216.311671 216.349484 216.917376 217.603023
6.355000 215.664224 216.174573 216.752059 216.792926 217.435205 218.129823
6.365000 216.115650 216.622331 217.198419 217.261243 217.905170 218.767404
6.375000 216.612358 217.135218 217.691692 217.775093 218.448551 219.381687
6.385000 216.996135 217.558554 218.213999 218.290236 219.071883 219.893030
6.395000 217.427529 218.060406 218.746281 218.800274 219.582056 220.493107
6.405000 217.892700 218.530317 219.260740 219.317933 220.126891 221.074823
6.415000 218.340543 219.033012 219.785384 219.839079 220.663886 221.642587
6.425000 218.751369 219.509675 220.331914 220.356604 221.201089 222.126360
6.435000 219.170327 220.034241 220.840606 220.856697 221.701958 222.588747
6.445000 219.662045 220.469553 221.313631 221.327384 222.167242 223.103294
6.455000 220.090557 220.953386 221.743644 221.779340 222.623923 223.587566
6.465000 220.573061 221.366542 222.198637 222.206405 223.042460 223.954565
6.475000 221.072162 221.848400 222.653897 222.669867 223.538087 224.349197
6.485000 221.527832 222.312707 223.117357 223.136234 223.965338 224.747790
6.495000 222.086477 222.790394 223.593644 223.590969 224.369534 225.120277
6.505000 222.422733 223.250021 224.010834 224.032722 224.808058 225.561014
6.515000 222.871497 223.666007 224.481731 224.454561 225.217527 225.969263
6.525000 223.387201 224.103018 224.918852 224.887982 225.674945 226.354720
6.535000 223.781321 224.588319 225.338688 225.325980 226.089954 226.766436
6.545000 224.206179 224.997245 225.747149 225.741709 226.504882 227.181645
6.555000 224.582057 225.398924 226.105381 226.120971 226.866872 227.520419
6.565000 225.021416 225.816092 226.488273 226.489537 227.207754 227.784618
6.575000 225.485604 226.186555 226.893921 226.863517 227.560659 228.119820
6.585000 225.917205 226.559701 227.244530 227.216393 227.891494 228.416122
6.595000 226.188395 226.890061 227.602348 227.545289 228.192875 228.699713
6.605000 226.567895 227.209695 227.915289 227.860512 228.486443 228.999019
6.615000 226.908922 227.494632 228.221568 228.171487 228.807971 229.266821
6.625000 227.185464 227.804557 228.536375 228.479587 229.130338 229.536650
6.635000 227.509806 228.144505 228.848648 228.788863 229.426202 229.848178
6.645000 227.793506 228.479450 229.158098 229.096720 229.695450 230.092564
6.655000 228.101884 228.793404 229.493282 229.406770 229.969822 230.359159
6.665000 228.458886 229.120415 229.809625 229.716902 230.264055 230.638716
6.675000 228.750277 229.456279 230.105789 230.019792 230.568238 230.903542
6.685000 228.997891 229.799618 230.399743 230.314835 230.831630 231.161427
6.695000 229.292317 230.086020 230.688589 230.603783 231.085392 231.421471
6.705000 229.655082 230.374759 230.971782 230.889775 231.373713 231.666496
6.715000 229.900466 230.669532 231.252574 231.170867 231.658613 231.961694
6.725000 230.202798 230.954825 231.527944 231.447500 231.908062 232.236006
6.735000 230.513779 231.268310 231.791799 231.726586 232.189051 232.514392
6.745000 230.845396 231.555727 232.086961 232.014258 232.473903 232.773540
6.755000 231.185245 231.853006 232.372321 232.302905 232.759713 233.080849
6.765000 231.508285 232.172904 232.655512 232.609079 233.058016 233.404685
6.775000 231.858937 232.484957 232.949813 232.927909 233.387470 233.809021
6.785000 232.199873 232.825689 233.285869 233.262441 233.724918 234.141505
6.795000 232.534489 233.184341 233.624148 233.623901 234.092317 234.560686
6.805000 232.934934 233.571591 234.031844 234.034256 234.537168 235.075103
6.815000 233.445620 233.942338 234.436974 234.436777 234.919177 235.531399
6.825000 233.791569 234.338210 234.861491 234.866342 235.398747 235.959072
6.835000 234.293273 234.805931 235.366799 235.365537 235.905170 236.519542
6.845000 234.819728 235.371530 235.995938 236.049036 236.696929 237.665496
6.855000 235.594336 236.166264 236.875991 236.948661 237.714300 238.645127
6.865000 236.196052 236.818546 237.498887 237.556413 238.349375 239.284694
6.875000 236.687812 237.374279 238.138060 238.166968 238.964073 239.783368
6.885000 237.175673 237.905643 238.736826 238.758910 239.596487 240.439194
6.895000 237.571225 238.448689 239.364021 239.347123 240.205318 241.022069
6.905000 237.969617 239.072771 240.030261 239.950386 240.785381 241.528611
6.915000 238.424503 239.510650 240.459737 240.381128 241.205951 241.934168
6.925000 238.842692 239.946350 240.860954 240.788870 241.612897 242.326084
6.935000 239.353810 240.426486 241.266748 241.210338 241.997312 242.668382
6.945000 240.016426 240.939836 241.745825 241.690645 242.440149 243.129133
6.955000 240.728906 241.448835 242.232388 242.169747 242.889975 243.469249
6.965000 241.347982 241.962978 242.684098 242.643274 243.300319 243.858420
6.975000 241.713817 242.382809 243.074374 243.039438 243.687750 244.247159
6.985000 242.093859 242.742401 243.425305 243.392480 244.028733 244.584697
6.995000 242.459713 243.101436 243.784645 243.751274 244.369720 244.915436
7.005000 242.768626 243.473263 244.137002 244.106224 244.701079 245.228494
7.015000 243.242344 243.879313 244.512677 244.480478 245.076659 245.525492
7.025000 243.616424 244.318222 244.902486 244.877612 245.421624 246.006596
7.035000 244.057583 244.742978 245.269372 245.265887 245.785730 246.333713
7.045000 244.549121 245.165217 245.686358 245.677896 246.195056 246.765937
7.055000 245.022938 245.543837 246.106063 246.097115 246.610037 247.192491
7.065000 245.416258 246.007175 246.512687 246.526755 247.082780 247.727610
7.075000 245.820352 246.434678 246.953653 246.978099 247.552636 248.175799
7.085000 246.249825 246.830047 247.397487 247.405979 248.003919 248.587017
7.095000 246.618784 247.226112 247.804899 247.800111 248.411245 248.975157
7.105000 247.006861 247.598689 248.214288 248.206976 248.794121 249.297284
7.115000 247.445587 248.009906 248.610027 248.607709 249.182904 249.728921
7.125000 247.860656 248.451640 249.032844 249.025297 249.614302 250.111366
7.135000 248.252451 248.876045 249.404376 249.404015 249.975294 250.492156
7.145000 248.580299 249.222005 249.780145 249.769801 250.344864 250.835064
7.155000 248.917327 249.556450 250.090170 250.090081 250.627593 251.131396
7.175000 249.694260 250.223595 250.739266 250.732125 251.251316 251.734276
