depth(m) lower_95(kyr) lower_68(kyr) median(kyr) mean(kyr) upper_68(kyr) upper_95(kyr)
40.870000 1497.835270 1505.435484 1509.402451 1508.866434 1512.316951 1516.955369
40.920000 1508.167782 1512.345665 1515.235514 1515.184161 1518.489062 1521.894464
40.970000 1514.555725 1517.526869 1521.097090 1520.656063 1523.782788 1526.437153
41.020000 1519.303116 1522.797565 1525.897017 1525.395043 1528.013426 1529.820313
41.070000 1526.424848 1528.694078 1530.636110 1530.568422 1532.616305 1534.697653
41.120000 1530.148040 1531.993607 1533.540892 1533.648819 1535.365983 1538.450172
41.170000 1533.072587 1534.484854 1536.049999 1536.326171 1537.949276 1541.703730
41.220000 1535.877553 1537.246364 1538.779353 1539.017839 1540.326826 1544.749158
41.270000 1538.768760 1540.302863 1541.704017 1542.140162 1543.585745 1549.104353
41.320000 1541.941543 1543.410628 1545.299293 1546.198694 1549.195371 1554.420785
41.370000 1545.695706 1547.877857 1551.720092 1552.119109 1556.491785 1560.306301
41.420000 1549.847640 1554.146213 1558.985870 1558.498908 1562.092598 1565.762937
41.470000 1557.160451 1562.133290 1565.580612 1565.145593 1567.946137 1570.304156
41.520000 1569.804959 1572.199029 1574.056932 1574.203703 1576.364799 1579.320559
41.570000 1574.988616 1577.063414 1579.143906 1579.303283 1581.635315 1584.378672
41.620000 1580.713906 1583.266856 1585.636307 1586.549881 1589.553624 1598.015021
41.670000 1586.218041 1588.919540 1592.028339 1593.250402 1599.498186 1605.923806
41.720000 1590.307237 1593.424753 1598.934645 1598.904256 1603.397342 1612.935804
41.770000 1593.947993 1599.348725 1603.500040 1603.908684 1606.731948 1624.121621
41.820000 1599.689111 1604.089245 1607.406545 1608.605461 1610.652818 1629.105803
41.870000 1603.339549 1608.008781 1611.331334 1613.325669 1620.762771 1633.205131
41.920000 1607.577933 1611.640720 1615.991810 1619.957279 1630.482604 1636.370397
41.970000 1612.063335 1617.541187 1628.780462 1627.609261 1635.466337 1638.786512
42.020000 1617.851590 1630.622885 1636.614860 1635.074779 1639.468223 1641.867904
42.070000 1630.275765 1636.906844 1640.422244 1639.616005 1642.674196 1644.990939
42.170000 1641.697954 1644.589461 1646.752089 1646.664576 1648.888906 1651.116175
42.220000 1646.590205 1648.347764 1650.210840 1650.395703 1652.563774 1655.104700
42.270000 1649.308136 1650.949561 1652.931345 1653.182053 1655.455213 1657.917777
42.320000 1651.663732 1653.445007 1655.592465 1655.726928 1658.037676 1660.459776
42.370000 1654.159449 1655.845430 1658.036788 1658.184383 1660.487832 1662.837817
42.420000 1656.567225 1658.393962 1660.548975 1660.725250 1663.141403 1665.388036
42.470000 1658.775444 1660.903294 1663.223614 1663.330415 1665.788324 1668.092850
42.520000 1661.135848 1663.477272 1666.010293 1666.200711 1668.818948 1671.907146
42.620000 1666.153395 1668.363055 1671.369726 1672.023534 1675.000988 1683.065730
42.670000 1668.275705 1670.678703 1674.129433 1675.119471 1678.832122 1690.564399
42.745000 1671.426186 1674.095577 1679.522140 1680.690436 1687.030146 1697.653226
42.820000 1674.678760 1677.780527 1685.509167 1686.295528 1694.607505 1704.098303
42.895000 1678.831128 1684.011647 1691.588867 1691.711008 1698.909152 1707.717459
42.970000 1684.384824 1691.577391 1697.302697 1697.300368 1702.705221 1711.271705
43.020000 1688.597271 1695.861461 1699.876947 1700.427887 1705.304379 1714.305406
43.070000 1693.728979 1699.146959 1702.615539 1703.370616 1707.828740 1716.969463
43.120000 1697.603864 1701.910828 1705.295086 1706.154023 1710.505772 1720.105155
43.170000 1700.820948 1704.408138 1707.772759 1708.800532 1713.505356 1722.870615
43.220000 1703.768316 1706.898813 1710.106752 1711.423115 1716.308763 1725.696623
43.320000 1709.075566 1711.646531 1714.937179 1716.742774 1723.700518 1730.303785
43.370000 1711.838585 1714.415296 1717.972848 1719.736979 1727.151006 1732.709902
43.420000 1714.471377 1717.233001 1720.865719 1722.731938 1730.277607 1735.605545
43.520000 1719.262491 1722.201538 1727.498361 1728.649238 1735.952531 1740.832619
43.570000 1721.676396 1724.675664 1731.294703 1731.838851 1739.173203 1743.413204
43.670000 1725.778794 1729.732198 1738.721427 1737.686603 1744.792563 1748.089795
43.720000 1728.194602 1732.650540 1741.870797 1740.730887 1747.479667 1750.869382
43.770000 1730.844686 1736.156313 1744.877563 1743.661393 1749.964990 1753.024355
43.870000 1736.281342 1744.411537 1750.278182 1749.455177 1754.356940 1757.725007
43.920000 1740.217680 1748.272412 1753.376438 1752.549935 1756.864597 1760.074187
43.970000 1745.201444 1752.140613 1756.221032 1755.742940 1759.709457 1763.200215
44.020000 1750.800821 1755.633448 1759.161568 1759.064196 1762.748219 1766.227442
44.070000 1755.056428 1758.691305 1762.289740 1762.300762 1765.994351 1769.284887
44.120000 1758.596482 1761.612350 1765.320672 1765.402128 1769.140234 1772.366244
44.170000 1761.300948 1764.385591 1768.321526 1768.354850 1772.098946 1776.173169
44.220000 1763.731747 1766.831467 1771.057298 1771.279165 1775.156330 1781.056230
44.270000 1765.640792 1769.346492 1773.691295 1774.389366 1778.484089 1790.970342
44.320000 1768.047912 1771.729177 1776.076316 1777.447615 1781.497687 1801.581353
44.370000 1770.471110 1774.326822 1778.546475 1780.631188 1785.044482 1806.088865
44.420000 1773.157137 1777.014627 1781.000751 1784.263388 1793.701776 1809.434975
44.470000 1776.037962 1779.723731 1783.636397 1787.923830 1802.847539 1812.676691
44.520000 1778.463060 1782.318896 1786.852009 1791.711475 1807.504920 1815.617156
44.570000 1781.838739 1785.382578 1792.748157 1796.349094 1811.693711 1818.626937
44.620000 1784.269167 1788.490009 1800.706173 1801.308836 1815.404684 1821.530243
44.670000 1786.724974 1792.865142 1805.671790 1805.917196 1818.464676 1823.779685
44.720000 1789.891700 1800.268400 1811.171800 1810.645027 1821.892100 1826.186558
44.770000 1794.525281 1805.623043 1816.406343 1815.360658 1825.209696 1828.697007
44.845000 1805.168767 1814.371660 1824.679948 1822.623062 1829.840731 1832.034752
44.920000 1814.323537 1824.913334 1831.087415 1829.306253 1833.731953 1835.467498
44.970000 1819.593411 1829.527520 1834.282462 1832.841548 1836.156898 1837.629428
45.020000 1826.007760 1833.644673 1836.687658 1835.758108 1838.156189 1839.510641
45.070000 1834.584345 1837.488215 1838.987011 1838.738526 1840.118538 1841.268581
45.120000 1839.425842 1840.421316 1841.299124 1841.296227 1842.179385 1843.143660
45.170000 1841.530604 1842.738841 1843.943850 1844.177034 1845.559043 1848.321543
45.220000 1843.755314 1845.200439 1847.434044 1848.099910 1851.142834 1856.116617
45.270000 1846.189650 1848.045371 1852.260359 1852.534523 1857.378178 1860.135906
45.320000 1849.747918 1853.669163 1859.126218 1857.944854 1861.236791 1862.677059
45.370000 1861.313193 1862.168407 1863.089645 1863.082136 1863.990624 1864.871093
45.420000 1864.005508 1865.393674 1867.223794 1867.836402 1870.373524 1874.952050
45.470000 1866.938556 1869.409389 1872.781653 1873.153759 1877.061920 1881.361582
45.570000 1874.137756 1878.813113 1883.654802 1882.988627 1886.715314 1889.645125
45.620000 1877.679316 1883.028603 1886.915352 1886.510837 1889.855160 1892.471500
45.670000 1881.879120 1886.343146 1889.838060 1889.581825 1893.073188 1896.051625
45.720000 1885.710073 1889.434886 1892.771145 1892.796011 1896.071667 1899.512937
45.770000 1890.071615 1893.274802 1896.730336 1896.946700 1900.280935 1906.491754
45.820000 1896.732914 1900.492914 1904.374718 1905.036622 1910.288439 1915.104546
45.857000 1899.414842 1903.884347 1909.129256 1909.061503 1913.943911 1918.656260
45.870000 1900.333048 1905.087712 1910.202352 1910.141855 1915.098773 1919.554625
45.920000 1905.381131 1911.203805 1916.349203 1915.970638 1920.543812 1924.818663
45.970000 1910.980671 1916.201920 1920.736459 1920.539982 1924.813278 1928.811283
46.020000 1916.469168 1920.888235 1925.242897 1925.038024 1929.203231 1932.809737
46.070000 1920.305016 1924.325089 1928.531032 1928.404691 1932.604406 1935.881457
46.120000 1923.818169 1927.770119 1931.693098 1931.521201 1935.382150 1938.324454
46.220000 1929.707828 1933.852039 1937.463678 1937.159252 1940.708814 1942.953139
46.270000 1933.090752 1936.354132 1940.377365 1939.888592 1943.032339 1944.969830
46.320000 1935.723183 1939.055614 1942.723115 1942.307861 1945.154984 1947.128231
46.370000 1938.471659 1942.037246 1945.160693 1944.720563 1947.174313 1948.859853
46.420000 1941.422428 1945.090857 1947.382623 1947.098664 1949.267497 1950.730884
46.470000 1944.597390 1947.585918 1949.478217 1949.248551 1950.997805 1952.488739
46.520000 1947.325427 1949.624456 1951.259731 1951.154626 1952.732209 1953.962450
46.570000 1949.999514 1951.450876 1952.921369 1952.834028 1954.205184 1955.443369
46.620000 1951.777532 1953.085233 1954.431236 1954.388438 1955.685522 1956.775986
46.670000 1953.491123 1954.654448 1955.872356 1955.851515 1957.013448 1958.166823
46.720000 1955.153364 1956.171590 1957.310873 1957.280158 1958.353276 1959.342559
46.770000 1957.026034 1957.892955 1958.794395 1958.778033 1959.687865 1960.469029
46.820000 1958.526082 1959.563286 1960.579427 1960.612935 1961.615486 1963.002203
46.870000 1960.116487 1961.367302 1962.519738 1962.620247 1963.894892 1965.436728
46.920000 1961.938784 1963.221911 1964.468946 1964.618200 1966.145908 1967.697836
46.990000 1964.468077 1965.738297 1967.167595 1967.215771 1968.747084 1970.257152
47.040000 1966.172321 1967.572366 1969.012338 1969.004380 1970.456746 1971.903225
47.090000 1968.040783 1969.334699 1970.704407 1970.728379 1972.068600 1973.447942
47.140000 1969.947809 1971.118449 1972.355677 1972.389355 1973.673919 1975.095395
47.190000 1971.411204 1972.627027 1973.862555 1973.876301 1975.162344 1976.537474
47.240000 1972.780225 1973.988484 1975.317701 1975.299239 1976.529898 1977.801988
47.290000 1974.165644 1975.364187 1976.661625 1976.646123 1977.861022 1979.128715
47.340000 1975.727097 1976.801286 1978.028785 1978.018138 1979.211063 1980.442475
47.390000 1976.906350 1978.115548 1979.408105 1979.385186 1980.614952 1981.827366
47.440000 1978.367334 1979.452955 1980.776690 1980.771565 1982.052307 1983.368809
47.490000 1979.728361 1980.856604 1982.150480 1982.207608 1983.549546 1984.874285
47.540000 1981.167587 1982.448081 1983.715072 1983.758793 1985.045228 1986.637054
47.590000 1982.602697 1983.838208 1985.240143 1985.312346 1986.697632 1988.499549
47.640000 1984.198717 1985.418951 1986.840976 1986.977873 1988.595040 1990.758085
47.690000 1985.612757 1986.894452 1988.497618 1988.772769 1990.727813 1993.678432
47.740000 1987.285649 1988.605323 1990.435147 1990.852545 1993.244833 1996.187539
47.790000 1988.895978 1990.405999 1992.532227 1992.902885 1995.578814 1998.158151
47.840000 1990.711969 1992.120722 1994.673240 1994.878721 1997.659829 1999.896097
47.890000 1992.334107 1994.024750 1996.784654 1996.808805 1999.529747 2001.614020
47.940000 1993.997496 1996.011279 1998.806668 1998.771738 2001.409761 2003.508290
47.990000 1995.797997 1998.037455 2000.891645 2000.795031 2003.312841 2005.527940
48.040000 1997.593260 2000.310912 2002.983490 2002.946667 2005.410795 2008.463320
48.090000 1999.404001 2002.381671 2005.061735 2005.241545 2007.736538 2013.279430
48.140000 2001.420334 2004.226124 2006.979005 2007.731966 2011.666213 2018.829542
48.190000 2003.557265 2006.190766 2008.950660 2011.102628 2018.281757 2026.957657
48.240000 2005.270658 2007.888611 2010.630896 2014.243836 2027.097662 2033.116511
48.290000 2006.694002 2009.527085 2012.492826 2016.989420 2032.146881 2037.156177
48.340000 2008.526546 2011.698732 2014.871079 2019.724344 2035.049440 2041.018456
48.465000 2014.813268 2019.843979 2028.541141 2030.742246 2042.629391 2050.892206
48.590000 2028.762966 2033.417207 2040.627740 2042.030079 2053.091707 2057.660766
48.640000 2031.993466 2036.627958 2043.800111 2045.435880 2055.692809 2059.643226
48.690000 2034.655285 2040.062726 2048.158488 2048.705535 2058.278955 2061.773209
48.740000 2037.119318 2043.284882 2053.288664 2052.177425 2060.644463 2063.983450
48.840000 2044.830532 2052.973877 2061.506729 2060.079671 2066.220827 2070.196856
48.940000 2059.038307 2064.562312 2068.159795 2067.887759 2071.795463 2074.432055
49.015000 2064.077364 2068.536330 2072.108364 2071.708150 2075.038068 2077.554828
49.090000 2068.658901 2072.123271 2075.537938 2075.195080 2078.322067 2080.451727
49.140000 2070.958942 2074.609765 2077.887531 2077.487047 2080.214649 2082.436824
49.190000 2073.385827 2077.008775 2079.951029 2079.666912 2082.264312 2084.372806
49.240000 2076.015509 2079.202340 2081.853912 2081.668059 2084.175374 2086.320972
49.340000 2080.261733 2083.032939 2085.287352 2085.172114 2087.441062 2089.446476
49.390000 2082.302270 2084.847496 2087.074994 2087.055558 2089.223052 2091.166236
49.440000 2084.737933 2087.052495 2089.183619 2089.257360 2091.399655 2093.745840
49.490000 2086.992806 2089.274836 2091.452442 2091.683223 2094.153342 2097.814959
49.540000 2088.926307 2091.253356 2093.721292 2094.172949 2097.040330 2102.063495
