depth(m) lower_95(kyr) lower_68(kyr) median(kyr) mean(kyr) upper_68(kyr) upper_95(kyr)
68.140000 1482.050437 1488.795149 1506.196578 1502.362999 1513.603987 1524.694832
68.225000 1483.198756 1489.855352 1507.301700 1503.376334 1514.950297 1525.329038
68.310000 1484.330160 1490.700343 1508.660969 1504.414354 1516.117787 1526.025839
68.450000 1486.115303 1492.516170 1510.328456 1506.076675 1518.998956 1526.999603
68.525000 1486.654946 1493.427660 1511.025997 1506.904798 1519.735611 1527.449575
68.600000 1487.486313 1494.288931 1511.720137 1507.717802 1520.411375 1527.926189
68.685000 1488.497524 1495.129376 1512.514022 1508.706632 1521.288529 1528.555504
68.770000 1489.103137 1495.850750 1513.438909 1509.728823 1522.778643 1529.097124
68.904286 1490.653069 1497.389023 1515.144835 1511.719033 1524.638696 1530.015449
69.038571 1491.773479 1498.345709 1517.600983 1513.755350 1526.256283 1530.872812
69.172857 1493.569385 1499.400237 1519.563190 1515.816492 1527.739564 1531.758476
69.307143 1494.920345 1500.201330 1522.412622 1517.922824 1529.023492 1532.663107
69.441429 1495.981594 1501.063895 1525.182655 1519.929546 1530.227153 1533.402191
69.575714 1497.095208 1501.926893 1527.695158 1521.929691 1531.415092 1534.209539
69.710000 1498.239962 1502.736291 1530.215280 1523.924312 1532.579322 1535.019508
69.810000 1499.191210 1503.430340 1531.386501 1525.001071 1533.524597 1535.889953
69.950000 1500.481091 1504.297229 1533.239395 1526.667109 1535.334442 1537.545545
70.056667 1501.430349 1504.938328 1534.346819 1527.698072 1536.649573 1538.540743
70.163333 1502.168286 1505.619314 1535.316938 1528.642474 1537.681809 1539.448779
70.270000 1502.842072 1506.286061 1536.251188 1529.557975 1538.806603 1540.383416
70.370000 1503.533761 1506.980531 1537.134189 1530.383301 1539.705191 1541.297472
70.492500 1504.320487 1507.919483 1538.261896 1531.406076 1540.543353 1542.243190
70.615000 1505.017457 1508.651027 1539.328444 1532.402722 1541.461777 1543.253917
70.737500 1505.817413 1509.449159 1540.416185 1533.383143 1542.344506 1544.372283
70.860000 1506.660331 1510.290612 1541.442950 1534.392120 1543.294892 1545.474616
70.985000 1507.564651 1511.046164 1542.404302 1535.436079 1544.477422 1547.094880
71.110000 1508.329480 1511.978219 1543.469009 1536.544437 1545.659146 1548.328856
71.216667 1509.046658 1512.990934 1544.339328 1537.570324 1546.903324 1550.334569
71.323333 1509.859102 1514.044154 1545.263106 1538.638227 1548.115530 1551.910384
71.430000 1510.863115 1515.327636 1546.152570 1539.694269 1549.447402 1552.940881
71.573333 1511.744731 1517.047006 1547.413687 1541.175518 1551.193313 1554.531736
71.716667 1512.925659 1518.816095 1548.960742 1542.762003 1553.076645 1556.200731
71.860000 1513.973117 1520.769166 1550.609174 1544.360431 1554.790271 1557.886099
71.985000 1514.887587 1522.115267 1551.900621 1545.773080 1556.592284 1559.478932
72.110000 1515.648943 1523.800955 1553.726913 1547.329996 1558.609422 1561.943618
72.245000 1517.400538 1525.381457 1555.497126 1549.184485 1560.859155 1565.547897
72.380000 1518.856037 1526.827743 1557.625915 1550.999416 1563.459555 1567.610446
72.515000 1520.960401 1528.356722 1559.713968 1552.848824 1565.616340 1569.462234
72.650000 1523.379241 1529.701111 1562.539515 1554.759495 1567.945684 1571.583732
72.785000 1525.508507 1530.811586 1565.099117 1556.627725 1569.910970 1572.693534
72.920000 1527.593118 1532.207609 1567.838399 1558.449405 1571.631245 1574.574452
73.046667 1528.640416 1533.632442 1569.182516 1559.789791 1572.926348 1576.154908
73.173333 1530.244889 1536.101520 1570.186947 1561.121420 1574.179571 1577.640407
73.300000 1532.153140 1538.582091 1571.139289 1562.360012 1575.302308 1579.074218
73.443000 1533.766687 1541.227267 1572.188097 1563.787823 1576.588099 1580.462994
73.586000 1535.681477 1543.994329 1572.988173 1565.166816 1577.889248 1581.613586
73.729000 1537.366658 1546.457247 1573.856284 1566.503172 1579.146700 1582.780518
73.872000 1539.480161 1548.426527 1574.503704 1567.843755 1580.336774 1583.810870
74.015000 1541.784707 1550.785608 1575.250122 1569.120187 1581.330524 1584.634214
74.158000 1544.176045 1553.209602 1575.949263 1570.481406 1582.384725 1585.418706
74.301000 1546.747508 1555.335451 1576.602608 1571.834019 1583.483634 1586.556909
74.444000 1549.345120 1557.880825 1577.230483 1573.139303 1584.455702 1587.339634
74.587000 1550.935466 1560.560742 1577.894866 1574.411538 1585.488716 1588.058121
74.730000 1552.873354 1562.578968 1578.450182 1575.708901 1586.415572 1589.006986
74.873000 1555.442565 1564.985031 1579.304765 1577.030198 1587.442549 1589.783552
75.016000 1558.111666 1566.475929 1579.955672 1578.303860 1588.478188 1590.527076
75.159000 1560.185734 1568.359439 1580.690183 1579.616166 1589.459276 1591.418507
75.302000 1562.572372 1569.960887 1581.608098 1580.895264 1590.444685 1592.292691
75.445000 1565.031252 1571.663647 1582.496504 1582.185732 1591.414945 1593.147641
75.588000 1567.337828 1573.496912 1583.462457 1583.477330 1592.416368 1594.051589
75.731000 1569.694828 1575.411043 1584.868857 1584.773479 1593.341002 1594.904066
75.874000 1572.282615 1577.367071 1585.905463 1586.140622 1594.297034 1595.704624
76.017000 1574.972772 1579.203735 1586.885848 1587.441331 1595.290026 1596.534790
76.160000 1577.240168 1581.142930 1588.459127 1588.741188 1596.190436 1597.391238
76.235000 1578.410139 1582.107264 1589.559633 1589.458294 1596.698076 1597.843774
76.310000 1579.579945 1582.949717 1590.767484 1590.156957 1597.222520 1598.312105
76.420000 1581.168528 1584.094062 1592.644637 1591.211893 1597.861499 1599.047266
76.530000 1582.752046 1585.423702 1594.715589 1592.308670 1598.593104 1599.741567
76.620000 1583.816374 1586.432767 1595.531408 1593.191269 1599.190059 1600.315022
76.710000 1585.083156 1587.489570 1596.625286 1594.126897 1599.801772 1600.864766
76.847500 1586.690859 1589.425877 1598.000120 1595.691921 1600.745689 1601.840586
76.985000 1588.309698 1591.834753 1599.375019 1597.348435 1601.711729 1602.755432
77.122500 1590.240409 1594.528987 1600.754957 1599.037872 1602.558436 1603.774764
77.260000 1593.064506 1597.494472 1602.007649 1600.758409 1603.561606 1604.668079
77.380000 1595.632336 1599.778551 1603.092299 1602.206563 1604.481466 1605.562574
77.500000 1597.528817 1601.942543 1604.237055 1603.582181 1605.396970 1606.471926
77.585000 1598.800432 1603.040781 1604.981783 1604.442971 1606.109673 1607.126650
77.670000 1600.441038 1604.035385 1605.741755 1605.273465 1606.810180 1607.806845
77.750000 1601.808262 1604.908057 1606.383854 1605.986942 1607.476094 1608.393597
77.830000 1602.625805 1605.629992 1607.036094 1606.646693 1608.145142 1609.082173
77.948000 1603.405780 1606.594801 1607.902224 1607.554180 1608.933250 1610.035424
78.066000 1604.670839 1607.535730 1608.703322 1608.431605 1609.738296 1610.769134
78.184000 1605.747315 1608.491352 1609.550606 1609.291571 1610.532008 1611.593636
78.302000 1606.849518 1609.360043 1610.385871 1610.154933 1611.353358 1612.392979
78.420000 1608.348437 1610.242667 1611.234266 1611.040780 1612.161309 1613.203077
78.510000 1609.287331 1610.929203 1611.896021 1611.739511 1612.886836 1613.851996
78.600000 1610.259641 1611.675371 1612.607321 1612.452055 1613.549046 1614.514121
78.710000 1611.449026 1612.494977 1613.497344 1613.353183 1614.478705 1615.586570
78.813333 1612.199138 1613.282806 1614.283666 1614.230122 1615.459310 1616.830912
78.916667 1613.045591 1614.048065 1615.045755 1615.100818 1616.491406 1618.332372
79.020000 1613.856701 1614.801588 1615.866571 1615.953883 1617.286053 1619.585272
79.162500 1614.767327 1615.778347 1616.983643 1617.118022 1618.613671 1621.308013
79.305000 1615.743291 1616.829698 1618.086452 1618.313295 1620.007591 1622.800643
79.447500 1616.528087 1617.852216 1619.219333 1619.506068 1621.460543 1624.207697
79.590000 1617.594383 1618.965324 1620.374981 1620.718476 1622.850407 1625.512604
79.732500 1618.592803 1619.987226 1621.669523 1621.949830 1624.105835 1626.967740
79.875000 1619.841234 1621.117870 1622.949593 1623.176313 1625.388710 1628.073744
80.017500 1620.858203 1622.248038 1624.244122 1624.386115 1626.591195 1629.147921
80.160000 1621.962938 1623.417359 1625.535745 1625.607491 1627.824191 1630.332194
80.296667 1622.779678 1624.359482 1626.687991 1626.700118 1629.031667 1631.299189
80.433333 1623.758184 1625.310224 1627.835345 1627.763067 1630.187869 1632.268652
80.570000 1624.697575 1626.281384 1628.823875 1628.811974 1631.216172 1633.374941
80.690000 1625.565054 1627.407496 1629.805047 1629.825617 1632.162489 1634.128720
80.810000 1626.413593 1628.442429 1630.824135 1630.849073 1633.168760 1635.063908
80.900000 1627.106217 1629.374111 1631.610824 1631.641299 1633.844333 1635.744590
80.990000 1627.767701 1630.343397 1632.504651 1632.476665 1634.609866 1636.437523
81.000000 1627.851063 1630.427247 1632.610270 1632.576688 1634.693195 1636.503216
81.095000 1628.839948 1631.381069 1633.709991 1633.594229 1635.822734 1638.117206
81.190000 1629.491231 1632.165967 1634.772732 1634.595071 1636.951740 1639.578014
81.290000 1630.560033 1632.967484 1635.739716 1635.606101 1638.149620 1640.830970
81.390000 1631.450486 1633.753138 1636.608981 1636.573047 1639.360036 1642.331084
81.475000 1632.453343 1634.332432 1637.443010 1637.380787 1640.468606 1642.983737
81.560000 1633.246976 1634.975016 1638.196633 1638.168147 1641.438451 1643.789541
81.610000 1633.935570 1635.432845 1638.763803 1638.661315 1641.899258 1644.305276
81.730000 1634.943840 1636.516260 1639.925728 1639.833844 1642.902515 1645.319377
81.830000 1635.771521 1637.438180 1640.953595 1640.834933 1643.951009 1646.190680
81.850000 1635.950801 1637.598545 1641.130066 1641.036996 1644.124432 1646.370556
81.930000 1636.845232 1638.581716 1641.975795 1641.889103 1644.845410 1646.972219
82.010000 1637.689192 1639.782693 1642.870914 1642.773398 1645.535049 1647.670566
82.135000 1639.340335 1641.758604 1644.575687 1644.324855 1646.638600 1648.838027
82.260000 1641.401313 1643.673144 1645.968028 1645.916601 1647.989745 1650.389381
82.390000 1643.416486 1645.326146 1647.468126 1647.471185 1649.672182 1651.775431
82.520000 1644.937857 1647.000853 1648.958589 1649.057137 1651.231041 1653.400790
82.615000 1646.036469 1648.145923 1650.137492 1650.215441 1652.291500 1655.115189
82.710000 1647.447443 1649.222406 1651.204208 1651.333840 1653.319349 1656.322690
82.750000 1647.981750 1649.657266 1651.594147 1651.766962 1653.857132 1656.728042
82.875000 1648.904985 1650.811412 1652.887450 1653.021903 1655.240103 1658.009092
83.000000 1650.067932 1651.942569 1654.095876 1654.241309 1656.518455 1659.218784
83.125000 1651.010311 1653.034277 1655.212439 1655.423480 1657.884995 1660.652165
83.250000 1652.248192 1654.165697 1656.425518 1656.602037 1659.035148 1661.711365
83.395000 1653.307459 1655.421769 1657.820318 1657.898843 1660.298937 1663.086080
83.540000 1654.516612 1656.526173 1659.104492 1659.152758 1661.706008 1664.272729
83.640000 1655.353721 1657.458667 1659.934377 1660.046213 1662.569186 1665.491961
83.740000 1656.194214 1658.299631 1660.851436 1660.946768 1663.548133 1666.556881
83.840000 1656.957864 1659.097771 1661.635683 1661.822439 1664.530420 1667.892176
83.980000 1657.985348 1660.245484 1662.857813 1663.081259 1665.774646 1669.411935
84.120000 1659.219616 1661.510117 1664.209586 1664.398167 1667.229956 1671.357535
84.260000 1660.278923 1662.790520 1665.376005 1665.678285 1668.505246 1673.096406
84.400000 1661.663071 1663.904444 1666.641232 1666.973742 1670.005574 1674.776420
84.540000 1662.870269 1665.029058 1667.863514 1668.261089 1671.423127 1676.296778
84.645000 1663.552682 1665.866273 1668.784396 1669.313319 1672.693829 1678.655764
84.750000 1664.534310 1666.835903 1669.702187 1670.449088 1674.044393 1680.041895
84.850000 1665.380934 1667.832178 1670.670266 1671.546897 1675.589597 1682.143270
84.950000 1666.328741 1668.842167 1671.639756 1672.691335 1677.192398 1684.184506
85.050000 1667.170154 1669.632516 1672.537623 1673.774794 1678.967122 1685.375657
85.150000 1667.796132 1670.415934 1673.369683 1674.907215 1680.814128 1687.811845
85.250000 1668.705285 1671.225493 1674.257707 1675.997092 1682.482450 1689.900028
85.350000 1669.515011 1671.989626 1675.165278 1677.097207 1683.957584 1691.444810
85.480000 1670.264141 1672.956381 1676.538777 1678.587197 1686.390208 1693.945145
85.610000 1671.200528 1674.059786 1677.882823 1680.023436 1688.165965 1695.639824
85.640000 1671.470881 1674.362521 1678.278637 1680.359734 1688.651461 1695.842176
85.765000 1672.467690 1675.466590 1680.272163 1682.038367 1689.979512 1696.837258
85.890000 1673.501140 1676.492191 1682.679494 1683.736952 1691.662541 1697.466590
86.015000 1674.692211 1677.831377 1685.092147 1685.529449 1693.514626 1698.748294
86.140000 1675.699728 1679.348853 1687.405729 1687.351978 1695.234823 1699.938258
86.250000 1676.348902 1680.578678 1689.025809 1688.767080 1696.531597 1700.848993
86.395000 1677.564362 1683.267223 1691.384746 1690.785934 1697.880696 1702.034982
86.540000 1679.125516 1685.919724 1693.497456 1692.729464 1699.142333 1702.872222
86.643333 1680.057005 1687.579257 1694.593061 1693.895303 1700.084209 1703.766542
86.746667 1681.057788 1689.249570 1695.533107 1695.048497 1700.960814 1705.397514
86.850000 1682.492141 1690.895046 1696.511066 1696.151044 1701.876254 1706.265411
86.956667 1684.195706 1692.361539 1697.419083 1697.208066 1702.611529 1707.097111
87.063333 1685.798375 1693.455560 1698.283959 1698.224128 1703.422191 1707.963291
87.170000 1687.526978 1694.704307 1699.167581 1699.201489 1704.259746 1708.692860
87.315000 1690.516034 1696.328779 1700.143041 1700.464809 1705.218946 1709.766359
87.460000 1693.350460 1697.922833 1701.188949 1701.688970 1706.315183 1710.704157
87.555000 1694.643054 1698.720806 1701.864395 1702.475399 1707.027114 1711.487919
87.650000 1695.670300 1699.656071 1702.563060 1703.232875 1707.617363 1712.254014
87.750000 1696.670781 1700.415892 1703.307088 1704.013138 1708.352947 1713.017056
87.850000 1697.569192 1701.128505 1704.054250 1704.767810 1709.038928 1713.666543
87.950000 1698.467366 1701.826263 1704.853133 1705.535803 1709.757589 1714.527179
88.050000 1699.305624 1702.502477 1705.676865 1706.300264 1710.438607 1715.232409
88.195000 1700.327494 1703.411193 1706.649090 1707.351545 1711.597847 1717.298619
88.340000 1701.413568 1704.282358 1707.570251 1708.374165 1712.625768 1719.081748
88.440000 1702.082927 1704.849993 1708.326531 1709.105844 1713.412851 1720.132025
88.540000 1702.638548 1705.548171 1708.975057 1709.869554 1714.268215 1720.923353
88.640000 1703.452508 1706.196393 1709.737506 1710.618467 1715.135934 1722.005021
88.743333 1704.195768 1706.957085 1710.442008 1711.394760 1715.950985 1723.164487
88.846667 1705.004119 1707.654507 1711.144395 1712.181414 1716.965270 1724.191384
88.950000 1705.601173 1708.268080 1711.883295 1712.974628 1717.866742 1725.044821
89.045000 1706.228452 1708.910757 1712.639662 1713.739058 1719.151845 1726.305465
89.140000 1706.907041 1709.560053 1713.425781 1714.508651 1719.983684 1726.755591
89.250000 1707.746733 1710.334753 1714.298434 1715.408165 1721.072490 1728.015083
89.375000 1708.654918 1711.112140 1715.219935 1716.460956 1722.177412 1728.988953
89.500000 1709.654245 1711.981788 1716.422898 1717.541604 1723.379019 1730.078570
89.600000 1710.271178 1712.747707 1717.432697 1718.436269 1724.196205 1731.097908
89.700000 1711.094247 1713.518697 1718.429030 1719.374458 1724.978060 1732.160300
89.800000 1711.659592 1714.414595 1719.550476 1720.286186 1725.884109 1732.842904
89.930000 1712.566229 1715.626045 1720.869585 1721.520920 1727.040867 1733.984966
90.060000 1713.536321 1716.799105 1722.386500 1722.792326 1727.978798 1734.878606
90.190000 1714.438992 1718.283442 1723.777873 1724.018821 1728.906101 1736.202132
90.320000 1715.392061 1719.696698 1725.013449 1725.269694 1730.090173 1737.737012
90.450000 1716.393962 1720.982939 1726.287290 1726.496403 1731.245278 1738.604589
90.535000 1717.025813 1721.770093 1727.039061 1727.336669 1732.254592 1739.691572
90.620000 1717.984433 1722.847444 1727.988138 1728.179565 1733.030811 1740.403992
90.750000 1719.241758 1724.137247 1729.224790 1729.485261 1734.173495 1741.391980
90.875000 1720.388386 1725.433494 1730.549908 1730.729441 1735.340976 1742.210075
91.000000 1721.772242 1726.674484 1731.788866 1731.972733 1736.663991 1743.592001
91.116667 1723.028509 1727.733565 1732.759126 1733.123347 1737.686956 1744.323016
91.233333 1723.910859 1728.832362 1733.812718 1734.232416 1738.984031 1745.107001
91.350000 1725.443028 1730.029049 1734.940256 1735.394007 1740.062087 1746.010571
91.450000 1726.466336 1731.276566 1735.992638 1736.433758 1740.890028 1746.804242
91.550000 1727.723590 1732.553953 1737.029556 1737.488838 1741.868028 1747.306696
91.650000 1728.970440 1733.993991 1738.221946 1738.548080 1742.950018 1748.174583
91.783333 1730.712357 1735.428588 1739.683241 1739.976070 1744.206100 1749.021574
91.916667 1732.472007 1736.974653 1741.015129 1741.416435 1745.326793 1750.097626
92.050000 1734.279758 1738.439613 1742.412333 1742.851818 1746.510543 1751.223750
92.150000 1736.545077 1739.771585 1743.534314 1743.976543 1747.365785 1751.819906
92.250000 1737.638039 1741.133076 1744.934265 1745.120179 1748.299709 1752.519816
92.355000 1739.008920 1742.483418 1746.354045 1746.343945 1749.145128 1753.281091
92.460000 1740.330953 1743.810465 1747.525340 1747.520016 1750.216481 1754.049648
92.563333 1741.692545 1745.175161 1748.579768 1748.651240 1751.270708 1754.955334
92.666667 1742.746907 1746.612280 1749.659278 1749.807732 1752.431814 1755.737700
92.770000 1743.966584 1747.695903 1750.712243 1750.876265 1753.332135 1756.590816
92.890000 1745.475778 1749.231199 1751.986317 1752.182276 1754.496272 1758.007620
93.010000 1746.851286 1750.711306 1753.167291 1753.481800 1755.658222 1759.615976
93.123333 1747.965936 1751.946834 1754.276769 1754.715367 1756.914575 1761.108699
93.236667 1750.142814 1753.096006 1755.363150 1755.936951 1758.250830 1762.640885
93.350000 1751.497285 1754.203949 1756.589292 1757.166778 1759.448608 1764.031396
93.463333 1752.809607 1755.226244 1757.741883 1758.329650 1760.747767 1765.223867
93.576667 1753.985044 1756.311325 1758.980745 1759.556389 1762.292222 1766.779058
93.690000 1755.311456 1757.251958 1760.011053 1760.743548 1763.978808 1768.177383
93.793333 1756.106841 1758.226135 1760.968167 1761.824437 1765.282060 1769.543855
93.896667 1757.098652 1759.117980 1762.033692 1762.868799 1766.537339 1770.729199
94.000000 1757.710755 1759.917818 1762.955053 1763.863551 1767.583998 1771.721699
94.125000 1759.014870 1760.965643 1764.226507 1765.062996 1768.837746 1773.137506
94.250000 1760.161563 1762.037483 1765.312593 1766.247929 1770.119254 1774.880448
94.356667 1761.211385 1762.965532 1766.275523 1767.238754 1771.256856 1776.311307
94.463333 1762.100047 1763.985107 1767.292387 1768.261589 1772.102936 1777.540076
94.570000 1762.960615 1764.949257 1768.273815 1769.294109 1773.044602 1778.723148
94.705000 1764.200555 1766.148931 1769.690827 1770.684632 1774.608145 1780.664782
94.840000 1765.392283 1767.463137 1771.004564 1772.112898 1775.981847 1783.921233
94.970000 1766.332682 1768.656939 1772.332760 1773.523470 1777.633339 1787.907509
95.100000 1767.466789 1769.945741 1773.867162 1775.008920 1779.090200 1790.585960
95.220000 1768.664099 1771.134542 1775.303923 1776.629016 1781.126665 1793.818854
95.340000 1769.719502 1772.335573 1776.638863 1778.244761 1783.204883 1798.401349
95.460000 1770.629953 1773.651386 1777.989242 1779.908885 1785.098155 1800.873591
95.605000 1771.899307 1775.301462 1779.904544 1782.347749 1789.432607 1804.787608
95.750000 1773.005952 1777.068095 1781.666939 1784.898130 1795.160737 1808.327617
95.853333 1774.158624 1778.062085 1783.190598 1786.617141 1798.088057 1810.516049
95.956667 1774.976195 1779.261675 1784.945583 1788.388989 1800.222834 1814.256619
96.060000 1775.791407 1780.500913 1786.409120 1790.123937 1802.831252 1815.497037
