depth(m) lower_95(kyr) lower_68(kyr) median(kyr) mean(kyr) upper_68(kyr) upper_95(kyr)
49.300000 1481.557720 1486.758717 1493.059099 1493.141782 1499.521200 1504.866247
49.400000 1484.821691 1490.705045 1496.380439 1496.363766 1501.909412 1507.927552
49.500000 1488.433661 1495.253205 1500.691946 1500.437706 1505.458995 1511.132287
49.600000 1493.729098 1499.906198 1505.220105 1504.717705 1508.751387 1514.971972
49.700000 1499.685822 1505.438392 1509.675052 1509.183261 1512.344220 1517.991025
49.800000 1506.876280 1511.269386 1514.007357 1514.309951 1517.941255 1522.258376
49.900000 1512.520664 1515.642576 1520.023825 1519.910251 1524.102979 1526.927161
50.000000 1515.140027 1520.643327 1526.426377 1525.223488 1528.694452 1530.590151
50.100000 1520.036688 1527.350743 1530.210319 1529.514116 1531.953446 1533.621327
50.200000 1526.725308 1531.822800 1534.022060 1533.898082 1536.356873 1539.017741
50.300000 1534.433956 1536.369288 1538.307894 1538.285716 1540.206741 1542.079068
50.400000 1539.717236 1541.567453 1543.093209 1543.233500 1544.903370 1547.174562
50.500000 1543.083227 1544.981436 1546.885515 1546.901602 1548.827639 1550.770503
50.600000 1545.323422 1547.359527 1549.435022 1549.419388 1551.416257 1553.247721
50.700000 1547.437196 1549.561774 1551.697199 1551.637149 1553.700662 1555.483058
50.800000 1549.412569 1551.656416 1553.958200 1553.807774 1555.908297 1557.668999
50.900000 1551.452560 1553.902039 1556.165641 1556.010709 1558.101531 1559.916641
50.997000 1553.746767 1556.091779 1558.198589 1558.071083 1560.103871 1561.917947
51.094000 1556.022120 1558.089375 1560.195144 1560.082997 1562.041857 1563.602952
51.200000 1558.603804 1560.387871 1562.438078 1562.319173 1564.157401 1565.690180
51.300000 1560.616012 1562.485134 1564.439327 1564.314121 1566.041167 1567.602523
51.400000 1562.864263 1564.591289 1566.445102 1566.340012 1567.990489 1569.492830
51.500000 1564.883987 1566.873020 1568.569454 1568.507777 1570.147504 1571.623757
51.600000 1567.332699 1569.096195 1570.745260 1570.704843 1572.212793 1573.967149
51.733333 1569.854955 1571.934643 1573.863748 1573.848095 1575.661310 1578.270028
51.866667 1572.572643 1574.786871 1577.009573 1577.075231 1579.147625 1582.376711
52.000000 1574.827670 1577.896750 1580.156373 1580.342911 1582.870710 1586.024997
52.133333 1577.739408 1580.605277 1583.217058 1583.676626 1587.044555 1591.567189
52.266667 1580.904367 1583.517302 1586.422832 1587.111357 1591.500091 1595.663065
52.400000 1584.394291 1586.613249 1589.617416 1590.653892 1595.928836 1599.470645
52.500000 1586.869980 1589.097236 1592.183492 1593.394318 1598.986442 1602.658617
52.600000 1589.476603 1591.761018 1595.033851 1596.479365 1601.756243 1608.018068
52.700000 1592.825549 1595.340333 1599.180563 1599.952839 1604.340628 1612.622810
52.800000 1596.047754 1600.167518 1603.922385 1604.496691 1609.094570 1615.288591
52.900000 1602.756438 1606.420387 1611.489529 1610.891659 1614.428417 1618.620801
53.000000 1615.216483 1617.361909 1619.324784 1619.316147 1621.308815 1623.728535
53.100000 1621.098406 1622.528052 1624.012825 1624.080736 1625.716439 1627.478361
53.120000 1621.839339 1623.411751 1624.813912 1624.889276 1626.499367 1628.158742
53.170000 1623.735389 1625.039094 1626.475556 1626.537467 1627.977865 1629.774597
53.200000 1624.732036 1626.024053 1627.436696 1627.488774 1628.990873 1630.674818
53.220000 1625.353068 1626.711282 1628.070540 1628.144368 1629.583829 1631.259305
53.270000 1627.124039 1628.273357 1629.734020 1629.749165 1631.197226 1632.505343
53.300000 1628.070114 1629.408716 1630.807944 1630.781517 1632.115893 1633.431901
53.320000 1628.659063 1630.078496 1631.419460 1631.421398 1632.796667 1633.995644
53.370000 1629.866009 1631.574459 1632.956698 1632.946231 1634.313781 1635.692418
53.400000 1630.788871 1632.388383 1633.979145 1633.920677 1635.391426 1636.751338
53.420000 1631.444823 1633.157536 1634.607003 1634.551584 1636.035040 1637.496330
53.470000 1633.064594 1634.720410 1636.104827 1636.115124 1637.519044 1638.935851
53.500000 1634.203913 1635.597740 1636.981485 1637.005913 1638.427440 1639.947558
53.520000 1634.872224 1636.197328 1637.608447 1637.595178 1639.017198 1640.375124
53.570000 1636.054870 1637.567314 1638.881726 1638.888531 1640.223108 1641.814385
53.620000 1637.314729 1638.765186 1640.086368 1640.153189 1641.619992 1643.205749
53.670000 1638.816746 1639.935036 1641.451207 1641.487910 1642.994072 1644.622795
53.720000 1640.123688 1641.304500 1642.770890 1642.848328 1644.435210 1645.972959
53.770000 1641.471345 1642.740921 1644.416481 1644.430933 1646.080103 1647.612442
53.820000 1642.730932 1644.307602 1646.059171 1646.045030 1647.785959 1649.405998
53.870000 1644.021040 1645.648934 1647.453516 1647.478918 1649.289187 1651.139144
53.920000 1645.430955 1647.193292 1649.049994 1649.101041 1650.956514 1653.143251
54.020000 1647.997339 1649.491948 1651.492780 1651.696656 1653.866903 1656.278957
54.120000 1649.968886 1651.603577 1653.848235 1654.038156 1656.629946 1658.886317
54.170000 1651.306384 1652.729182 1654.964997 1655.282518 1657.936826 1660.533967
54.270000 1653.322958 1655.069855 1657.591118 1657.774284 1660.450698 1662.732408
54.320000 1654.550618 1656.381872 1659.035323 1659.084968 1661.777628 1664.202068
54.420000 1656.928537 1659.211722 1661.664842 1661.689801 1664.070540 1666.542806
54.470000 1658.380802 1660.753724 1663.215742 1663.205748 1665.609288 1667.875607
54.520000 1660.116428 1662.611627 1664.833776 1664.875295 1667.243454 1669.441056
54.570000 1661.992143 1664.579881 1666.729205 1666.753789 1669.161179 1671.452060
54.620000 1663.714905 1666.264497 1668.414252 1668.519701 1670.914086 1673.318432
54.670000 1665.924702 1667.947624 1670.348739 1670.391103 1672.856838 1675.713390
54.720000 1667.537500 1669.509730 1672.142400 1672.242699 1674.886922 1677.679476
54.845000 1670.624743 1673.278648 1676.230721 1676.428866 1679.578359 1683.340898
54.970000 1673.952559 1676.781495 1680.032763 1680.222212 1683.578780 1687.621608
55.045000 1676.062494 1678.746366 1682.344120 1682.400151 1685.833973 1689.567440
55.120000 1678.122076 1681.025033 1684.409917 1684.614378 1688.215778 1691.691451
55.220000 1680.719620 1683.576818 1687.249399 1687.376458 1690.973811 1694.299288
55.320000 1682.880771 1686.297236 1690.172616 1690.164879 1693.765206 1697.492695
55.420000 1685.316618 1689.133250 1693.280545 1693.174417 1696.965510 1700.735254
55.470000 1686.813184 1690.986785 1695.089309 1695.000457 1699.029313 1702.637945
55.603333 1691.092015 1695.838225 1700.517838 1700.687368 1705.623579 1710.886768
55.736667 1696.860949 1701.536882 1706.720656 1706.551091 1711.437267 1716.147607
55.870000 1702.736772 1708.672965 1713.062042 1712.627984 1716.518233 1720.354442
55.970000 1708.193047 1714.090875 1717.064953 1716.904486 1720.143738 1723.322427
56.070000 1713.192992 1717.482712 1720.344513 1720.277389 1723.166248 1726.456928
56.170000 1715.933613 1720.673135 1723.647755 1723.662986 1726.936493 1730.603267
56.220000 1717.682394 1722.221153 1725.316268 1725.278376 1728.589470 1732.254214
56.345000 1721.642209 1725.639791 1728.915725 1728.949755 1732.310526 1736.207318
56.470000 1725.252114 1729.202281 1732.484261 1732.519381 1736.019558 1740.084461
56.520000 1726.930284 1730.857745 1734.221524 1734.226735 1737.820227 1741.658296
56.630000 1731.904877 1734.961955 1737.880635 1738.037992 1741.225528 1744.795275
56.730000 1735.385848 1738.301467 1741.677381 1741.580732 1744.753405 1747.539935
56.830000 1738.273248 1741.460984 1744.682334 1744.589694 1747.738933 1750.822784
56.930000 1740.802320 1744.205196 1747.506235 1747.396279 1750.591352 1753.469636
57.030000 1743.438266 1746.771613 1750.223532 1750.086136 1753.266448 1755.932245
57.130000 1746.729641 1749.550166 1753.012946 1752.942010 1756.088442 1758.997112
57.230000 1749.255339 1752.405374 1755.918963 1755.879622 1759.167688 1762.596318
57.330000 1751.727352 1755.461684 1758.562186 1758.642161 1762.048605 1765.198959
57.430000 1754.374118 1757.826876 1761.281486 1761.483605 1765.179027 1770.120604
57.530000 1757.053883 1760.693497 1763.864702 1764.409560 1768.291470 1774.432905
57.658571 1759.836942 1763.638349 1767.709052 1768.527870 1773.653554 1781.057401
57.787143 1762.921886 1766.876410 1771.450192 1772.711687 1779.347889 1788.265652
57.915714 1765.524769 1769.902556 1775.167509 1776.951564 1785.496891 1793.818269
58.044286 1768.609176 1772.815842 1779.040299 1781.171126 1791.125067 1799.255345
58.172857 1771.460958 1776.264212 1783.770621 1785.494372 1795.748364 1803.295135
58.301429 1774.486580 1779.475940 1788.665474 1789.872859 1801.077900 1807.603298
58.430000 1778.186826 1783.195581 1794.453374 1794.319193 1805.818732 1811.575400
58.530000 1782.389918 1787.015359 1799.042024 1798.140990 1808.916051 1814.606317
58.630000 1786.372281 1793.018772 1802.883849 1802.481869 1812.069979 1817.146838
58.730000 1790.306740 1799.108437 1806.745714 1806.787553 1815.173497 1819.919122
58.830000 1798.920739 1804.552187 1811.355600 1811.159747 1817.993333 1822.582963
58.930000 1803.348459 1809.123075 1815.360109 1815.119213 1821.211491 1825.326371
59.030000 1807.306957 1813.563824 1818.975352 1818.894412 1824.800010 1828.379337
59.130000 1812.305468 1817.798894 1822.876013 1822.703066 1828.026277 1831.139114
59.230000 1816.465023 1822.087981 1826.888078 1826.562244 1831.315707 1833.657759
59.330000 1822.461317 1827.072087 1831.378987 1830.811083 1834.406799 1836.262649
59.430000 1827.713264 1832.275697 1835.542735 1834.936279 1837.393218 1838.845219
59.530000 1833.401967 1836.917000 1838.491011 1838.266845 1839.800076 1841.032308
59.630000 1839.260424 1840.208485 1841.102630 1841.101885 1842.050621 1842.917980
59.730000 1841.431225 1842.542596 1843.718591 1843.871665 1845.143752 1847.454085
59.830000 1843.809975 1845.254032 1847.210143 1847.699382 1850.394913 1854.196346
59.930000 1846.598811 1848.298808 1851.745901 1851.787191 1855.243723 1857.638039
60.030000 1849.725993 1853.144026 1856.476201 1855.985964 1858.630170 1860.104162
60.130000 1854.178824 1858.473903 1860.222038 1859.829506 1861.394705 1862.494195
60.230000 1861.187062 1862.028297 1862.836927 1862.827092 1863.653389 1864.560380
60.330000 1863.067678 1863.988160 1865.100447 1865.244205 1866.346921 1868.462533
60.430000 1864.932914 1866.004467 1867.305082 1867.681574 1869.264873 1872.846048
60.530000 1866.605807 1867.915760 1869.500314 1870.015842 1871.963786 1876.344496
60.640000 1868.667307 1870.175874 1872.141297 1872.725069 1875.380207 1880.592908
60.740000 1870.800808 1872.347113 1874.989230 1875.633400 1879.063954 1883.991154
60.840000 1872.857711 1874.919054 1878.251816 1879.040508 1883.434223 1889.047160
60.940000 1875.252762 1877.772890 1881.849063 1882.657703 1888.115633 1892.616271
61.040000 1877.596339 1880.894902 1887.187710 1886.990860 1892.718812 1895.705748
61.140000 1879.963389 1885.839963 1892.891600 1891.557554 1896.105749 1898.524425
61.240000 1883.881511 1892.356519 1897.006664 1895.873160 1899.308926 1901.396530
61.340000 1890.654568 1896.979813 1899.788769 1899.260345 1901.745117 1903.663693
61.440000 1898.846499 1901.089210 1902.894597 1902.894478 1904.787280 1906.843722
61.540000 1901.747178 1903.543799 1905.428522 1905.475362 1907.506798 1909.264388
61.640000 1903.826576 1905.634224 1907.653625 1907.670756 1909.607975 1911.627992
61.740000 1905.667774 1907.670210 1909.847282 1909.846060 1911.842533 1913.989339
61.840000 1907.785160 1909.844986 1912.069108 1911.998542 1914.037287 1916.340705
61.930000 1909.766777 1911.829964 1914.004324 1914.024162 1916.121536 1918.464360
62.030000 1911.976220 1914.174362 1916.359953 1916.421015 1918.774099 1921.458017
62.140000 1914.843602 1916.981332 1919.408109 1919.535499 1922.078291 1925.115600
62.240000 1917.521958 1919.683564 1922.459586 1922.668460 1925.471097 1929.160278
62.340000 1920.564496 1923.152149 1926.352631 1926.709026 1930.253730 1934.878331
62.440000 1924.145817 1926.989371 1930.824961 1931.348380 1935.845011 1941.266278
62.540000 1927.756523 1931.711492 1936.486129 1936.642332 1941.565944 1946.570856
62.640000 1931.653824 1936.801719 1942.134055 1942.074441 1947.266890 1951.183823
62.740000 1936.346253 1943.102939 1948.592986 1947.865758 1952.781644 1954.875288
62.840000 1943.470393 1950.106783 1954.222910 1953.105447 1955.939904 1957.303512
62.940000 1955.846084 1956.779468 1957.742280 1957.692331 1958.623008 1959.381031
63.040000 1957.882794 1958.961853 1960.161076 1960.117457 1961.155695 1962.416346
63.090000 1959.097274 1960.146175 1961.307491 1961.338055 1962.477015 1964.049065
63.140000 1960.147949 1961.299211 1962.491470 1962.517193 1963.671323 1965.306524
63.190000 1961.266399 1962.455629 1963.673391 1963.699950 1965.002961 1966.350012
63.240000 1962.313796 1963.544917 1964.780923 1964.835767 1966.206676 1967.457210
63.290000 1963.463017 1964.595937 1965.958849 1965.953027 1967.302152 1968.545845
63.340000 1964.526589 1965.727728 1967.119761 1967.103154 1968.452732 1969.694054
63.390000 1965.726387 1966.918829 1968.301213 1968.280583 1969.612509 1970.781504
63.440000 1966.810111 1968.227178 1969.518415 1969.533814 1970.853924 1972.243979
63.490000 1968.264916 1969.469261 1970.780779 1970.829298 1972.156731 1973.657203
63.540000 1969.490326 1970.838718 1972.239309 1972.239120 1973.569086 1975.372509
63.590000 1970.907320 1972.155734 1973.611169 1973.692120 1975.188787 1977.581113
63.640000 1972.383181 1973.662836 1975.019154 1975.249050 1976.845337 1979.233455
63.690000 1973.860878 1975.064613 1976.551497 1976.783752 1978.601932 1980.996983
63.740000 1975.149006 1976.387811 1978.075426 1978.354184 1980.400785 1982.592364
63.790000 1976.245424 1977.883120 1979.913784 1980.092973 1982.334392 1984.961843
63.890000 1978.698845 1980.693226 1983.209973 1983.500849 1986.400547 1989.844537
63.990000 1981.430383 1983.611559 1986.589707 1986.926368 1990.540645 1994.349113
64.090000 1984.503036 1986.953533 1989.991537 1990.292365 1993.835371 1997.291950
64.190000 1988.212784 1990.377894 1993.730133 1993.849871 1997.459255 2000.340487
64.240000 1990.138830 1992.316866 1995.490202 1995.629153 1999.009138 2001.770700
64.290000 1991.916113 1994.489865 1997.506384 1997.540166 2000.752756 2003.321460
64.340000 1993.698169 1996.823597 1999.649597 1999.645844 2002.659756 2004.923314
64.390000 1996.106975 1999.049882 2001.846616 2001.653962 2004.268528 2006.472515
64.440000 1998.338504 2001.274625 2003.848974 2003.628033 2005.989727 2007.761019
64.490000 2000.651373 2003.417921 2005.601124 2005.456702 2007.561962 2009.238180
64.540000 2002.913432 2005.355254 2007.519103 2007.347871 2009.324812 2010.875103
64.590000 2004.642452 2007.289396 2009.160132 2009.029950 2010.825432 2012.626925
64.640000 2006.159659 2008.789764 2010.599397 2010.459874 2012.105429 2014.062148
64.690000 2007.610830 2010.258082 2011.976088 2011.851027 2013.425778 2015.358159
64.740000 2009.512026 2011.896102 2013.392818 2013.373193 2014.990769 2017.129676
64.790000 2011.294363 2013.464983 2015.054484 2015.130810 2016.893568 2019.011695
64.840000 2013.194045 2014.957953 2016.559399 2016.741190 2018.675493 2020.896487
64.890000 2014.737755 2016.385406 2018.075304 2018.316939 2020.402910 2022.806971
64.940000 2016.344145 2017.952209 2019.827677 2019.995797 2022.147153 2024.215979
64.990000 2017.869222 2019.507277 2021.739258 2021.740388 2023.965606 2025.684618
65.040000 2019.276074 2021.266198 2023.609990 2023.474633 2025.591465 2027.117141
65.090000 2020.804772 2022.995520 2025.426952 2025.205365 2027.253673 2028.871368
65.140000 2022.394204 2024.963925 2027.108008 2026.930664 2028.811144 2030.159030
65.190000 2024.362291 2026.992769 2028.845343 2028.753223 2030.562108 2032.197697
65.240000 2026.382299 2028.515565 2030.300891 2030.268205 2032.049027 2033.959964
65.290000 2028.054405 2029.928018 2031.672636 2031.669946 2033.375109 2035.088772
65.340000 2029.850909 2031.563608 2033.229353 2033.218775 2034.800038 2036.664413
65.390000 2031.610454 2033.360570 2034.878998 2034.928807 2036.556544 2038.585079
65.440000 2033.363800 2034.967708 2036.395116 2036.527361 2038.137232 2040.172737
65.490000 2034.798155 2036.430804 2037.910138 2038.055842 2039.699534 2041.956715
65.540000 2036.331259 2037.856647 2039.493836 2039.625685 2041.386380 2043.619449
65.590000 2037.834657 2039.452141 2041.063396 2041.302002 2043.259761 2045.701713
65.640000 2039.209238 2040.999375 2043.059743 2043.181779 2045.501705 2047.797933
65.690000 2040.914958 2042.585344 2045.049405 2045.123724 2047.550463 2049.783163
65.765000 2042.746511 2044.780898 2047.395015 2047.418031 2050.013573 2052.271828
65.840000 2044.696266 2046.813254 2049.540924 2049.557324 2052.192113 2054.357892
65.940000 2047.097561 2049.446588 2052.276125 2052.237451 2054.991258 2057.235200
66.040000 2049.592188 2051.924205 2054.835724 2054.807279 2057.549874 2059.758658
66.140000 2052.344801 2054.763271 2057.654520 2057.484285 2060.093729 2062.229236
66.240000 2055.304552 2058.133838 2060.777485 2060.605842 2062.993733 2064.986563
66.340000 2059.622831 2062.169116 2064.390816 2064.396699 2066.660861 2069.535235
66.390000 2062.217307 2064.493185 2066.656680 2066.702612 2068.863159 2071.640486
66.440000 2064.168644 2066.427259 2068.417367 2068.651741 2071.054876 2073.910185
66.540000 2067.335950 2069.339639 2071.756982 2071.915251 2074.437622 2077.470434
66.615000 2069.276407 2071.568798 2074.333186 2074.381898 2077.362547 2080.285680
66.690000 2071.314449 2073.838232 2076.761739 2076.815970 2079.916801 2082.585793
66.765000 2073.537453 2076.065655 2079.042529 2079.075757 2082.094082 2084.833682
66.840000 2075.412628 2078.303037 2081.261059 2081.336626 2084.324301 2087.122305
66.890000 2077.050668 2079.994301 2082.961763 2082.931739 2085.969044 2089.023224
66.940000 2078.554951 2081.543239 2084.491113 2084.444734 2087.359556 2090.589344
67.040000 2082.040167 2085.165944 2088.036083 2087.994087 2090.771424 2093.989304
67.140000 2086.599565 2089.840957 2092.674905 2093.004772 2096.329850 2100.609531
67.230000 2090.397507 2092.956854 2096.038809 2096.587331 2100.657774 2104.748140
67.240000 2090.635686 2093.222666 2096.435514 2096.964245 2101.069595 2105.076339
67.340000 2093.731461 2096.166308 2099.850320 2100.505198 2105.074107 2111.021081
67.440000 2096.175143 2099.102459 2103.392630 2104.066909 2108.982594 2115.641212
