depth(m) lower_95(kyr) lower_68(kyr) median(kyr) mean(kyr) upper_68(kyr) upper_95(kyr)
34.110000 294.027800 299.378588 303.857760 303.512441 307.449435 312.210888
34.250000 296.194014 301.847036 306.048669 305.851452 310.090183 314.351180
34.390000 298.390614 304.171771 308.462982 308.276934 312.582696 316.641952
34.530000 300.410218 306.575288 310.891747 310.756375 315.128085 318.809786
34.670000 303.134173 309.001623 313.672889 313.317380 317.673373 320.963599
34.810000 305.213821 311.730910 316.281787 315.931269 320.181846 323.441295
34.943333 306.958491 313.980110 319.184917 318.736319 323.249071 327.908940
35.076667 308.907904 316.480645 322.071612 321.422840 326.113580 330.728671
35.210000 310.348579 319.645209 324.919401 324.120324 328.697753 333.022702
35.343333 311.907223 323.159234 327.875032 326.964763 331.178748 335.427372
35.476667 313.190673 326.326475 330.595727 329.662727 333.605358 338.429664
35.610000 315.034149 330.596878 333.209319 332.441228 336.028586 341.164502
35.750000 318.250465 332.441731 335.712769 335.152804 338.989279 344.406261
35.890000 323.319625 334.309488 338.252843 337.830448 342.006937 348.097248
36.030000 328.855445 336.220968 340.901119 340.528765 344.954318 351.251069
36.170000 331.862932 337.816223 343.678510 343.097544 347.386847 353.234581
36.310000 334.800748 339.714387 346.238077 345.541615 349.771689 355.589058
36.410000 336.318610 341.172870 347.953925 347.096008 351.195378 356.972983
36.543333 338.222365 343.395610 349.678395 348.956914 352.997403 358.754123
36.676667 340.041854 345.558283 351.566296 350.810324 355.031799 359.928513
36.810000 342.017391 347.608073 353.231283 352.638475 356.756669 362.295175
36.943333 343.941321 349.623022 354.950900 354.401034 358.496843 363.557357
37.076667 345.910873 352.054286 356.707006 356.256093 360.130629 365.370839
37.210000 347.680420 354.268169 358.232714 358.074100 361.989868 366.862262
37.350000 351.085890 356.484244 360.449327 360.251390 364.266715 368.467314
37.490000 353.756701 358.737506 362.470590 362.366369 366.183306 370.443159
37.630000 356.499288 360.767085 364.365162 364.346086 368.151812 372.034866
37.770000 358.418542 362.735699 366.150416 366.313238 370.064762 373.724028
37.910000 360.957759 364.844696 368.184659 368.273373 371.932301 375.242773
38.043333 362.848174 366.531947 369.968579 369.993325 373.459770 376.783844
38.176667 364.525072 368.212077 371.671111 371.673317 375.258017 378.126686
38.310000 366.718209 369.908546 373.362176 373.311211 376.798763 379.698072
38.443333 368.241385 371.509308 375.065949 374.915542 378.348094 381.421837
38.576667 369.806496 373.005286 376.648241 376.550019 379.839557 383.242195
38.710000 371.227425 374.525978 378.190365 378.073296 381.363092 384.996669
38.850000 372.448244 376.032756 379.784249 379.608107 382.919047 386.350544
38.990000 373.845752 377.448438 381.387066 381.055795 384.311725 387.878623
39.130000 375.368212 378.896939 382.729564 382.493090 385.661026 389.152596
39.270000 376.849973 380.245984 384.120551 383.908918 387.019189 390.555575
39.410000 378.171523 381.722116 385.475022 385.284948 388.450803 392.044136
39.543333 379.561319 383.002559 386.786651 386.606532 389.733353 393.919317
39.676667 381.002363 384.267158 388.075508 387.883724 390.959185 395.510797
39.810000 382.153934 385.658388 389.418595 389.189118 392.274237 397.080272
39.943333 383.362891 386.997668 390.746251 390.500777 393.496080 398.134264
40.076667 384.599416 388.300534 392.062203 391.805485 394.732358 399.900147
40.210000 385.897684 389.586773 393.313812 393.123600 396.022719 401.610454
40.354444 387.396771 391.139247 394.814325 394.680215 397.559610 403.104590
40.498889 388.857615 392.945652 396.394151 396.334456 399.233730 404.973815
40.643333 390.516378 394.570863 397.940161 397.964813 401.037190 407.120199
40.787778 392.111751 396.090620 399.605920 399.620149 402.662771 408.794219
40.932222 393.368126 397.744530 401.311856 401.285199 404.335208 410.173009
41.076667 395.348621 399.527879 403.087044 402.982305 405.960621 411.687202
41.221111 397.480065 401.415790 404.696612 404.707374 407.644588 413.773045
41.365556 399.334728 403.351821 406.464464 406.471054 409.477467 414.913289
41.510000 401.303337 405.211048 408.184222 408.274567 411.203868 416.615485
41.610000 402.702416 406.488591 409.490400 409.629710 412.609365 418.038023
41.710000 404.418338 408.004715 410.869925 411.073611 414.115755 419.184552
41.830000 406.099185 409.910990 412.863832 413.139491 416.524735 421.181719
41.950000 408.138891 411.918493 414.868693 415.280836 418.999580 422.858088
42.070000 410.231932 413.712420 417.227295 417.376362 421.184411 424.933833
42.190000 412.278912 415.766929 419.494866 419.600359 423.580305 426.824498
42.310000 414.525499 417.893216 421.866555 421.798179 425.634280 428.493958
42.450000 416.513509 420.057422 424.304954 424.081710 428.050513 431.072415
42.590000 418.291592 422.300456 426.617377 426.333754 430.194761 433.322297
42.730000 420.132010 424.483123 428.788832 428.534642 432.318001 435.598812
42.870000 422.128655 426.719705 431.080922 430.727443 434.427672 438.331752
43.010000 423.845446 429.044912 433.220001 432.810757 436.501587 440.524192
43.143333 425.251371 430.760651 435.114045 434.823575 438.877337 442.716562
43.276667 426.562127 432.487908 437.116245 436.825533 441.001786 445.472738
43.410000 427.998581 433.997357 439.246579 438.835004 443.504529 448.218440
43.543333 429.379228 435.630138 441.515928 440.882391 445.937511 450.544802
43.676667 430.486003 437.482721 443.385586 442.850073 448.138491 452.725843
43.810000 431.794225 439.149607 445.604757 444.923243 450.242857 454.755877
43.950000 433.489287 441.038422 447.731191 447.012184 452.701804 457.001361
44.090000 435.033780 442.607499 449.877437 449.045739 455.093195 459.867765
44.230000 436.621050 444.241627 452.159799 451.086644 457.058127 461.982763
44.370000 438.607053 445.725181 454.484537 453.201019 459.462632 464.401094
44.510000 440.923814 447.782642 456.647125 455.398268 461.710635 466.799576
44.643333 443.337998 449.888188 459.000051 457.910605 464.162556 469.916880
44.776667 445.838017 452.363883 461.633280 460.516647 466.903803 473.678576
44.910000 448.025047 455.122672 464.077208 463.233750 469.364242 476.664379
45.043333 450.185194 458.226787 466.659652 466.044612 472.215358 481.044289
45.176667 453.326014 461.442201 469.539430 469.152225 475.160639 485.421587
45.310000 455.150888 464.886279 472.712080 472.285730 478.226759 490.970311
45.451176 458.241050 468.787376 476.754034 476.884321 483.667791 500.787839
45.592353 461.575724 472.181451 481.394613 481.710734 490.387013 507.556289
45.733529 465.869201 477.154506 486.181518 487.145396 497.269465 514.078457
45.874706 471.155043 481.684401 491.560900 492.335654 503.291332 519.092428
46.015882 475.122753 486.618815 496.917267 497.753081 509.686590 523.710798
46.157059 479.881580 492.134806 502.735490 503.412084 515.012039 529.034744
46.298235 487.240835 497.030160 507.761342 508.593095 520.134729 535.264647
46.439412 491.479582 502.697007 513.513271 513.995637 525.650748 539.741956
46.580588 497.600730 508.095413 519.418353 519.603874 530.364631 544.350104
46.721765 502.177675 513.530624 525.064206 525.106188 536.315001 549.354215
46.862941 507.198846 518.950208 530.907251 530.682685 541.623443 556.736214
47.004118 511.732158 523.919212 536.157217 536.056872 547.167336 563.077029
47.145294 515.087765 529.758771 541.152414 541.429308 553.311401 568.425323
47.286471 519.813493 535.755249 546.404982 546.944282 559.322386 572.995525
47.427647 524.721946 542.186664 551.747476 552.633671 565.137206 578.594692
47.568824 529.069909 548.661093 557.288838 558.275250 570.426201 583.819905
47.710000 533.502271 554.483640 562.916589 564.056216 578.164475 588.969850
47.830000 539.031770 559.111305 568.504767 569.082811 583.313558 592.533017
47.950000 545.473925 562.952823 574.231979 574.078744 588.074544 596.290410
48.070000 551.775216 567.608221 579.652195 579.193148 592.071172 600.098645
48.190000 555.618312 573.333572 585.695461 584.302574 596.171603 603.778610
48.310000 560.284694 578.635018 591.380438 589.288788 600.616569 607.794545
48.410000 563.853995 582.103373 595.286424 593.227119 604.120118 611.441299
48.510000 566.910010 585.431906 599.736406 597.097098 607.848238 615.293109
48.520000 567.202952 585.854454 600.071240 597.505428 608.207736 615.818152
48.658000 572.895569 591.435803 605.208319 602.918020 613.530943 626.078820
48.796000 578.148699 597.164274 609.975630 608.397869 617.928924 635.689263
48.934000 584.263338 603.144534 614.786130 614.039046 622.791745 646.370558
49.072000 590.725338 608.194704 619.684249 619.877897 628.365630 657.417605
49.210000 598.560782 615.414999 625.257805 626.325938 634.479165 666.260082
49.343333 604.441093 626.626469 633.482902 636.494836 651.370094 673.833631
49.476667 613.666118 634.134309 646.155141 647.366160 663.449463 682.044782
49.610000 625.323539 644.028782 659.849886 659.272124 674.646664 689.685738
49.743333 640.771135 657.525520 671.993043 671.059226 683.781978 697.687492
49.876667 654.956236 672.851059 683.698384 682.754881 692.726520 705.143790
50.010000 675.159627 686.041451 693.800542 694.097647 702.158300 715.487345
50.020000 675.723021 686.848491 694.582868 694.829248 702.901114 715.919012
