depth(m) lower_95(kyr) lower_68(kyr) median(kyr) mean(kyr) upper_68(kyr) upper_95(kyr)
56.235000 302.607265 305.745961 308.817380 308.636458 311.528096 313.623702
56.360000 303.716507 306.702426 309.763614 309.539668 312.259447 314.339451
56.485000 304.836312 307.737643 310.730105 310.469213 313.031910 315.114244
56.610000 306.049476 309.008757 311.579989 311.397788 313.780523 315.696431
56.735000 307.110365 310.042243 312.535890 312.377290 314.685127 316.448350
56.860000 308.280698 311.082148 313.499355 313.316414 315.509211 317.089662
56.985000 309.502942 312.179686 314.486498 314.245866 316.341077 317.707323
57.110000 310.437373 313.088749 315.391002 315.159515 317.136140 318.641052
57.235000 311.789727 314.284668 316.229159 316.063459 317.911183 319.366140
57.372500 313.111180 315.381344 317.173941 317.048028 318.763417 320.242807
57.510000 314.301220 316.295346 318.221490 318.012062 319.649742 321.109746
57.647500 315.540454 317.453196 319.095999 318.977743 320.532468 321.895704
57.785000 316.602626 318.448998 320.010622 319.901311 321.341156 322.542683
57.885000 317.425258 319.274167 320.691651 320.574527 321.916110 323.035559
57.985000 318.195488 319.984409 321.370262 321.249299 322.559114 323.720344
58.085000 319.169681 320.749242 322.044187 321.978413 323.238892 324.288409
58.185000 320.035784 321.551958 322.748810 322.702333 323.880124 324.957736
58.285000 320.850293 322.339775 323.475831 323.464786 324.568727 325.700691
58.385000 321.996173 323.155230 324.235230 324.215612 325.284255 326.366234
58.485000 322.789191 323.882041 324.891813 324.896804 325.954684 327.092662
58.585000 323.480181 324.570448 325.514898 325.546442 326.607304 327.546036
58.685000 324.000009 325.208324 326.201519 326.173083 327.241965 328.099751
58.785000 324.730174 325.821400 326.823306 326.798368 327.820764 328.775204
58.885000 325.367989 326.471374 327.472295 327.452503 328.471295 329.396450
58.985000 326.129712 327.100713 328.140274 328.102200 329.096631 329.998250
59.085000 326.814713 327.748318 328.778624 328.784655 329.787762 330.787398
59.185000 327.693861 328.522726 329.580026 329.574390 330.584752 331.648287
59.285000 328.483416 329.353543 330.399280 330.392339 331.368671 332.544486
59.385000 329.326072 330.241224 331.259749 331.297786 332.349972 333.673396
59.485000 330.233928 331.100062 332.124103 332.212913 333.298949 334.565088
59.618333 331.286673 332.284583 333.438454 333.544622 334.853014 336.198419
59.751667 332.462560 333.483178 334.678937 334.784221 336.147110 337.383569
59.885000 333.495935 334.715419 336.031522 336.012150 337.326802 338.457124
59.985000 334.214008 335.466520 336.830960 336.809895 338.076784 339.224856
60.085000 334.917882 336.276562 337.682894 337.595874 338.851087 340.172465
60.185000 335.709127 337.021031 338.350367 338.271423 339.450749 340.776042
60.285000 336.399892 337.694556 339.011886 338.926487 340.072673 341.357997
60.410000 337.210409 338.531697 339.737068 339.692276 340.764132 342.141647
60.535000 337.973513 339.319464 340.480499 340.438114 341.439559 342.896746
60.635000 338.518413 339.919547 341.011770 340.998789 342.000804 343.532392
60.735000 339.165039 340.479282 341.514946 341.539983 342.531906 344.021520
60.835000 339.641634 341.100807 342.019640 342.084159 343.151088 344.462035
60.935000 340.211257 341.640314 342.528611 342.608418 343.674342 345.024516
61.035000 340.628433 342.150508 343.039738 343.139987 344.259206 345.544269
61.135000 341.151953 342.699138 343.539519 343.665392 344.835175 346.018989
61.235000 341.804315 343.215338 344.093376 344.204540 345.398511 346.616742
61.335000 342.445482 343.727797 344.631776 344.756722 345.940993 347.268407
61.460000 343.221807 344.292504 345.263273 345.418195 346.638338 348.019162
61.585000 343.782113 344.915113 345.904408 346.071214 347.336731 348.717242
61.710000 344.497152 345.512286 346.574715 346.715927 347.998371 349.376562
61.835000 345.251431 346.125401 347.220915 347.365750 348.698505 350.060485
61.935000 345.769483 346.627681 347.795853 347.918056 349.240025 350.640792
62.035000 346.182592 347.138643 348.333802 348.456997 349.773545 351.335397
62.135000 346.757095 347.664638 348.894051 348.995119 350.408716 351.878613
62.235000 347.226667 348.230776 349.473758 349.552573 350.958349 352.436200
62.335000 347.689248 348.713239 350.058699 350.113403 351.503319 352.926238
62.435000 348.193534 349.222861 350.655471 350.663844 352.056451 353.455545
62.535000 348.688437 349.783656 351.168092 351.190409 352.554199 354.059700
62.635000 349.127354 350.334836 351.679727 351.711591 353.057126 354.548201
62.735000 349.676507 350.834552 352.240469 352.233500 353.548732 355.162402
62.835000 350.233896 351.392828 352.793946 352.775684 354.051465 355.709368
62.935000 350.856502 351.977811 353.280039 353.314070 354.561793 356.267371
63.035000 351.297876 352.564144 353.776612 353.834847 355.101467 356.852016
63.135000 351.759341 353.094462 354.316821 354.357603 355.551309 357.552135
63.235000 352.271143 353.662934 354.827460 354.882039 356.039692 358.089285
63.335000 352.712704 354.171559 355.335119 355.385931 356.508483 358.578251
63.435000 353.179796 354.687299 355.860988 355.903255 356.987748 359.172302
63.535000 353.675835 355.280886 356.375719 356.411622 357.457156 359.493678
63.635000 354.321521 355.794273 356.892201 356.923159 357.986696 360.069513
63.735000 354.842239 356.302752 357.381673 357.434859 358.528937 360.536820
63.835000 355.459503 356.814742 357.886473 357.961945 359.124375 361.168927
63.935000 356.074050 357.373930 358.363645 358.483973 359.613525 361.472745
64.035000 356.577237 357.899821 358.890833 359.024170 360.202140 362.156131
64.135000 357.129644 358.436523 359.448933 359.562458 360.733051 362.682280
64.235000 357.635335 358.935078 359.980806 360.095448 361.308581 363.204679
64.335000 358.179309 359.497183 360.508293 360.639692 361.881089 363.626044
64.435000 358.832772 360.055159 361.051920 361.215433 362.460209 364.229383
64.535000 359.505233 360.626611 361.661865 361.795890 363.039707 364.816643
64.635000 360.132846 361.219205 362.268039 362.410541 363.682563 365.489774
64.735000 360.590110 361.782467 362.900770 363.039487 364.376539 366.233150
64.835000 360.956124 362.317384 363.598369 363.678017 365.087983 366.855102
64.935000 361.577934 362.891681 364.311123 364.344184 365.789978 367.438557
65.035000 362.155022 363.507516 364.949267 364.992462 366.500956 368.172812
65.135000 362.681442 364.152974 365.606050 365.639206 367.110919 369.026745
65.235000 363.132095 364.840497 366.253782 366.297047 367.743386 369.768621
65.335000 363.935880 365.443179 366.911752 366.961573 368.402513 370.576383
65.435000 364.488447 366.063821 367.584978 367.594148 369.068612 371.194370
65.535000 364.980967 366.679230 368.214565 368.231002 369.732115 371.782718
65.635000 365.530174 367.323751 368.880739 368.878177 370.321495 372.530135
65.735000 366.039872 367.984496 369.528129 369.531131 370.939610 373.157174
65.835000 366.649689 368.629713 370.132509 370.163126 371.654844 373.796973
65.935000 367.148609 369.236997 370.750639 370.794938 372.337667 374.525752
66.035000 367.651545 369.968317 371.358425 371.459990 373.181373 375.267014
66.135000 368.432649 370.552594 372.017179 372.136760 373.957658 376.184411
66.235000 369.050438 371.259261 372.699246 372.828370 374.659582 376.862870
66.335000 369.579459 371.914572 373.338786 373.506570 375.395548 377.530001
66.460000 370.427697 372.678569 374.202987 374.365769 376.288521 378.360523
66.585000 371.289252 373.484349 375.137303 375.248407 377.140133 379.154170
66.685000 371.842546 374.083280 375.851553 375.935439 377.825066 379.878609
66.785000 372.485005 374.705843 376.559342 376.605360 378.546832 380.695987
66.885000 373.118021 375.294994 377.236097 377.250693 379.322732 381.177977
66.985000 373.770219 375.876941 377.985885 377.930764 380.025978 381.823733
67.085000 374.577836 376.526073 378.702124 378.631584 380.687471 382.578618
67.185000 375.121548 377.226591 379.368033 379.338953 381.355249 383.425738
67.285000 375.906307 377.962027 380.132019 380.047695 382.061433 384.098900
67.385000 376.675794 378.618609 380.828658 380.811419 382.836864 385.034322
67.485000 377.366876 379.388053 381.574956 381.571230 383.624440 385.988087
67.585000 378.170212 380.170433 382.412490 382.396851 384.523227 386.644870
67.685000 378.903519 381.026722 383.280047 383.224563 385.431371 387.395899
67.810000 379.805319 382.040059 384.388990 384.317895 386.574881 388.456393
67.935000 380.655185 383.065809 385.514348 385.435395 387.769347 389.417055
68.060000 381.815978 384.046762 386.692339 386.564422 388.930842 390.536238
68.185000 382.892163 385.285388 387.894008 387.719906 390.040031 391.731983
68.285000 383.672599 386.170201 388.808024 388.555822 390.818377 392.468929
68.385000 384.464865 387.054466 389.663923 389.419464 391.668827 393.221728
68.485000 385.297486 387.919234 390.584435 390.291662 392.504584 394.072080
68.585000 386.076633 388.836186 391.485074 391.182841 393.397208 394.849538
68.685000 387.118986 389.875224 392.643744 392.321679 394.439677 396.124744
68.785000 388.334029 391.340820 393.803794 393.512390 395.571961 397.229953
68.918333 390.016687 393.221313 395.386333 395.230037 397.351780 399.140955
69.051667 392.402532 395.067504 397.171386 397.011902 398.920276 400.694296
69.185000 395.178285 397.053109 398.691009 398.709851 400.478815 402.088033
69.285000 396.084784 397.962004 399.625720 399.656259 401.400071 402.997524
69.385000 397.321345 398.968845 400.545979 400.588239 402.256976 403.811127
69.485000 398.129990 399.775182 401.439856 401.442177 403.050191 404.851904
69.585000 399.060015 400.606200 402.337083 402.310275 403.983937 405.703473
69.715000 399.916885 401.695644 403.482137 403.547407 405.277601 407.544112
69.845000 401.132108 402.884233 404.662352 404.792793 406.581589 408.970895
69.975000 402.251487 404.072403 405.976502 406.044134 407.970797 410.357865
70.105000 403.522589 405.203772 407.154392 407.247301 409.253177 411.744494
70.235000 404.604716 406.439169 408.291046 408.406625 410.387631 412.926315
70.335000 405.575135 407.435399 409.387201 409.442308 411.333396 414.041998
70.435000 406.455670 408.478390 410.498026 410.540335 412.556925 415.474302
70.535000 407.551175 409.530165 411.529386 411.614654 413.690264 416.594097
70.635000 408.634891 410.564067 412.539064 412.674587 414.747032 417.424787
70.735000 409.591209 411.733268 413.821961 413.955028 416.227603 419.056254
70.835000 410.923437 412.809207 415.071655 415.193935 417.626666 420.414103
70.935000 411.718567 413.930051 416.152897 416.273350 418.719943 421.478665
71.035000 413.017977 414.904287 417.156111 417.295017 419.761279 422.279228
71.135000 413.574471 415.947005 418.220475 418.298744 420.706220 423.180782
71.235000 414.788374 416.965189 419.308463 419.301714 421.640821 423.892913
71.335000 415.544309 417.790597 420.260716 420.189017 422.599443 424.461473
71.435000 416.397244 418.788578 421.316494 421.159749 423.527676 425.223641
71.535000 417.223790 419.808649 422.297492 422.129773 424.441243 426.086074
71.668333 418.767829 421.636172 424.158747 423.910301 426.080901 427.834749
71.801667 421.076572 423.977641 425.891220 425.762612 427.690151 429.405737
71.935000 424.361988 425.970103 427.371698 427.466716 429.105575 430.457400
72.035000 425.391689 426.894482 428.195297 428.336613 429.922107 431.138199
72.135000 426.558148 427.656524 429.034847 429.094580 430.727029 431.637880
72.235000 427.406824 428.295257 429.870075 429.779014 431.405253 432.093911
72.335000 428.205615 428.955835 430.556481 430.444184 432.005104 432.887154
72.435000 429.050141 429.465605 431.182902 431.058415 432.559903 433.945979
72.535000 429.984492 430.002260 431.633134 431.658613 433.186845 434.837550
72.535500 429.987717 430.005225 431.637739 431.661703 433.189646 434.839899
72.635250 430.238715 430.500870 432.300196 432.215639 433.631693 435.210237
72.735000 430.663990 430.994907 432.780394 432.756734 434.129230 435.637877
72.835000 431.074797 431.499646 433.328439 433.271894 434.599746 436.068904
72.935000 431.536594 432.043713 433.890543 433.808856 435.171820 436.617178
73.035000 431.985716 432.604242 434.416565 434.338400 435.697549 437.201266
73.177857 432.554727 433.316210 435.121919 435.044136 436.419928 438.013359
73.320714 433.158734 434.089910 435.774535 435.737712 437.162655 438.678893
73.463571 433.686436 434.773554 436.477674 436.421712 437.893873 439.544905
73.606429 434.339108 435.513309 437.144565 437.113228 438.669633 440.228735
73.749286 434.963430 436.156164 437.783527 437.798601 439.344341 440.959683
73.892143 435.578654 436.805899 438.446275 438.472149 440.058577 441.671131
74.035000 436.198850 437.531115 439.087051 439.166809 440.803395 442.517347
74.168333 436.684900 438.188948 439.734021 439.822506 441.557191 443.152246
74.301667 437.315790 438.838062 440.378468 440.486565 442.183822 443.837679
74.435000 438.020505 439.515331 441.008077 441.160117 442.949323 444.468536
74.510000 438.474219 439.904035 441.387873 441.575396 443.405097 444.885963
74.585000 438.950952 440.298067 441.802569 442.002729 443.770263 445.336833
74.705000 439.676555 440.960919 442.426431 442.695728 444.541752 446.192124
74.825000 440.471457 441.645639 443.151827 443.378708 445.238870 446.984297
74.945000 441.098636 442.313319 443.840398 444.064919 445.958962 447.729485
75.065000 441.822152 442.979916 444.596237 444.754180 446.635585 448.307309
75.185000 442.404373 443.676017 445.308017 445.448872 447.277156 449.088293
75.285000 443.013177 444.249535 445.906086 446.055811 447.890793 449.800170
75.385000 443.626874 444.864542 446.559745 446.697747 448.490692 450.364533
75.485000 444.189695 445.429881 447.202615 447.339832 449.124818 451.146080
75.585000 444.671782 446.000739 447.932055 447.987049 449.826675 451.886938
75.685000 445.315085 446.596339 448.617920 448.619854 450.413411 452.538149
75.785000 445.875294 447.298349 449.228536 449.312840 451.132868 453.369582
75.885000 446.439724 448.060021 449.973626 450.005558 451.977131 454.132703
75.985000 446.985362 448.679868 450.680706 450.678772 452.602488 454.810318
76.085000 447.546783 449.358278 451.332508 451.352034 453.287057 455.474584
76.218333 448.393747 450.286838 452.210692 452.241163 454.117004 456.350038
76.351667 449.049452 451.137598 453.055803 453.124343 455.114381 457.219075
76.485000 449.876839 452.060115 453.947544 454.000582 455.991149 458.047566
76.618333 450.698729 452.900933 454.802133 454.857134 456.856467 459.239076
76.751667 451.398343 453.735310 455.677852 455.682866 457.682206 460.200200
76.885000 452.281026 454.618856 456.550504 456.530222 458.508872 460.982839
76.985000 452.892682 455.204537 457.168251 457.162378 459.194759 461.531554
77.085000 453.548179 455.797502 457.785009 457.807800 459.848993 462.114558
77.185000 454.311125 456.411670 458.433127 458.455252 460.474688 462.562775
77.285000 454.947572 457.065364 459.025891 459.083056 461.146096 463.258934
77.385000 455.742162 457.644399 459.632469 459.690595 461.861143 463.834519
77.518333 456.656090 458.407447 460.460906 460.509699 462.593633 464.504265
77.651667 457.405085 459.266918 461.352116 461.342639 463.428523 465.283186
77.785000 458.229326 460.090266 462.164238 462.172027 464.318430 466.064545
77.885000 458.874712 460.793095 462.813433 462.820031 464.959629 466.735907
77.985000 459.473121 461.398496 463.504423 463.467971 465.569049 467.222491
78.085000 460.097203 462.055499 464.144329 464.121809 466.215281 467.868329
78.185000 460.709442 462.779502 464.885945 464.792010 466.804536 468.407547
78.285000 461.250294 463.433304 465.519467 465.428533 467.407845 469.083655
78.385000 461.964725 464.067039 466.134982 466.050523 468.009333 469.713818
78.485000 462.612023 464.610815 466.767828 466.677055 468.612684 470.368734
78.585000 463.264585 465.181181 467.413044 467.299472 469.229630 470.869668
78.685000 463.824635 465.856895 468.046676 467.904516 469.833019 471.444379
78.785000 464.313101 466.426745 468.597746 468.507997 470.462376 472.073085
78.885000 464.869532 467.078868 469.260370 469.126145 471.024937 472.619264
78.985000 465.771532 467.732295 469.884817 469.760998 471.637352 473.273294
79.085000 466.356175 468.358427 470.504221 470.397649 472.309732 473.855104
79.185000 466.916278 469.053867 471.168734 471.040457 472.965918 474.498999
79.285000 467.552266 469.776852 471.812455 471.675346 473.587648 475.033435
79.385000 468.192685 470.387816 472.431039 472.315392 474.200384 475.653773
79.485000 468.870448 471.100783 473.153151 472.984279 474.838616 476.294893
79.585000 469.548381 471.825319 473.837006 473.652330 475.432108 477.087901
79.685000 470.387201 472.668899 474.514690 474.343797 476.070615 477.797249
79.760000 470.893689 473.227621 475.031775 474.872725 476.506248 478.206599
79.835000 471.602950 473.829408 475.555776 475.429018 477.049200 478.580467
79.925000 472.409641 474.506935 476.270248 476.153600 477.810865 479.267283
80.015000 473.273504 475.337878 477.044760 476.922194 478.519086 479.926243
80.121667 474.499880 476.407619 478.037932 477.949018 479.508249 480.876362
80.228333 475.711739 477.480945 479.067384 479.026254 480.632827 482.077551
80.335000 477.132847 478.584245 480.063371 480.100276 481.651495 483.170971
80.435000 478.135626 479.467342 480.997366 481.004441 482.535383 483.952659
80.535000 479.087298 480.356428 481.917046 481.896189 483.463433 484.680960
80.635000 479.939330 481.274852 482.778258 482.773439 484.286089 485.427126
80.735000 480.632738 482.107417 483.682825 483.622820 485.070890 486.223322
80.835000 481.444199 482.951397 484.503733 484.426953 485.855333 486.967295
80.935000 482.344293 483.693198 485.354170 485.214237 486.623644 487.713840
81.035000 483.063329 484.449210 486.102591 485.943476 487.337835 488.408886
81.135000 483.757593 485.106545 486.758477 486.629803 488.003833 489.026123
81.235000 484.481570 485.802880 487.434465 487.275152 488.665115 489.622632
81.335000 485.043319 486.426033 488.091332 487.925875 489.288036 490.190140
81.435000 485.646288 487.117675 488.772310 488.565765 489.872564 490.795223
81.535000 486.216917 487.801665 489.358541 489.200823 490.513496 491.472527
81.635000 487.041799 488.473860 490.044729 489.838967 491.106698 492.140006
81.735000 487.631294 489.123028 490.663518 490.477512 491.711773 492.867967
81.835000 488.217887 489.847585 491.279825 491.151707 492.412571 493.696163
81.935000 489.019467 490.493085 491.938227 491.839526 493.085101 494.430108
82.035000 489.631471 491.213645 492.595810 492.524351 493.755009 495.247257
82.135000 490.214134 491.817964 493.281113 493.205577 494.471945 496.141380
82.235000 490.954545 492.447633 493.938356 493.879006 495.092616 496.911143
82.335000 491.709579 493.143039 494.630239 494.570805 495.783872 497.682461
82.435000 492.297380 493.768389 495.253634 495.230078 496.541922 498.367479
82.535000 493.053512 494.482368 495.898303 495.922252 497.282279 499.206929
82.635000 493.571231 495.217342 496.560187 496.616063 498.006051 499.876913
82.735000 494.399248 496.019873 497.261904 497.336004 498.768858 500.605958
82.835000 495.068930 496.735489 497.982019 498.062359 499.497631 501.193181
82.935000 495.789316 497.421050 498.713293 498.807664 500.383066 501.961673
83.035000 496.695440 498.154119 499.438198 499.564678 501.140185 502.696668
83.135000 497.461974 498.858289 500.210351 500.337514 501.917634 503.622268
83.235000 498.325387 499.631189 501.037960 501.177795 502.788932 504.567516
83.335000 499.176087 500.462718 501.866933 502.015401 503.674566 505.492309
83.435000 499.890523 501.232350 502.711053 502.880210 504.555224 506.514107
83.535000 500.616399 501.986121 503.590007 503.736915 505.514395 507.590807
83.635000 501.449851 502.880814 504.595180 504.741073 506.493099 509.011059
83.735000 502.252818 503.699295 505.648762 505.766726 507.630784 510.217771
83.868333 503.177871 504.931457 507.096638 507.155097 509.214284 511.846094
84.001667 504.299525 506.188733 508.465019 508.543054 510.822889 513.400651
84.135000 505.258965 507.537734 509.786901 509.853165 512.166567 514.740753
