depth(m) lower_95(kyr) lower_68(kyr) median(kyr) mean(kyr) upper_68(kyr) upper_95(kyr)
15.200000 298.562495 301.642483 304.180602 304.016688 306.364235 308.746986
15.300000 301.119426 303.578336 305.943796 305.799518 308.013700 310.150271
15.400000 303.385156 305.532590 307.695006 307.700881 309.722409 312.101859
15.500000 305.292052 307.521474 309.443271 309.532772 311.651512 313.947852
15.600000 307.315090 309.336547 311.330641 311.435860 313.477692 316.296317
15.700000 309.541832 311.185510 313.089199 313.316893 315.514505 318.121685
15.800000 311.293005 312.806151 314.932520 315.094765 317.397251 319.776698
15.900000 312.783341 314.474624 316.705796 316.755782 319.294598 321.181446
16.000000 314.237574 316.189914 318.178041 318.337071 320.742742 322.510764
16.100000 316.000647 318.098269 319.953296 319.997788 322.152107 323.827415
16.200000 318.281108 320.215070 322.002691 321.964767 323.798294 325.146604
16.300000 320.996199 322.731593 324.369020 324.316380 325.883913 327.128277
16.400000 322.808566 324.419471 325.916473 325.939233 327.499990 328.886617
16.500000 324.727976 325.969542 327.573949 327.539410 328.997706 330.552960
16.600000 326.310551 327.653712 329.125368 329.096528 330.556269 332.143916
16.700000 328.058773 329.376845 330.738971 330.795860 332.249176 333.576601
16.800000 330.094943 331.288661 332.764959 332.787897 334.171367 335.838669
16.900000 332.760160 333.881833 335.515622 335.650122 337.371734 339.793447
17.000000 334.513362 336.110864 337.775023 337.928554 339.575468 342.051494
17.100000 337.304256 339.345702 341.510899 341.778475 344.240675 347.449072
17.200000 339.554034 341.925389 344.629141 344.808948 347.703115 350.841571
17.300000 341.375899 344.298146 347.374614 347.435940 350.373848 353.410581
17.400000 343.262110 346.909491 349.924302 349.834615 352.758600 355.834089
17.500000 345.716572 349.084196 352.067820 352.065333 355.028702 357.861871
17.600000 348.722330 351.587022 354.279665 354.243983 356.878542 359.540424
17.700000 350.355309 353.658440 356.400930 356.223663 358.838918 361.157743
17.800000 352.372060 355.755826 358.259730 358.153070 360.601365 362.769360
17.900000 354.322391 357.866963 360.293942 360.126525 362.491055 364.639627
18.000000 357.276625 360.089818 362.525112 362.375365 364.740724 367.107007
18.100000 360.335351 362.728928 365.061485 365.057329 367.364841 369.663412
18.200000 363.146528 365.209524 367.252022 367.349315 369.610290 371.747936
18.300000 365.255352 367.201145 369.392070 369.438830 371.669266 374.151235
18.400000 367.051157 368.924859 371.236701 371.239636 373.534115 375.991733
18.500000 368.563139 370.541555 372.804657 372.932627 375.378100 377.953438
18.600000 370.078635 372.112059 374.472712 374.561866 377.033460 379.751304
18.700000 371.596300 373.689417 376.387355 376.336170 378.869109 381.559471
18.800000 373.113516 375.535117 378.317551 378.224807 380.793961 383.573979
18.900000 374.857744 377.467743 380.361852 380.235121 382.862387 385.577342
19.000000 376.867121 379.478768 382.352120 382.252961 384.874145 387.150917
19.100000 378.871455 381.743253 384.531470 384.388796 386.998305 389.258777
19.200000 381.365741 383.998383 386.538272 386.546406 389.187745 391.517184
19.300000 383.475699 386.003137 388.436483 388.493416 391.138287 393.332680
19.400000 385.341371 387.797706 390.126927 390.234908 392.856483 394.927049
19.500000 387.108355 389.459349 391.927855 391.909437 394.445140 396.469942
19.600000 388.746884 391.274139 393.804440 393.725417 396.158028 398.001819
19.700000 390.822413 393.625831 396.096158 395.877545 398.179303 399.598512
19.800000 394.563461 397.064565 399.074682 398.815056 400.444322 401.733057
19.900000 398.246456 400.015173 401.222902 401.238835 402.535578 404.058458
20.000000 400.392081 401.953038 403.126077 403.211780 404.514575 406.202279
20.100000 402.414879 403.586751 404.817820 404.944554 406.419516 408.068454
20.200000 404.076778 405.171586 406.561820 406.654789 408.198749 409.765468
20.300000 405.519569 406.848490 408.410338 408.475816 410.137276 411.830105
20.400000 407.203077 408.973531 410.687018 410.772022 412.538799 414.639971
20.500000 410.485113 412.276280 414.156472 414.430202 416.640892 419.628713
20.600000 413.717401 415.687192 418.389324 418.713864 422.010673 424.970692
20.700000 419.102981 421.572359 424.969834 424.603291 427.338228 429.009391
20.800000 423.284611 425.862337 428.016727 427.762091 429.659578 431.082341
20.900000 426.547937 428.531414 430.111359 430.020101 431.455350 432.745793
21.000000 428.623692 430.332176 431.746285 431.678969 433.002609 434.204327
21.100000 430.332286 431.891055 433.183295 433.145386 434.456514 435.594137
21.200000 432.029642 433.217533 434.561910 434.513980 435.776860 436.989413
21.300000 433.419977 434.587622 435.868056 435.887057 437.127931 438.388402
21.400000 434.820754 435.960750 437.252537 437.267439 438.496907 439.728294
21.500000 436.251887 437.386295 438.660177 438.699585 440.049912 441.375182
21.600000 437.532823 438.790055 440.066764 440.143042 441.486941 443.013397
21.700000 438.938677 440.245466 441.550622 441.636643 443.108962 444.749360
21.800000 440.411411 441.699858 443.106636 443.230067 444.730780 446.803491
21.900000 441.997259 443.325355 444.814339 445.010476 446.590542 449.472618
22.000000 443.806509 445.056443 446.742123 447.089876 449.201574 452.728327
22.100000 445.269992 446.615525 448.610667 449.119703 451.789275 455.704399
22.200000 446.683159 448.179947 450.520218 451.076827 454.148983 458.504634
22.300000 448.162900 449.753003 452.544396 453.078004 456.628985 460.864994
22.400000 449.717458 451.694422 454.697124 455.196045 459.111344 463.384293
22.500000 451.414190 453.657314 456.922231 457.395761 461.344979 465.591502
22.600000 452.794176 455.496730 459.127758 459.510868 463.568366 467.897112
22.700000 454.524975 457.518706 461.340697 461.560962 465.652528 469.637840
22.800000 456.534020 459.605751 463.608464 463.697846 467.745510 471.475182
22.900000 458.635551 461.943586 466.095536 465.978558 469.982744 473.148859
23.000000 460.472097 464.324412 468.348949 468.140310 471.981148 474.506870
23.100000 463.345532 466.920276 470.559687 470.364831 473.806538 476.054055
23.200000 465.608660 469.368903 472.919350 472.579231 475.626311 477.713102
23.300000 468.373854 472.001064 475.334039 474.904942 477.687184 479.357248
23.400000 471.912430 475.109307 477.722913 477.400136 479.580843 480.898491
23.500000 475.646007 477.964861 479.950701 479.743537 481.467226 482.765143
23.600000 477.976280 480.232177 481.833830 481.721226 483.237038 484.509988
23.700000 480.349186 482.083804 483.575541 483.491438 484.889740 486.376994
23.800000 482.266525 483.887090 485.284095 485.263282 486.646530 488.292714
23.900000 484.011839 485.395716 486.896240 486.888563 488.405992 490.195692
24.000000 485.399060 486.768717 488.314835 488.389680 489.966143 492.090383
24.100000 487.189633 488.437305 489.973548 490.035117 491.618022 493.689265
24.200000 488.869676 490.154191 491.606537 491.701551 493.264816 495.124163
24.300000 490.480642 491.915777 493.372300 493.474780 495.038420 496.773253
24.400000 492.407766 493.901159 495.563735 495.590520 497.313850 499.136948
24.500000 494.150595 495.828149 497.423046 497.516540 499.258871 501.292648
24.600000 495.818386 497.603829 499.236798 499.339645 501.143156 503.194500
24.700000 497.592256 499.320302 501.016459 501.123521 503.013036 504.919166
24.800000 499.419813 501.212942 502.948504 503.020384 504.897185 506.747316
24.900000 501.836830 503.520931 505.401060 505.469219 507.447845 510.226502
25.000000 504.707733 506.642582 508.709243 508.813190 511.029064 513.500732
25.100000 507.008464 508.942725 511.274427 511.276423 513.406883 515.925343
25.200000 509.138191 511.116592 513.637810 513.690054 516.110146 518.911654
25.300000 511.270083 513.363153 515.780058 515.933299 518.423558 521.450551
25.400000 513.112703 515.728214 518.105137 518.271098 520.991753 523.862424
25.500000 515.878007 518.099941 520.474094 520.682918 523.433819 526.330219
25.600000 518.251593 520.209758 522.806783 522.942588 525.726285 528.735141
25.700000 519.918700 522.368882 525.075872 525.159115 527.941957 530.817995
25.800000 521.677855 524.546283 527.401947 527.407817 530.190550 532.729082
25.900000 524.136032 527.034902 530.019583 529.778082 532.497873 534.990394
26.000000 526.366784 529.581405 532.498998 532.277766 534.872476 536.962432
26.100000 530.020687 533.141860 535.435364 535.359483 537.698123 539.736033
26.200000 533.228530 535.758126 537.970680 537.921434 540.082640 542.507427
26.300000 535.514504 537.772604 539.968368 539.949288 542.186482 544.168219
26.400000 537.530125 539.579918 541.831176 541.819689 544.101340 546.290979
26.500000 538.846657 541.302147 543.824076 543.616939 545.696163 547.925739
26.600000 540.780091 543.124130 545.673773 545.452737 547.547867 549.509190
26.700000 542.630305 544.954469 547.413211 547.296459 549.416504 551.150417
26.800000 544.606204 546.958377 549.329108 549.101157 551.158511 552.957743
26.900000 546.585676 548.958328 551.067169 550.934398 552.826039 554.761198
27.000000 548.548047 550.889908 552.891970 552.837223 554.762141 556.925854
27.100000 550.896284 552.964226 554.840078 554.934804 556.886662 559.484593
27.200000 553.324029 555.180826 557.400908 557.641506 560.077817 563.328082
27.300000 555.967986 558.096027 561.118050 561.485272 564.964388 568.775942
27.400000 559.284903 562.014466 565.907551 565.840538 569.527965 572.110990
27.500000 563.846208 567.355878 571.010707 570.637095 573.662515 576.105356
27.600000 568.715738 571.846228 574.471755 574.410617 577.104841 579.034362
27.700000 572.978696 575.722135 577.936332 577.847771 579.953778 581.862421
27.800000 577.242652 579.793047 581.499763 581.582524 583.589336 585.807332
27.900000 581.621937 583.063810 585.093116 585.157834 587.252451 589.356001
28.000000 584.050913 585.801065 588.103043 588.113327 590.240929 592.344196
28.100000 586.571541 588.625639 590.916473 590.904434 593.135016 595.704574
28.200000 588.772471 591.427182 593.789806 593.874565 596.294856 598.995453
28.300000 591.404835 593.726486 596.248768 596.406064 599.119246 602.035867
28.400000 593.434565 596.001528 598.726970 598.875836 601.898374 604.506626
28.500000 595.634410 598.376977 601.183955 601.271088 604.503651 606.778488
28.600000 598.095529 600.930602 603.985670 603.898098 606.955595 609.038734
28.700000 601.028010 603.833078 606.786379 606.697696 609.737632 611.696480
28.800000 604.032861 606.611350 609.406481 609.366563 612.197134 614.084009
28.900000 606.998893 609.504788 612.058338 611.955289 614.378763 616.518722
29.000000 610.167230 612.645347 614.879706 614.726899 616.850308 618.423155
29.100000 614.026636 616.371507 618.071604 617.989645 619.612587 621.062956
29.200000 618.022180 619.901608 621.548788 621.742431 623.389339 626.476887
29.300000 621.465533 623.092267 625.480089 627.294428 633.161074 639.563663
29.400000 623.966534 626.698446 632.792200 633.325394 640.142484 644.349124
29.500000 626.778557 632.258875 639.352414 638.616177 644.173277 647.918671
29.600000 630.666911 637.976453 643.293617 642.751598 647.496474 650.877972
29.700000 637.278046 642.152769 646.764821 646.386781 650.403701 653.890914
29.800000 641.396535 645.258840 649.702498 649.320593 653.090558 656.977096
29.900000 644.449698 648.229153 652.401517 652.277412 655.702782 659.460490
30.000000 647.789462 651.790577 655.363168 655.235920 658.670349 661.941867
30.100000 650.331408 654.659291 657.945078 657.904390 661.389340 664.488808
30.200000 653.467672 657.379798 660.799903 660.703318 664.094504 667.009356
30.300000 656.425821 660.064854 663.359025 663.312511 666.753603 669.415401
30.400000 659.031391 662.716515 666.023874 665.800667 669.135037 671.674553
30.500000 661.632069 664.956776 668.396489 668.218362 671.509167 673.883751
30.600000 664.640032 667.597555 670.804406 670.727999 673.931484 676.200330
30.700000 667.046500 670.295095 673.381149 673.265919 676.480075 678.724299
30.800000 669.173573 672.677627 675.832665 675.684661 678.910353 681.119909
30.900000 672.397334 675.516044 678.678907 678.428056 681.290063 683.474440
31.000000 674.883244 678.191223 681.337696 681.028942 683.699686 685.860898
31.100000 678.156965 681.025072 683.899993 683.774451 686.324845 688.657853
31.200000 681.531658 684.160959 686.755159 686.657393 689.064662 691.828960
31.300000 684.818011 687.171030 689.594338 689.612763 691.919862 694.901255
31.400000 687.754190 689.745322 692.111376 692.352495 694.922813 698.665334
31.500000 690.002797 692.164198 694.604421 694.921237 697.665984 701.895890
31.600000 692.237057 694.369154 697.104463 697.457793 700.310690 705.033368
31.700000 694.644334 696.850189 699.598520 700.178102 703.348498 709.518650
