depth(m) lower_95(kyr) lower_68(kyr) median(kyr) mean(kyr) upper_68(kyr) upper_95(kyr)
68.420000 1393.225531 1397.873891 1401.160315 1400.512453 1402.981006 1404.660146
68.520000 1397.394335 1401.339104 1403.800028 1403.379895 1405.319069 1406.896259
68.620000 1403.158333 1405.286054 1406.819396 1406.774586 1408.366085 1410.206120
68.720000 1405.965156 1407.482759 1409.064319 1409.238830 1410.932216 1413.205918
68.820000 1407.927928 1409.690347 1411.477408 1411.540381 1413.349755 1415.900311
68.920000 1410.105708 1412.009192 1413.896695 1413.873100 1415.653539 1418.249198
69.020000 1412.178053 1414.282503 1416.211322 1416.240281 1418.254445 1420.342014
69.120000 1414.807712 1416.681124 1418.460455 1418.544319 1420.550476 1422.000879
69.220000 1416.964029 1418.745320 1420.693261 1420.608458 1422.507071 1423.789686
69.320000 1419.163645 1420.936457 1422.809290 1422.668702 1424.326732 1425.498717
69.420000 1421.656673 1423.365235 1424.944745 1424.817464 1426.229153 1427.467266
69.520000 1423.822959 1425.531998 1426.904319 1426.905796 1428.308751 1429.627889
69.620000 1426.129254 1427.407650 1428.828233 1428.975730 1430.526044 1432.931881
69.720000 1427.827278 1429.057212 1430.497550 1430.800947 1432.425874 1435.958411
69.820000 1429.208200 1430.657930 1432.349971 1432.746921 1434.900567 1438.710001
69.920000 1430.884884 1432.439814 1434.444974 1434.921810 1437.638728 1441.276468
70.020000 1432.706293 1434.276742 1436.745039 1437.140107 1440.108056 1443.667292
70.120000 1434.205027 1436.188497 1439.323998 1439.452287 1442.731994 1445.749127
70.220000 1436.227573 1438.551641 1441.857517 1441.895474 1445.195722 1447.733986
70.320000 1438.560203 1441.310899 1444.754112 1444.536315 1447.587388 1449.359691
70.420000 1441.248086 1444.537848 1447.983881 1447.367905 1449.851023 1451.165979
70.520000 1445.230598 1448.715133 1451.066792 1450.585713 1452.432160 1453.468643
70.620000 1448.232274 1451.772003 1453.502567 1453.262450 1454.895310 1456.221132
70.720000 1453.230322 1454.356725 1455.636210 1455.658930 1456.908394 1458.327346
70.820000 1454.900570 1455.983520 1457.296433 1457.313112 1458.678099 1459.984139
70.920000 1456.413281 1457.515922 1458.784110 1458.822063 1460.231957 1461.424769
71.020000 1457.831095 1459.077656 1460.290534 1460.323008 1461.615067 1462.820911
71.120000 1459.406600 1460.628185 1461.894997 1461.922274 1463.219291 1464.479588
71.220000 1461.143165 1462.360722 1463.541356 1463.577745 1464.847074 1466.097939
71.320000 1462.888308 1464.198272 1465.372845 1465.388201 1466.640408 1467.931657
71.420000 1464.744329 1465.954278 1467.176741 1467.263879 1468.622777 1470.074702
71.520000 1466.295326 1467.520270 1468.954280 1469.161923 1470.689260 1473.332222
71.620000 1467.717561 1469.075468 1470.829715 1471.419265 1473.724163 1478.752652
71.720000 1469.300600 1470.674237 1472.659921 1473.527375 1476.639986 1482.391138
71.820000 1470.839994 1472.405924 1474.773622 1475.841069 1479.992632 1485.231501
71.920000 1472.729313 1474.605296 1477.843250 1478.684672 1483.405703 1487.505323
72.020000 1474.404135 1476.951299 1481.164632 1481.609727 1486.757629 1490.079438
72.120000 1476.520058 1480.269220 1484.625863 1484.642863 1489.339138 1491.586359
72.220000 1480.258612 1483.905041 1488.460125 1487.903527 1491.449740 1493.182296
72.320000 1484.824196 1489.176083 1492.458172 1491.778268 1494.249791 1495.465923
72.420000 1492.924183 1494.138645 1495.328958 1495.333664 1496.529297 1498.003244
72.520000 1494.856605 1495.930646 1497.033034 1497.089318 1498.202330 1499.706822
72.620000 1496.240209 1497.318631 1498.455256 1498.510337 1499.658158 1500.998740
72.720000 1497.504830 1498.700323 1499.893763 1499.933856 1501.152221 1502.355527
72.820000 1498.795751 1500.003665 1501.328478 1501.332087 1502.571332 1503.903035
72.920000 1500.151698 1501.479548 1502.789548 1502.827544 1504.155588 1505.528470
73.020000 1501.759268 1503.103138 1504.528421 1504.519682 1505.894372 1507.405500
73.120000 1503.588002 1505.155369 1506.618655 1506.740220 1508.293445 1510.584497
73.220000 1505.937048 1507.523787 1509.457408 1509.845057 1512.140956 1516.253819
73.320000 1508.066896 1509.854406 1512.371537 1513.039773 1516.578964 1521.381377
73.420000 1510.814564 1513.010668 1516.664097 1517.027761 1521.138644 1524.532154
73.520000 1513.945280 1517.333505 1521.685278 1521.233421 1524.911797 1527.314185
73.620000 1517.835720 1522.741003 1526.112478 1525.544037 1528.303359 1529.822278
73.720000 1523.124853 1527.006446 1529.044206 1528.764159 1530.604096 1531.959787
73.820000 1528.222314 1530.067714 1531.498049 1531.402450 1532.908481 1533.933873
73.920000 1530.654333 1531.942591 1533.244698 1533.240218 1534.562838 1535.786546
74.020000 1532.224502 1533.440937 1534.773195 1534.727435 1535.988783 1537.249163
74.120000 1533.728444 1534.929572 1536.157653 1536.120611 1537.318439 1538.461947
74.220000 1535.049479 1536.278635 1537.531888 1537.492765 1538.647076 1539.790837
74.320000 1536.359328 1537.687791 1538.887610 1538.862501 1540.004898 1541.393678
74.420000 1537.787426 1539.115531 1540.237916 1540.276565 1541.458396 1542.673382
74.520000 1539.410332 1540.672164 1541.757202 1541.794325 1543.031391 1544.245442
74.620000 1540.882042 1542.150400 1543.257683 1543.388711 1544.692614 1546.414262
74.720000 1542.405187 1543.585742 1544.958499 1545.116740 1546.457113 1549.361539
74.820000 1543.870854 1545.044914 1546.558033 1546.879296 1548.647527 1551.880736
74.920000 1545.118409 1546.592864 1548.256725 1548.664309 1550.723517 1554.277984
75.020000 1546.514369 1548.008514 1550.057489 1550.497300 1553.007521 1556.974496
75.120000 1547.863011 1549.625694 1552.077345 1552.478415 1555.312351 1559.377638
75.220000 1549.593693 1551.467321 1554.403384 1554.739617 1558.187405 1561.860326
75.320000 1551.406112 1553.905900 1557.282736 1557.389901 1561.038907 1564.193336
75.420000 1553.323277 1556.452145 1560.234836 1560.187556 1563.923641 1566.285275
75.520000 1555.498079 1559.066516 1563.340161 1562.878377 1566.377535 1568.237371
75.620000 1557.764596 1562.316235 1565.921563 1565.362490 1568.460900 1569.810084
75.720000 1561.191549 1565.618038 1568.250777 1567.838106 1570.093109 1571.436510
75.820000 1565.405657 1568.699716 1570.617001 1570.286249 1571.930160 1573.156693
75.920000 1570.042174 1571.587848 1572.819036 1572.798357 1574.051910 1575.283340
76.020000 1571.947592 1573.336738 1574.578176 1574.563809 1575.745006 1577.063890
76.120000 1573.547033 1574.909875 1576.116642 1576.161270 1577.422426 1578.841159
76.240000 1575.270849 1576.732011 1577.997936 1578.065663 1579.420999 1581.273973
76.340000 1576.900865 1578.225690 1579.623525 1579.697071 1581.169543 1583.114498
76.440000 1578.558297 1579.796952 1581.312386 1581.472848 1583.129070 1585.238898
76.540000 1580.003099 1581.430779 1583.081794 1583.264416 1585.027279 1587.626593
76.640000 1581.474095 1583.167775 1584.875843 1585.102495 1587.160967 1589.567341
76.740000 1583.267238 1584.798371 1586.767798 1586.900070 1588.985472 1591.354942
76.840000 1584.639579 1586.414992 1588.775757 1588.736537 1590.960186 1593.311246
76.940000 1586.320268 1588.301946 1590.796756 1590.710418 1592.957968 1595.211838
77.040000 1588.165876 1590.481818 1592.958161 1592.908421 1595.186834 1597.530212
77.140000 1590.399174 1593.121973 1595.469954 1595.453681 1597.840031 1600.344513
77.240000 1592.790787 1595.483704 1597.828325 1597.892277 1600.223798 1602.917093
77.340000 1595.195005 1597.690655 1600.043384 1600.128169 1602.700402 1605.416981
77.440000 1597.382681 1599.709920 1602.108737 1602.254211 1604.917517 1607.687249
77.540000 1599.213647 1601.630664 1604.456726 1604.563592 1607.530794 1610.753206
77.640000 1600.790269 1603.586815 1606.525815 1606.669355 1609.799661 1613.184676
77.740000 1603.272826 1606.120256 1609.245277 1609.371038 1612.641168 1616.153255
77.840000 1606.175187 1608.655544 1611.914107 1612.132592 1615.572067 1620.302154
77.940000 1608.144255 1610.847153 1614.422168 1614.684372 1618.373618 1623.597533
78.040000 1610.084602 1613.034207 1616.835267 1617.171278 1621.344713 1626.177585
78.140000 1611.927994 1615.343222 1619.092183 1619.556253 1624.279556 1628.372521
78.240000 1613.963840 1617.497102 1621.402009 1621.866961 1626.681590 1630.557103
78.340000 1616.347168 1619.830844 1623.736735 1624.268968 1629.296004 1633.245025
78.440000 1618.523262 1621.945234 1626.329724 1626.592131 1631.434931 1635.333191
78.540000 1621.089226 1624.086649 1628.933934 1629.039626 1634.111931 1637.527969
78.640000 1623.208195 1626.722846 1631.584894 1631.488361 1636.440755 1639.414976
78.740000 1625.438408 1629.647850 1634.300473 1634.163619 1638.790999 1641.390258
78.840000 1628.508699 1632.850603 1637.204706 1636.869940 1640.878909 1643.783209
78.940000 1632.666569 1636.333975 1640.214826 1639.951040 1643.195957 1646.146516
79.040000 1638.037196 1641.786981 1644.250553 1644.256038 1646.972221 1649.364862
79.140000 1641.732101 1644.276296 1646.693922 1646.690547 1649.270651 1651.333174
79.240000 1643.946666 1646.180252 1648.786782 1648.747374 1651.221393 1653.484489
79.340000 1645.522948 1648.031965 1650.681678 1650.582691 1653.140641 1655.314115
79.480000 1647.535027 1650.065861 1652.957327 1652.814562 1655.284196 1657.707757
79.580000 1648.898058 1651.835403 1654.635125 1654.462901 1656.858258 1659.359757
79.680000 1650.568930 1653.478636 1656.241641 1656.065409 1658.558253 1660.824275
79.780000 1652.039962 1655.151920 1657.926511 1657.679593 1660.111340 1662.220838
79.880000 1653.450332 1656.773900 1659.539538 1659.244421 1661.661102 1663.923643
79.980000 1655.585196 1658.371382 1661.058332 1660.805638 1663.187966 1665.163976
80.080000 1657.208602 1660.080750 1662.706942 1662.445380 1664.637041 1666.705003
80.180000 1658.997939 1661.977385 1664.403954 1664.225810 1666.359663 1668.207335
80.280000 1661.595909 1664.264631 1666.364283 1666.315994 1668.300583 1670.364154
80.380000 1664.529384 1666.895867 1668.894904 1669.032838 1671.337344 1673.990815
80.480000 1667.881158 1669.954083 1672.187124 1672.559401 1675.462507 1678.548732
80.580000 1670.349746 1672.594304 1675.387026 1675.567699 1678.588478 1681.961941
80.680000 1672.649806 1674.888390 1678.207139 1678.245322 1681.604174 1684.363595
80.780000 1674.401520 1677.029291 1680.694317 1680.616311 1684.119229 1686.791473
80.880000 1676.174566 1679.055070 1683.039451 1682.847359 1686.267731 1688.772072
80.980000 1678.160491 1681.463861 1685.311851 1685.002452 1688.262298 1690.451847
81.080000 1680.219533 1684.198129 1687.593216 1687.232101 1690.224907 1692.105962
81.180000 1682.425289 1686.484832 1689.733746 1689.307183 1692.165795 1693.909988
81.280000 1684.470467 1688.659710 1691.732414 1691.294009 1693.789248 1695.516504
81.380000 1687.442992 1690.819480 1693.625228 1693.206403 1695.516222 1697.154015
81.480000 1689.879706 1693.014336 1695.512088 1695.200533 1697.281621 1699.229897
81.580000 1693.064753 1695.446854 1697.539703 1697.413521 1699.283727 1701.330425
81.680000 1695.886546 1698.136738 1699.886722 1699.916204 1701.830614 1703.901094
81.780000 1698.039762 1699.961522 1701.825233 1701.928542 1703.953430 1706.140591
81.880000 1699.740091 1701.717489 1703.761059 1703.866337 1706.006249 1708.209882
81.980000 1701.604669 1703.531059 1705.688570 1705.758798 1708.062084 1710.345776
82.080000 1703.420701 1705.552757 1707.738333 1707.843390 1710.099861 1712.498695
82.180000 1705.671725 1707.773180 1710.076339 1710.205682 1712.673205 1715.189662
82.280000 1708.162305 1710.177569 1712.606923 1712.758785 1715.326492 1718.042097
82.380000 1710.120639 1712.535664 1715.111940 1715.238071 1717.694252 1720.993742
82.480000 1712.357199 1714.875102 1717.546218 1717.672368 1720.256616 1724.251682
82.580000 1714.524259 1717.090651 1719.937413 1720.028983 1722.756487 1727.462751
82.680000 1716.187283 1719.200932 1722.126537 1722.309253 1725.083690 1730.355122
82.780000 1717.998676 1721.400730 1724.510095 1724.729841 1727.831962 1734.143773
82.880000 1719.994192 1723.438907 1726.658164 1726.932263 1730.318731 1736.855921
82.980000 1721.757436 1725.341955 1728.567130 1729.120072 1732.809375 1740.043580
83.080000 1723.444010 1727.147294 1730.544459 1731.288777 1735.550533 1743.161808
83.180000 1725.484114 1729.050623 1732.741119 1733.514807 1738.036094 1745.585184
83.280000 1727.241453 1731.094283 1734.930304 1735.812634 1740.688236 1749.571708
83.380000 1729.051218 1733.165428 1737.059299 1738.146645 1743.936655 1752.304194
83.480000 1731.098732 1735.189911 1739.234207 1740.565040 1747.420385 1754.209880
83.580000 1732.778499 1737.154721 1741.803382 1743.094106 1750.995075 1756.494960
83.680000 1735.093061 1739.248929 1745.244311 1745.837126 1753.425624 1758.200406
83.780000 1737.079642 1741.332434 1748.705064 1748.439518 1755.320025 1759.758876
83.880000 1739.159790 1743.737893 1752.258107 1751.080661 1757.173011 1761.403443
83.980000 1741.282779 1746.847195 1754.639996 1753.589130 1759.038517 1762.883671
84.080000 1744.095574 1750.402596 1756.908146 1756.015986 1760.873699 1764.520452
84.180000 1747.755663 1753.731581 1759.091230 1758.434773 1762.543756 1766.235862
84.280000 1752.105931 1757.630838 1761.451005 1761.165691 1764.727073 1768.499955
84.380000 1755.814016 1760.553826 1763.714731 1763.637991 1767.043279 1770.316101
84.480000 1758.610649 1762.974623 1765.798541 1765.921462 1769.234490 1772.378704
84.580000 1761.776349 1765.077510 1767.905362 1768.012488 1771.190372 1774.185790
84.680000 1764.373134 1767.060492 1769.946079 1770.109713 1773.330118 1776.042662
84.780000 1766.568945 1769.133447 1772.233465 1772.264516 1775.305603 1778.020815
84.880000 1768.463345 1771.381986 1774.660591 1774.481834 1777.573711 1779.908648
84.980000 1770.449975 1773.495422 1776.799100 1776.576148 1779.536574 1781.785374
85.080000 1772.504658 1775.460070 1778.778657 1778.571948 1781.421790 1783.656274
85.180000 1774.998060 1778.061462 1780.842803 1780.681930 1783.201209 1785.400326
85.280000 1777.272360 1780.427347 1782.991069 1782.771604 1785.168496 1786.946128
85.380000 1779.805769 1782.600627 1785.021575 1784.844124 1787.090719 1788.951855
85.480000 1782.268562 1784.866956 1787.127602 1787.035065 1789.159413 1791.046334
85.580000 1784.913674 1787.329167 1789.386828 1789.306843 1791.220226 1793.106898
85.680000 1787.086451 1789.533016 1791.401583 1791.352509 1793.256795 1795.071069
85.780000 1789.057811 1791.304110 1793.286335 1793.212508 1795.104099 1797.113041
85.880000 1790.604709 1793.032884 1795.018356 1794.977242 1796.889590 1799.050797
85.980000 1792.333975 1794.722274 1796.704024 1796.684179 1798.727216 1800.598163
86.080000 1794.065262 1796.336147 1798.318984 1798.304934 1800.354640 1802.285118
86.180000 1796.156181 1798.218059 1800.086671 1800.132386 1802.052207 1804.284854
86.280000 1798.227444 1800.187352 1801.959874 1802.089138 1803.963655 1806.833786
86.380000 1800.233471 1802.136736 1804.012190 1804.225585 1806.428576 1809.278643
86.480000 1802.332433 1804.017543 1806.023079 1806.327806 1808.610361 1811.774011
86.580000 1804.221027 1805.964002 1808.152577 1808.499796 1811.094140 1814.502372
86.680000 1805.949839 1807.714443 1810.247459 1810.615369 1813.509322 1817.167387
86.780000 1807.674978 1809.488624 1812.376575 1812.661956 1815.727198 1819.574068
86.880000 1809.234739 1811.270281 1814.394675 1814.647654 1817.853086 1821.763747
86.980000 1810.926758 1813.175943 1816.623625 1816.760397 1820.128408 1824.479338
87.080000 1812.478457 1815.153854 1818.578567 1818.777532 1822.175698 1826.676652
87.180000 1813.877865 1817.141111 1820.696626 1820.821890 1824.270146 1828.793098
87.280000 1815.918735 1819.304976 1822.915164 1823.053764 1826.715258 1831.203693
87.380000 1817.685661 1821.533839 1825.191535 1825.275596 1828.844579 1833.896225
87.480000 1819.583269 1823.828622 1827.340128 1827.552847 1831.215470 1836.046118
87.580000 1822.365437 1826.183171 1829.599200 1829.872817 1833.398770 1839.362838
87.680000 1825.405158 1828.625596 1831.932601 1832.352870 1835.839344 1842.199929
87.780000 1827.766925 1830.887456 1834.398335 1834.812491 1838.254723 1844.718051
87.880000 1829.771021 1833.326438 1836.609939 1837.166286 1840.726447 1847.139562
87.980000 1832.142268 1835.444203 1838.873646 1839.574909 1843.501391 1851.128787
88.080000 1834.333661 1837.393265 1841.300255 1841.996615 1846.217410 1853.688076
88.180000 1836.013269 1839.516385 1843.845204 1844.439264 1849.245392 1856.557911
88.280000 1838.235157 1841.765527 1846.462433 1846.878719 1851.833888 1859.890537
88.380000 1840.313728 1843.929698 1848.891983 1849.428052 1854.243901 1864.784603
88.480000 1842.208862 1846.659969 1851.433552 1851.969907 1856.882528 1866.923160
88.580000 1844.449315 1849.284685 1854.404566 1854.839829 1860.043608 1868.760799
88.680000 1846.651377 1851.829174 1857.236463 1857.792228 1863.762644 1870.844488
88.780000 1848.851304 1854.806599 1861.003110 1860.997113 1867.710896 1872.376169
88.880000 1851.989101 1857.494073 1864.398426 1863.965976 1870.227573 1874.419134
88.980000 1854.642712 1860.476003 1867.700290 1866.855242 1872.834882 1875.844002
89.080000 1856.642836 1863.902921 1870.603020 1869.567470 1874.913737 1877.617926
89.180000 1859.533161 1867.552166 1872.869146 1872.037257 1876.882937 1879.170221
89.280000 1863.085125 1870.177969 1875.144916 1874.418927 1878.612351 1880.898094
89.380000 1867.221245 1872.707488 1877.304858 1876.655226 1880.300002 1882.582691
89.480000 1869.881084 1875.287159 1879.322634 1878.708635 1882.004537 1884.023750
89.580000 1873.268097 1877.747407 1881.220214 1880.709990 1883.724408 1885.687187
89.680000 1875.903796 1879.975001 1883.002750 1882.720473 1885.510631 1887.315864
89.780000 1878.542395 1882.107556 1884.926278 1884.733411 1887.367981 1889.264280
89.880000 1881.118751 1884.296614 1886.819140 1886.665531 1889.156605 1890.940633
89.920000 1882.096800 1885.110030 1887.706713 1887.456118 1889.904014 1891.558517
90.020000 1884.525850 1887.081908 1889.602305 1889.289690 1891.505953 1893.136722
90.120000 1886.455034 1889.109370 1891.359438 1891.100783 1893.115327 1894.632388
90.220000 1888.432805 1891.304961 1893.101502 1892.936291 1894.709788 1896.038468
90.320000 1890.982987 1893.317654 1894.882038 1894.776247 1896.298869 1897.541868
90.420000 1893.282003 1895.185889 1896.633338 1896.529036 1897.871611 1899.305771
90.520000 1895.360271 1896.821803 1898.231446 1898.162174 1899.438099 1900.852857
90.620000 1897.192696 1898.582714 1899.942407 1899.978012 1901.230127 1903.222934
90.720000 1898.992938 1900.290206 1901.697110 1901.722061 1903.114856 1904.878004
90.820000 1900.437740 1901.785002 1903.280683 1903.366457 1904.910990 1906.858881
90.920000 1901.886682 1903.265633 1904.820385 1904.934843 1906.623111 1908.614300
91.020000 1903.395735 1904.867928 1906.499371 1906.606155 1908.427972 1910.418374
91.120000 1904.865364 1906.414885 1908.135258 1908.266909 1910.283211 1912.119881
91.220000 1906.466480 1908.164470 1909.971210 1910.069898 1912.143001 1914.094161
91.320000 1908.255392 1909.861242 1911.817469 1911.860500 1913.922632 1916.042638
91.420000 1910.223170 1911.745742 1913.702621 1913.782273 1915.798720 1917.896712
91.520000 1912.090203 1913.824219 1915.861139 1915.897991 1917.951954 1920.319254
91.620000 1913.666334 1915.740016 1917.828619 1917.911926 1920.091587 1922.400845
91.720000 1915.350509 1917.679976 1919.813523 1919.838128 1921.948891 1924.558298
91.820000 1917.457150 1919.604438 1921.901293 1921.894824 1924.127513 1926.504580
91.920000 1919.671872 1921.637851 1923.943869 1923.990423 1926.382293 1928.392722
92.020000 1921.494509 1923.491091 1925.821226 1925.856592 1928.255913 1930.325003
92.120000 1923.523374 1925.475736 1927.817815 1927.805453 1930.104971 1932.322503
92.220000 1925.331030 1927.409501 1929.675012 1929.711285 1931.991653 1934.070335
92.320000 1927.100259 1929.208777 1931.582225 1931.490953 1933.649548 1935.380049
92.420000 1928.902018 1931.074609 1933.441868 1933.305605 1935.404051 1937.037958
92.520000 1930.981606 1933.148846 1935.319184 1935.154057 1937.111846 1938.502949
