depth(m) lower_95(kyr) lower_68(kyr) median(kyr) mean(kyr) upper_68(kyr) upper_95(kyr)
46.830000 1388.960404 1399.642703 1402.692381 1401.989755 1404.898968 1406.682388
46.870000 1391.536448 1402.715391 1404.972498 1404.241042 1406.579840 1408.074573
46.900000 1393.070249 1404.316050 1406.197369 1405.561966 1407.746686 1409.213247
47.000000 1407.030794 1408.737416 1410.268506 1410.309710 1411.850461 1413.819553
47.100000 1410.192143 1411.865144 1413.575927 1413.569833 1415.073826 1416.850949
47.200000 1412.477199 1414.828408 1416.692609 1416.718960 1418.551265 1420.445318
47.300000 1415.243290 1417.594087 1419.701032 1419.681859 1421.680659 1423.920315
47.400000 1418.106690 1420.553330 1422.573377 1422.594154 1424.512018 1426.702354
47.500000 1421.574391 1423.389212 1425.299191 1425.354521 1427.167847 1429.679551
47.600000 1425.315776 1426.999236 1428.829921 1429.620520 1431.756525 1439.541443
47.700000 1428.751318 1430.890959 1434.237398 1435.557043 1441.246895 1446.847756
47.800000 1431.566918 1434.281815 1439.310025 1439.992454 1446.161156 1450.377939
47.933333 1435.881449 1439.943946 1446.184774 1445.824513 1451.313915 1454.680971
48.066667 1441.866438 1447.614425 1452.206323 1451.752736 1455.835656 1458.235981
48.200000 1452.774670 1454.664271 1457.169654 1457.266160 1460.001110 1461.858735
48.300000 1456.035461 1458.196386 1460.615721 1460.590428 1462.884554 1464.804267
48.400000 1459.343974 1461.732562 1464.106469 1464.248343 1466.612620 1469.388025
48.500000 1463.140965 1465.602042 1467.803183 1468.264911 1470.529201 1476.617422
48.600000 1466.441173 1468.908473 1472.212827 1472.978728 1477.265723 1483.707311
48.700000 1468.949503 1471.264292 1475.396485 1476.428723 1482.096506 1487.574925
48.800000 1471.211317 1473.811189 1479.280168 1480.020230 1486.955825 1490.828523
48.900000 1473.553482 1477.156651 1483.636000 1483.771533 1490.495164 1492.814406
49.033333 1477.538532 1482.422908 1489.854590 1489.070678 1494.757822 1498.367619
49.166667 1482.249827 1488.896366 1495.147429 1494.484039 1499.493107 1504.259946
49.300000 1486.446420 1495.964327 1500.319021 1499.992594 1504.759298 1509.108792
49.400000 1489.081181 1499.044329 1503.651183 1503.987222 1510.807506 1515.004889
49.500000 1493.098992 1501.822485 1506.433032 1506.992574 1513.675220 1517.959868
49.600000 1499.425657 1504.965780 1508.899556 1509.900836 1516.027326 1519.993389
49.700000 1505.364871 1508.265896 1511.557366 1512.841914 1518.810029 1522.289352
49.800000 1508.761192 1511.569933 1515.259472 1516.188631 1521.538223 1524.654570
49.900000 1511.655488 1514.994959 1519.571746 1519.666839 1524.007464 1526.802860
50.000000 1514.901022 1519.157440 1523.919119 1523.427817 1526.901099 1529.440605
50.100000 1518.274512 1524.417574 1527.659260 1527.349616 1530.102247 1532.679553
50.200000 1523.515084 1529.178485 1532.365763 1532.366049 1535.531504 1539.242392
50.300000 1531.417614 1534.692026 1537.868682 1537.832463 1540.559961 1543.532211
50.400000 1536.376075 1541.058726 1543.567777 1543.549136 1546.073962 1549.282571
50.500000 1541.631995 1544.993575 1547.366520 1547.531504 1550.268756 1553.253286
50.600000 1544.298264 1547.222914 1550.009116 1550.143597 1552.858421 1556.156825
50.700000 1546.752255 1549.498228 1552.240519 1552.454905 1555.240400 1558.507079
50.800000 1548.878717 1551.449145 1554.390083 1554.568515 1557.196952 1560.521916
50.900000 1551.088262 1553.533951 1556.406013 1556.663082 1559.179765 1562.704072
50.997000 1552.954413 1555.559441 1558.504731 1558.723443 1561.090212 1565.422320
51.094000 1555.014748 1557.598652 1560.352662 1560.699293 1562.850834 1569.637919
51.200000 1557.302898 1559.817217 1562.559276 1562.861397 1564.785900 1576.571884
51.300000 1559.455975 1562.018961 1564.485202 1564.863778 1566.582833 1582.214598
51.400000 1561.322410 1564.080659 1566.442093 1566.858940 1568.497802 1585.325806
51.500000 1563.177344 1566.147948 1568.440267 1569.089552 1570.871672 1586.851517
51.600000 1565.344265 1568.273096 1570.509789 1571.412331 1573.207905 1589.781771
51.733333 1568.017590 1571.213923 1573.809259 1574.840484 1577.371813 1592.445332
51.866667 1570.722525 1574.220069 1577.144570 1578.229582 1581.612509 1595.311933
52.000000 1573.830462 1577.548220 1580.551742 1581.740541 1586.169810 1597.457318
52.133333 1577.070513 1580.399849 1583.927017 1585.339073 1590.265684 1600.836116
52.266667 1580.032746 1583.500590 1587.540045 1589.098534 1594.791067 1604.509797
52.400000 1583.215368 1586.847192 1591.391852 1592.866055 1599.707186 1607.290341
52.500000 1586.358685 1589.790707 1594.751203 1596.134445 1603.922706 1609.640627
52.600000 1588.528189 1592.678216 1598.676962 1599.784673 1607.498632 1611.749641
52.700000 1591.451090 1595.872720 1603.895655 1603.509927 1610.722689 1613.949614
52.800000 1594.735853 1599.966063 1607.856421 1607.098608 1613.193276 1616.057505
52.900000 1600.159276 1605.624722 1611.246696 1610.791877 1615.576260 1618.172667
53.000000 1606.405236 1610.701719 1615.093391 1614.595652 1617.935006 1619.999337
53.100000 1609.664638 1615.401749 1618.428301 1618.009799 1620.326201 1621.969873
53.120000 1610.379165 1616.171142 1619.095803 1618.642173 1620.853397 1622.435504
53.170000 1611.765442 1618.220810 1620.606785 1620.220200 1622.283177 1624.015750
53.200000 1612.660937 1619.279825 1621.583364 1621.162999 1623.173153 1625.104114
53.220000 1613.115100 1620.067410 1622.181892 1621.800982 1623.743370 1625.597344
53.270000 1614.588715 1621.673424 1623.678484 1623.336570 1625.191142 1626.730303
53.300000 1615.801626 1622.684933 1624.639451 1624.355788 1626.124582 1627.721191
53.320000 1616.540667 1623.367259 1625.234512 1625.027389 1626.840423 1628.346898
53.370000 1618.999094 1625.009590 1626.843919 1626.679086 1628.419974 1630.221525
53.400000 1620.348813 1625.954990 1627.792024 1627.708947 1629.403458 1631.581348
53.420000 1621.418562 1626.600542 1628.410572 1628.362099 1630.109999 1632.040557
53.470000 1624.420762 1628.249166 1629.856452 1629.981648 1631.584838 1633.802632
53.500000 1626.138754 1629.100785 1630.717825 1630.916441 1632.585003 1634.781127
53.520000 1627.125943 1629.727328 1631.306380 1631.522119 1633.212721 1635.250139
53.570000 1629.187170 1631.056867 1632.638518 1632.903442 1634.605177 1636.409508
53.620000 1630.511998 1632.297950 1633.993918 1634.217537 1635.847792 1637.720077
53.670000 1631.798610 1633.583438 1635.329093 1635.543451 1637.149330 1639.115065
53.720000 1633.314215 1634.897355 1636.751492 1636.966171 1638.765886 1640.473994
53.770000 1634.542112 1636.293408 1638.342366 1638.528693 1640.345874 1642.488936
53.820000 1635.714379 1637.756075 1639.882107 1640.114588 1642.063156 1644.479797
53.870000 1637.181734 1639.191100 1641.405551 1641.616030 1643.701925 1646.198153
53.920000 1638.920355 1640.837312 1643.203295 1643.551069 1645.836196 1648.623598
54.020000 1641.171104 1643.672724 1646.300999 1646.807895 1649.738082 1653.796613
54.120000 1643.352984 1646.000162 1649.224547 1649.762575 1653.693051 1656.991798
54.170000 1644.577682 1647.384458 1650.809032 1651.290238 1655.098101 1658.181806
54.270000 1647.446268 1650.645612 1654.423943 1654.497555 1658.133735 1660.728999
54.320000 1649.048952 1652.345295 1656.100664 1656.110705 1659.571156 1661.957511
54.420000 1652.617549 1655.755142 1659.248207 1659.106115 1662.020512 1664.284958
54.470000 1654.821228 1657.641762 1661.027309 1660.810418 1663.423775 1665.525037
54.520000 1656.636087 1659.493447 1662.686216 1662.508853 1664.955606 1666.964259
54.570000 1658.670405 1661.753690 1664.541299 1664.377161 1666.636391 1668.729964
54.620000 1660.514887 1663.630387 1666.181494 1666.039862 1668.149022 1670.085105
54.670000 1662.408087 1665.532312 1667.760529 1667.746241 1669.738819 1671.620428
54.720000 1663.741066 1667.042013 1669.164571 1669.236622 1671.365608 1673.545895
54.845000 1667.171092 1669.967591 1672.344144 1672.561984 1674.859442 1678.331851
54.970000 1670.477975 1672.818875 1675.428540 1675.756698 1677.946732 1681.624133
55.045000 1672.138501 1674.620559 1677.205111 1677.655143 1680.053908 1683.699420
55.120000 1673.912492 1676.562059 1679.135214 1679.607215 1682.035164 1685.706229
55.220000 1676.212390 1678.964502 1681.829636 1682.281405 1684.889998 1688.707749
55.320000 1678.597659 1681.515782 1684.417881 1685.020124 1687.802805 1692.055400
55.420000 1681.312413 1684.414710 1687.599661 1688.274499 1691.621906 1695.368283
55.470000 1682.937864 1686.082172 1689.619214 1690.214436 1693.638747 1698.397351
55.603333 1686.798016 1690.898427 1696.447987 1697.369902 1703.201385 1713.884274
55.736667 1691.781052 1697.709646 1704.905868 1705.160406 1710.815673 1723.755356
55.870000 1697.634518 1707.972519 1712.621648 1712.996855 1716.835838 1733.239743
55.970000 1707.895061 1713.923878 1717.749477 1718.308612 1720.977813 1737.209062
56.070000 1713.275588 1718.079130 1721.389510 1722.196276 1724.456056 1742.251601
56.170000 1715.963327 1721.556489 1724.818052 1725.937133 1728.759082 1752.380529
56.220000 1717.372175 1723.229591 1726.523436 1727.748839 1730.852168 1755.034171
56.345000 1721.504011 1726.861553 1730.895587 1732.043249 1735.369015 1764.935492
56.470000 1726.066223 1730.875715 1734.881830 1736.333374 1739.291444 1776.528958
56.520000 1727.669984 1732.676013 1736.880494 1738.195529 1740.916511 1778.434907
56.630000 1732.875770 1737.167858 1740.785273 1742.140328 1744.431887 1781.863619
56.730000 1737.130687 1741.651618 1744.887577 1746.473802 1748.393310 1790.203250
56.830000 1740.413653 1745.177293 1748.460360 1750.149292 1752.274312 1794.108789
56.930000 1743.999716 1748.242202 1752.000503 1753.673315 1755.987256 1796.885941
57.030000 1747.273354 1751.186024 1755.173743 1757.024976 1759.807382 1799.799301
57.130000 1750.731000 1754.626947 1758.522149 1760.368829 1763.187760 1803.202229
57.230000 1753.696662 1758.060843 1762.198997 1763.979189 1766.425079 1807.150645
57.330000 1757.228077 1761.517258 1765.764227 1767.538629 1769.993897 1809.663286
57.430000 1760.170084 1764.614879 1769.307621 1771.131659 1774.313462 1812.110380
57.530000 1763.920812 1767.899260 1773.059614 1774.879856 1778.895365 1814.558202
57.658571 1767.913261 1772.812817 1779.072141 1781.172411 1787.271850 1817.481359
57.787143 1771.791500 1777.756883 1786.087179 1788.028780 1797.950060 1820.599133
57.915714 1775.776118 1783.426686 1793.526629 1794.884956 1805.664350 1823.947001
58.044286 1780.123851 1790.306283 1801.187480 1801.528225 1812.317126 1826.266638
58.172857 1786.414076 1796.836374 1808.223733 1808.167526 1819.406813 1829.818577
58.301429 1793.935043 1804.555850 1815.059007 1814.779577 1825.809575 1832.910239
58.430000 1801.168242 1811.940792 1821.516490 1820.942663 1830.224314 1836.563788
58.530000 1804.389499 1815.928688 1826.636148 1825.194738 1834.379533 1839.407826
58.630000 1808.099672 1820.245826 1830.758041 1829.148338 1837.800820 1842.296508
58.730000 1810.745828 1824.727174 1834.913928 1832.919238 1840.973218 1844.882891
58.830000 1814.749099 1828.492798 1838.360664 1836.282514 1843.665413 1847.358632
58.930000 1818.069064 1832.171081 1841.787857 1839.641609 1846.504740 1850.132141
59.030000 1821.563732 1836.506150 1845.025171 1842.969721 1849.306065 1852.320641
59.130000 1824.405004 1840.159422 1848.214251 1846.062484 1851.756488 1854.780215
59.230000 1828.362024 1844.255689 1850.887190 1849.034422 1854.177785 1856.724165
59.330000 1832.262029 1848.523574 1853.720852 1852.045309 1856.551643 1858.781298
59.430000 1835.558962 1852.420623 1856.594917 1855.084599 1859.094308 1861.372238
59.530000 1838.585299 1855.671951 1858.987882 1857.734719 1861.365051 1863.752050
59.630000 1841.370931 1858.054812 1861.108325 1860.001403 1863.471324 1865.730409
59.730000 1844.444300 1860.326161 1863.153212 1862.118627 1865.406910 1867.641544
59.830000 1847.814103 1862.407556 1865.055308 1864.221534 1867.492742 1869.863773
59.930000 1851.279098 1864.395171 1866.996372 1866.266912 1869.466038 1871.710353
60.030000 1854.704937 1866.343050 1868.867028 1868.298510 1871.397351 1873.782810
60.130000 1859.352488 1868.125612 1870.770334 1870.297958 1873.375029 1875.654457
60.230000 1862.470646 1869.957737 1872.649037 1872.264173 1875.218788 1877.537660
60.330000 1865.775002 1871.866736 1874.611419 1874.290400 1877.106628 1879.407498
60.430000 1868.998599 1873.942093 1876.663962 1876.423182 1879.125499 1881.438477
60.530000 1872.469427 1876.045310 1878.779102 1878.552457 1881.254112 1883.374784
60.640000 1874.717699 1878.290330 1881.084688 1880.870456 1883.637794 1885.491767
60.740000 1877.149180 1880.389647 1883.196447 1883.019521 1885.712436 1887.520312
60.840000 1879.512880 1882.587458 1885.589588 1885.351593 1888.095915 1889.925399
60.940000 1881.737147 1884.850306 1888.042949 1887.717289 1890.584786 1892.286548
61.040000 1883.954607 1887.478122 1890.470312 1890.067145 1892.739457 1894.111731
61.140000 1886.578795 1890.143844 1892.981064 1892.521253 1894.693256 1896.026788
61.240000 1889.905726 1893.141330 1895.336493 1894.946374 1896.782223 1897.909340
61.340000 1893.297389 1895.777724 1897.455473 1897.253177 1898.722352 1900.072779
61.440000 1896.924418 1898.542013 1899.753171 1899.756833 1901.024648 1902.315612
61.540000 1899.152285 1900.602300 1901.946283 1901.889546 1903.146781 1904.533485
61.640000 1901.057663 1902.486871 1903.869543 1903.854767 1905.196681 1906.916822
61.740000 1902.791854 1904.289474 1905.773827 1905.754535 1907.168945 1908.863142
61.840000 1904.544812 1906.120635 1907.601712 1907.654208 1909.187541 1911.060587
61.930000 1906.276869 1907.892639 1909.397610 1909.460789 1910.993461 1912.928762
62.030000 1908.121509 1909.862567 1911.597495 1911.617855 1913.196082 1915.842686
62.140000 1910.808710 1912.256328 1914.145780 1914.315305 1916.356557 1919.401640
62.240000 1913.004933 1914.620177 1916.794503 1916.989130 1919.294142 1922.528046
62.340000 1915.673120 1917.394642 1919.957721 1920.327035 1923.242277 1927.043270
62.440000 1918.221858 1920.787668 1923.735249 1924.226370 1927.728920 1932.836720
62.540000 1921.654615 1924.411491 1928.288335 1928.644194 1932.981388 1937.373906
62.640000 1925.065481 1928.627055 1933.159532 1933.286017 1938.121807 1941.633431
62.740000 1928.649541 1933.549434 1938.610222 1938.368755 1943.049278 1947.124071
62.840000 1934.260738 1939.386664 1943.853926 1943.442610 1947.481328 1951.205258
62.940000 1942.620667 1945.220900 1948.140532 1948.275857 1951.242948 1954.538226
63.040000 1946.731520 1949.543226 1952.490104 1952.457277 1955.477480 1958.062816
63.090000 1948.640378 1951.620618 1954.533317 1954.563800 1957.550014 1960.505199
63.140000 1950.768450 1953.693518 1956.499974 1956.514764 1959.416252 1962.304446
63.190000 1953.114435 1955.770232 1958.527998 1958.542995 1961.377762 1963.954811
63.240000 1954.732548 1957.575151 1960.318500 1960.335063 1963.308541 1965.695134
63.290000 1956.567016 1959.180046 1962.039488 1962.025910 1964.894974 1967.284832
63.340000 1958.224388 1960.891856 1963.809987 1963.693749 1966.400043 1968.690411
63.390000 1960.229926 1962.769716 1965.651860 1965.493433 1968.158032 1970.097327
63.440000 1962.129124 1964.744143 1967.505039 1967.402517 1969.989898 1972.182132
63.490000 1964.010583 1966.880677 1969.433394 1969.329758 1971.829535 1974.139420
63.540000 1966.703361 1969.228431 1971.620929 1971.603946 1973.949749 1976.735737
63.590000 1968.692670 1971.457594 1973.795612 1973.820706 1976.202296 1979.271123
63.640000 1971.026703 1973.574669 1976.007130 1976.154700 1978.804566 1982.353822
63.690000 1973.246057 1975.601748 1978.157340 1978.401723 1981.190533 1984.651198
63.740000 1975.011160 1977.631939 1980.367005 1980.550314 1983.730678 1987.079029
63.790000 1976.359474 1979.455421 1982.648621 1982.747423 1986.265269 1989.066845
63.890000 1979.861968 1982.990677 1987.095805 1986.943453 1990.541074 1993.753875
63.990000 1983.836491 1987.289741 1991.267167 1990.977650 1994.309688 1997.498231
64.090000 1988.902174 1992.221634 1995.050542 1994.886786 1997.540259 2000.418833
64.190000 1993.609239 1996.008953 1998.325289 1998.372609 2000.844725 2003.221631
64.240000 1995.461228 1997.708902 2000.029616 2000.069935 2002.393018 2004.681282
64.290000 1997.218453 1999.406857 2001.692232 2001.661388 2003.979539 2006.250405
64.340000 1998.400564 2000.937890 2003.244443 2003.261460 2005.618752 2008.049325
64.390000 2000.242380 2002.435263 2004.718080 2004.831140 2007.367273 2009.440404
64.440000 2001.840383 2004.053744 2006.359759 2006.481318 2009.094585 2011.242497
64.490000 2003.652903 2005.615641 2008.034526 2008.090553 2010.668613 2012.754589
64.540000 2004.938371 2007.039892 2009.624097 2009.656740 2012.173009 2014.488227
64.590000 2006.338662 2008.516698 2011.180702 2011.167531 2013.785882 2015.888976
64.640000 2007.773339 2010.033253 2012.739771 2012.698573 2015.284887 2017.427162
64.690000 2009.244847 2011.422126 2014.249999 2014.216188 2016.799382 2019.050531
64.740000 2010.965648 2013.163732 2016.103293 2015.895366 2018.304934 2020.433102
64.790000 2012.703652 2015.206440 2018.117372 2017.886623 2020.143919 2022.739764
64.840000 2014.448173 2017.322033 2019.691672 2019.705844 2022.125246 2025.026837
64.890000 2016.494326 2019.196523 2021.499661 2021.587029 2023.945112 2027.047747
64.940000 2018.702903 2021.321131 2023.524012 2023.639291 2026.071507 2028.978286
64.990000 2020.946182 2023.110067 2025.432854 2025.531515 2027.988613 2030.531510
65.040000 2022.567978 2024.911824 2027.428041 2027.440021 2029.961396 2032.284416
65.090000 2024.208342 2026.993747 2029.467321 2029.367516 2031.916231 2033.822822
65.140000 2025.911945 2028.782783 2031.450306 2031.179190 2033.551807 2035.504142
65.190000 2027.958404 2030.718946 2033.226347 2033.090864 2035.455760 2037.460285
65.240000 2029.782223 2032.417731 2034.732884 2034.669998 2037.011881 2039.572903
65.290000 2031.556017 2033.799221 2036.027239 2036.104526 2038.406865 2041.050980
65.340000 2033.638528 2035.487747 2037.523200 2037.682284 2039.977608 2042.653840
65.390000 2035.213611 2037.096691 2039.087106 2039.306425 2041.711663 2044.315075
65.440000 2036.801277 2038.573006 2040.731439 2040.904619 2043.280097 2045.801599
65.490000 2038.077218 2039.984633 2042.375963 2042.433754 2044.924151 2047.231320
65.540000 2039.483007 2041.374031 2043.921347 2043.960254 2046.422724 2048.561026
65.590000 2040.832899 2042.850913 2045.603525 2045.505233 2047.952981 2050.078136
65.640000 2042.111814 2044.382368 2047.242232 2047.041853 2049.547021 2051.449999
65.690000 2043.396238 2045.890054 2048.717790 2048.528409 2051.002865 2052.824657
65.765000 2045.282990 2047.865093 2050.722408 2050.482615 2052.910665 2054.677295
65.840000 2047.195375 2049.802917 2052.439287 2052.301121 2054.645075 2056.546413
65.940000 2049.367322 2052.150803 2054.686944 2054.498942 2056.734304 2058.570369
66.040000 2051.531247 2054.424226 2056.799936 2056.639332 2058.844788 2060.671977
66.140000 2054.245773 2056.825343 2058.990342 2058.891654 2060.971742 2062.738208
66.240000 2056.769699 2059.390616 2061.367986 2061.395587 2063.325138 2065.226133
66.340000 2060.539782 2062.481940 2064.315369 2064.595922 2066.518543 2070.807298
66.390000 2062.677744 2064.418162 2066.334399 2066.727661 2068.958525 2073.394021
66.440000 2064.312086 2066.328794 2068.565099 2068.884934 2071.665895 2074.986690
66.540000 2067.158560 2069.717887 2072.909827 2073.044739 2076.328310 2080.214438
66.615000 2069.810790 2072.715760 2076.074090 2076.303104 2079.799318 2084.477579
66.690000 2072.419404 2075.695329 2079.090917 2079.304583 2083.052032 2087.083778
66.765000 2074.509831 2078.265011 2081.732160 2081.887427 2085.524560 2089.864206
66.840000 2077.046909 2080.861181 2084.228247 2084.431605 2088.189988 2092.592941
66.890000 2078.611199 2082.589612 2086.123237 2086.237211 2089.983562 2094.489724
66.940000 2080.389149 2084.131182 2087.748286 2087.903068 2091.617643 2096.128323
67.040000 2084.495353 2087.832444 2091.578942 2091.610990 2095.427155 2099.078744
67.140000 2088.567211 2092.134229 2095.726190 2095.708755 2099.603991 2102.422680
