depth(m) lower_95(kyr) lower_68(kyr) median(kyr) mean(kyr) upper_68(kyr) upper_95(kyr)
39.015000 1391.993765 1396.145740 1399.339746 1398.877561 1401.532583 1403.239076
39.055000 1395.384427 1398.617684 1401.288404 1400.857684 1403.072024 1404.612071
39.095000 1398.685120 1401.265726 1403.426526 1403.150214 1404.983135 1406.533962
39.135000 1402.690313 1404.902217 1406.660545 1406.665600 1408.489665 1410.450743
39.175000 1405.531066 1407.334411 1409.337672 1409.375074 1411.326363 1413.856451
39.215000 1406.947502 1409.032712 1411.250929 1411.367878 1413.522525 1416.834894
39.255000 1409.508371 1411.362404 1413.467747 1413.545421 1415.528211 1418.710118
39.295000 1411.587328 1413.604136 1415.712944 1415.872803 1418.283026 1420.806003
39.345000 1415.142696 1417.246282 1419.587368 1419.592623 1422.032698 1424.024306
39.385000 1418.463314 1420.466423 1423.045479 1422.809076 1425.012372 1426.708854
39.425000 1422.139343 1424.445107 1426.383586 1426.211911 1427.987255 1429.406509
39.465000 1424.825385 1426.603430 1428.329647 1428.236895 1429.850052 1431.378284
39.505000 1426.712388 1428.075007 1429.735734 1429.745221 1431.359763 1433.186317
39.545000 1428.438717 1429.793801 1431.290428 1431.394250 1433.032238 1434.943924
39.585000 1429.965542 1431.251168 1432.832559 1432.979332 1434.721291 1436.769491
39.625000 1431.226742 1432.589692 1434.247226 1434.392459 1436.280138 1438.440315
39.665000 1432.335672 1433.768346 1435.607440 1435.728504 1437.738170 1439.794358
39.705000 1433.582172 1435.014441 1436.893007 1436.986895 1439.012850 1440.926635
39.745000 1434.646215 1436.271560 1438.151852 1438.246242 1440.322864 1442.139216
39.785000 1435.926696 1437.535703 1439.444839 1439.518780 1441.615515 1443.066535
39.825000 1437.092762 1438.712905 1440.820288 1440.792444 1442.880110 1444.214087
39.865000 1438.150686 1439.960026 1442.098673 1442.093427 1444.203974 1445.542169
39.905000 1439.563886 1441.335556 1443.480555 1443.372839 1445.391160 1446.658347
39.945000 1440.735815 1442.699574 1444.791565 1444.641997 1446.545799 1447.752169
39.985000 1442.183227 1444.072995 1446.113406 1445.941867 1447.704545 1448.928465
40.025000 1443.816765 1445.572918 1447.487864 1447.286837 1448.855462 1449.977365
40.065000 1445.619148 1447.201925 1448.921512 1448.725878 1450.063542 1451.066643
40.105000 1447.633907 1449.265056 1450.588257 1450.432899 1451.602113 1452.478839
40.145000 1449.733340 1451.126894 1452.148564 1452.184875 1453.275849 1454.706819
40.185000 1452.051709 1453.100924 1454.216478 1454.481567 1455.937981 1458.364395
40.225000 1453.447757 1454.552492 1456.065454 1456.336517 1458.229771 1460.835544
40.265000 1455.004015 1456.347416 1458.125884 1458.324367 1460.338662 1462.352489
40.305000 1456.805784 1458.394330 1460.502791 1460.487366 1462.571775 1464.025438
40.345000 1458.502895 1461.316620 1463.461355 1463.204445 1465.109059 1466.485192
40.395000 1462.180581 1464.159124 1465.637553 1465.595230 1467.083047 1468.608518
40.435000 1464.338668 1465.996096 1467.303844 1467.296232 1468.632123 1470.075034
40.475000 1466.187587 1467.525595 1468.809697 1468.811071 1470.166296 1471.531070
40.515000 1467.696915 1468.854452 1470.169110 1470.215221 1471.596067 1472.986631
40.555000 1468.879213 1470.087081 1471.497197 1471.537761 1473.038617 1474.519226
40.595000 1470.073966 1471.336385 1472.751819 1472.808532 1474.326178 1475.810538
40.635000 1471.309411 1472.564677 1474.202911 1474.177396 1475.704831 1477.056512
40.675000 1472.493423 1473.863664 1475.589027 1475.491679 1477.128181 1478.457721
40.715000 1473.403943 1475.019513 1476.751627 1476.687987 1478.297570 1479.628706
40.755000 1474.464175 1476.037903 1477.965896 1477.821836 1479.468056 1480.735883
40.795000 1475.414607 1477.138440 1479.107425 1478.930730 1480.618861 1481.797983
40.835000 1476.555541 1478.339635 1480.265844 1480.055644 1481.715453 1482.864832
40.875000 1477.817337 1479.583343 1481.322184 1481.203101 1482.801397 1483.825647
40.915000 1478.973019 1480.766506 1482.495210 1482.327097 1483.826197 1484.791489
40.955000 1480.165489 1482.025171 1483.651852 1483.453776 1484.812894 1485.887357
40.995000 1481.463454 1483.220398 1484.763641 1484.579658 1485.883079 1486.831013
41.035000 1482.887041 1484.475331 1485.938894 1485.709535 1486.877647 1487.737036
41.075000 1483.997568 1485.675370 1486.999444 1486.816547 1488.001958 1488.781716
41.115000 1485.238495 1486.888869 1488.108761 1487.960069 1489.040290 1489.699785
41.155000 1486.823249 1488.136468 1489.254934 1489.106168 1490.057118 1490.685257
41.195000 1488.390436 1489.492507 1490.434100 1490.348630 1491.183230 1491.844777
41.235000 1489.941095 1490.876889 1491.654513 1491.611521 1492.318390 1493.042184
41.275000 1491.361648 1492.078468 1492.864226 1492.873289 1493.595815 1494.570819
41.315000 1492.677844 1493.468678 1494.285116 1494.537109 1495.571333 1498.026405
41.355000 1494.364478 1495.155519 1496.370358 1496.747586 1498.324013 1501.015454
41.395000 1495.653844 1496.890650 1498.909123 1498.992640 1500.979574 1503.426461
41.435000 1497.154569 1498.861932 1501.134213 1501.156533 1503.298753 1505.318371
41.475000 1498.965803 1501.327052 1503.657402 1503.578456 1505.858527 1507.418520
41.515000 1501.954717 1504.460373 1506.646340 1506.488760 1508.504249 1510.437894
41.555000 1504.992381 1507.215656 1509.107091 1509.095618 1510.890647 1513.176320
41.595000 1508.187975 1509.892348 1511.668521 1511.839798 1513.702340 1516.733813
41.635000 1510.233665 1511.903133 1513.913848 1514.118283 1516.303068 1519.582081
41.675000 1511.906806 1513.835170 1515.992074 1516.204820 1518.667017 1521.571627
41.715000 1513.704724 1515.699867 1518.215862 1518.278882 1520.831887 1523.217932
41.755000 1515.224720 1517.663160 1520.351119 1520.312814 1522.899499 1525.066244
41.795000 1517.220330 1519.535085 1522.519290 1522.285749 1524.826752 1526.496999
41.835000 1519.538468 1522.267691 1524.738504 1524.484545 1526.601699 1528.155092
41.875000 1522.356165 1525.257836 1527.218867 1526.978851 1528.719784 1530.088004
41.915000 1525.649629 1527.708884 1529.243537 1529.118662 1530.575611 1531.893530
41.955000 1527.920666 1529.374668 1530.790957 1530.731508 1532.090874 1533.428493
41.995000 1529.408100 1530.940460 1532.214208 1532.204287 1533.483912 1534.674537
42.035000 1530.734441 1532.233092 1533.545006 1533.511234 1534.849421 1536.033179
42.075000 1531.996096 1533.313473 1534.717199 1534.667102 1535.854060 1537.161856
42.115000 1533.201477 1534.540152 1535.897545 1535.824864 1537.040173 1538.407822
42.155000 1534.352438 1535.599728 1537.050062 1536.974233 1538.195303 1539.590984
42.195000 1535.615038 1536.835310 1538.222765 1538.135003 1539.340362 1540.677972
42.235000 1536.771819 1538.061981 1539.436422 1539.355538 1540.545610 1541.800431
42.275000 1538.227599 1539.392247 1540.683883 1540.650299 1541.830827 1543.088914
42.315000 1539.683774 1540.876864 1542.113938 1542.114369 1543.256957 1544.756730
42.355000 1541.437425 1542.472838 1543.668842 1543.781182 1545.085934 1546.963922
42.395000 1542.815967 1543.896295 1545.198480 1545.471733 1547.057645 1549.681158
42.435000 1544.230989 1545.235230 1546.746761 1547.090987 1549.014093 1551.747775
42.475000 1545.221450 1546.592027 1548.270316 1548.581002 1550.816907 1553.644160
42.515000 1546.311902 1547.812611 1549.781836 1550.056796 1552.393205 1555.318098
42.555000 1547.250809 1548.970709 1551.311051 1551.542420 1554.112665 1557.152766
42.595000 1548.601728 1550.435870 1552.899821 1553.097998 1555.783131 1558.446572
42.635000 1550.054679 1551.915035 1554.718316 1554.744557 1557.607591 1560.345687
42.675000 1551.591889 1553.627724 1556.462471 1556.576508 1559.546006 1562.088331
42.715000 1552.905160 1555.487415 1558.459304 1558.429789 1561.410228 1563.593035
42.755000 1554.498382 1557.306330 1560.441064 1560.356760 1563.381138 1565.177193
42.795000 1556.421467 1559.357178 1562.465452 1562.241354 1565.115219 1566.630471
42.835000 1558.059052 1561.417846 1564.444105 1563.995222 1566.402934 1567.800692
42.875000 1559.768359 1563.313995 1566.282981 1565.723248 1567.897869 1569.119083
42.915000 1562.328381 1565.646901 1567.832974 1567.383757 1569.137468 1570.248563
42.955000 1565.168473 1567.958510 1569.364674 1569.130356 1570.458177 1571.423162
42.995000 1568.052902 1569.541520 1570.678182 1570.574682 1571.647435 1572.699403
43.035000 1569.977452 1570.950236 1571.924669 1571.901038 1572.854627 1573.906645
43.075000 1571.219230 1572.130315 1573.064794 1573.064368 1573.982868 1575.043763
43.115000 1572.416817 1573.263903 1574.166927 1574.195967 1575.067359 1576.231069
43.155000 1573.478764 1574.460926 1575.245489 1575.319035 1576.226206 1577.328227
43.195000 1574.648609 1575.505726 1576.391546 1576.479932 1577.423598 1578.733291
43.235000 1575.792835 1576.658751 1577.553669 1577.655264 1578.653436 1579.968574
43.275000 1576.939974 1577.886012 1578.832032 1578.967065 1580.029177 1581.875618
43.315000 1578.110284 1579.227692 1580.305445 1580.551694 1581.947323 1583.942199
43.355000 1579.500499 1580.711341 1582.156253 1582.500274 1584.464422 1586.784575
43.395000 1580.982678 1582.125800 1583.989856 1584.310018 1586.606563 1589.060160
43.435000 1582.390522 1583.612759 1586.035798 1586.212869 1588.707213 1591.557756
43.475000 1583.663270 1585.434525 1588.208412 1588.170804 1590.875861 1593.232631
43.515000 1584.927475 1587.387655 1590.209086 1590.158921 1592.854860 1595.098622
43.555000 1586.680705 1589.631922 1592.525278 1592.385945 1594.967068 1597.075713
43.595000 1588.923124 1592.077146 1594.899136 1594.734110 1597.318083 1599.777310
43.635000 1591.216067 1594.266333 1596.918739 1596.895234 1599.499551 1602.331628
43.675000 1593.676570 1596.478899 1599.103008 1599.052964 1601.805005 1604.495538
43.715000 1595.737094 1598.457832 1600.861699 1600.994499 1603.676480 1606.621049
43.755000 1597.720239 1600.338802 1602.819529 1602.955606 1605.520875 1608.497209
43.795000 1599.484746 1602.454311 1604.848712 1604.982321 1607.588780 1610.632539
43.835000 1601.827992 1604.673955 1607.176026 1607.248238 1609.893256 1612.809779
43.875000 1604.102457 1606.930344 1609.563334 1609.717130 1612.609066 1615.509154
43.915000 1606.195099 1608.571103 1611.751240 1611.857975 1615.011034 1618.229030
43.955000 1607.756260 1610.307140 1613.878872 1613.929512 1617.262871 1621.558952
43.995000 1609.392229 1612.072915 1615.842937 1615.888411 1619.173466 1624.044741
44.035000 1610.682225 1613.892790 1617.900684 1617.812275 1621.267626 1626.215613
44.075000 1612.052622 1615.712031 1619.806623 1619.684106 1623.130294 1627.469896
44.115000 1614.083629 1617.818859 1621.654758 1621.568382 1625.112339 1629.282907
44.155000 1615.949265 1619.993908 1623.450676 1623.463629 1627.004541 1630.905538
44.195000 1617.866517 1622.181068 1625.447939 1625.418169 1628.736601 1632.419779
44.235000 1620.308124 1624.304621 1627.570501 1627.439980 1630.458752 1633.935120
44.275000 1622.603207 1626.610591 1629.799759 1629.649778 1632.551418 1635.548497
44.315000 1625.509976 1628.932753 1631.796084 1631.684911 1634.378988 1637.123357
44.355000 1628.443518 1631.402840 1633.931073 1633.890241 1636.468594 1638.795536
44.395000 1630.959759 1633.504871 1636.055111 1636.021562 1638.496439 1640.728334
44.435000 1633.262744 1636.041669 1638.459166 1638.356075 1640.685989 1643.013668
44.475000 1636.211159 1639.018808 1641.491986 1641.417037 1643.803747 1646.594023
44.515000 1640.202067 1642.640763 1644.982744 1645.144338 1647.588547 1650.880570
44.555000 1642.882471 1645.064673 1647.913890 1648.115524 1650.972093 1655.058807
44.595000 1644.596692 1647.015069 1650.247440 1650.576545 1654.013045 1658.302428
44.635000 1646.041660 1648.532270 1652.487600 1652.915394 1657.169850 1661.890422
44.675000 1647.679006 1650.346369 1654.629557 1655.007694 1659.644914 1664.602496
