depth(m) lower_95(kyr) lower_68(kyr) median(kyr) mean(kyr) upper_68(kyr) upper_95(kyr)
0.060000 0.039230 0.221866 0.657484 0.729414 1.224840 1.835268
0.160000 0.341932 0.629318 1.082063 1.139852 1.653390 2.241535
0.260000 0.680690 1.012662 1.490651 1.545874 2.071279 2.747236
0.360000 0.999893 1.398877 1.882781 1.938211 2.476433 3.152983
0.460000 1.316629 1.749514 2.276519 2.314556 2.862099 3.622576
0.560000 1.633875 2.103178 2.650621 2.687813 3.255267 3.980835
0.660000 1.994190 2.463634 3.018679 3.061105 3.651675 4.358620
0.760000 2.366659 2.824304 3.403444 3.453545 4.083678 4.749776
0.860000 2.716220 3.216605 3.795384 3.837797 4.479915 5.144746
0.960000 3.074634 3.585617 4.206856 4.231663 4.884198 5.582442
1.060000 3.451269 3.991343 4.609598 4.627924 5.275024 5.970182
1.160000 3.779136 4.363761 5.036178 5.028700 5.662599 6.445636
1.260000 4.219592 4.815441 5.455008 5.466492 6.086631 6.863991
1.360000 4.653621 5.255046 5.896599 5.917405 6.555772 7.377661
1.460000 5.103929 5.720859 6.345426 6.376522 7.025135 7.840419
1.530000 5.416118 6.065033 6.716190 6.733686 7.413274 8.238520
1.630000 5.855211 6.551030 7.218002 7.231317 7.898650 8.649862
1.730000 6.402634 7.080681 7.710995 7.748585 8.417666 9.121579
1.830000 6.931755 7.577394 8.253963 8.278542 8.972756 9.596774
1.930000 7.582548 8.196661 8.886792 8.883701 9.541362 10.273194
2.030000 8.223314 8.870583 9.576580 9.558066 10.185122 10.871075
2.130000 8.884281 9.571910 10.244765 10.232291 10.898562 11.549330
2.230000 9.568110 10.272084 10.953141 10.956152 11.640321 12.266112
2.330000 10.420652 11.029226 11.754707 11.758667 12.500878 13.148103
2.430000 11.117801 11.819941 12.602597 12.593654 13.341551 13.917923
2.530000 11.862371 12.519577 13.300661 13.245889 13.918051 14.475904
2.630000 12.475675 13.134889 13.819887 13.792942 14.425116 14.963140
2.730000 13.067346 13.727657 14.368818 14.330265 14.939079 15.387984
2.830000 13.717259 14.293816 14.872328 14.866413 15.425549 15.959488
2.930000 14.359017 14.922969 15.453716 15.487048 16.042379 16.764325
3.020000 15.030015 15.555895 16.092254 16.147899 16.751090 17.481703
3.120000 15.614319 16.197500 16.785609 16.867598 17.518770 18.709215
3.220000 16.242700 16.738503 17.409773 17.571943 18.393488 19.867474
3.320000 16.707199 17.242264 17.985795 18.196134 19.193372 20.910558
3.420000 17.141598 17.713632 18.522709 18.784303 19.942526 21.572362
3.520000 17.528183 18.188503 19.072796 19.324616 20.585511 22.182098
3.620000 17.994506 18.656347 19.642409 19.847054 21.119126 22.782211
3.720000 18.407944 19.105962 20.161852 20.367407 21.712677 23.190712
3.820000 18.798857 19.580303 20.747489 20.887942 22.226587 23.920116
3.920000 19.261776 20.087699 21.257504 21.400961 22.728359 24.374679
4.020000 19.691496 20.593829 21.787737 21.911663 23.228686 24.919367
4.120000 20.149450 21.095688 22.335051 22.442493 23.726530 25.420372
4.220000 20.566439 21.601270 22.909588 22.983824 24.293346 25.979126
4.320000 21.098935 22.171610 23.433651 23.521785 24.873325 26.479851
4.420000 21.642823 22.656364 23.979767 24.068452 25.409156 26.976943
4.510000 22.045765 23.157997 24.543466 24.561317 25.879954 27.466767
4.610000 22.485073 23.658103 25.069860 25.114893 26.469303 28.029763
4.710000 22.972965 24.242866 25.580550 25.677661 27.049554 28.777045
4.810000 23.564335 24.760359 26.131999 26.244728 27.668177 29.437557
4.910000 24.059045 25.391781 26.727294 26.863867 28.342326 30.190535
5.010000 24.589582 25.921931 27.328699 27.501542 29.111169 31.360734
5.110000 25.163556 26.517790 27.896242 28.168197 29.820294 32.401895
5.210000 25.853563 27.116972 28.486806 28.826829 30.638316 33.288371
5.310000 26.376084 27.644921 29.108198 29.501098 31.449164 34.795120
5.410000 26.943086 28.118147 29.708869 30.173485 32.369291 35.806161
5.510000 27.439267 28.634079 30.317441 30.820430 33.137252 37.008823
5.610000 27.862629 29.170202 30.953941 31.499452 34.046681 38.143300
5.710000 28.368309 29.719227 31.657352 32.217366 34.998945 38.995871
5.810000 29.041905 30.278581 32.388743 32.971842 35.918821 39.654637
5.910000 29.659098 30.909057 33.100955 33.779477 37.012649 40.691320
6.010000 30.222488 31.535062 33.895619 34.603804 38.129681 41.799848
6.110000 30.766202 32.163801 34.822397 35.457178 39.073790 42.709427
6.210000 31.288780 32.849139 35.724444 36.290651 39.985179 43.523877
6.310000 31.865620 33.565478 36.814309 37.181939 40.879705 44.166530
6.410000 32.416143 34.417439 37.854794 38.036761 41.734467 44.835807
6.510000 32.999133 35.204183 38.819587 38.880587 42.486174 45.573634
6.610000 33.527430 36.010734 39.772850 39.740952 43.180128 46.382165
6.710000 34.191433 36.847379 40.612004 40.586188 43.903738 46.928657
6.810000 35.038904 37.917355 41.549535 41.452180 44.777798 47.755941
6.910000 35.727978 38.808467 42.263687 42.271773 45.508632 48.608083
7.010000 36.676987 39.725388 43.182888 43.131851 46.445894 49.144365
7.110000 37.444876 40.682169 44.075235 43.966843 47.242038 49.960875
7.210000 38.315727 41.635025 44.916362 44.822451 48.130750 51.035612
7.310000 39.269549 42.459085 45.740393 45.706183 49.049550 52.076632
7.410000 40.445669 43.514232 46.466008 46.588877 49.953838 53.082352
7.510000 41.226950 44.240882 47.251294 47.474483 50.956836 54.271905
7.610000 41.929683 44.958532 48.126612 48.403944 51.949923 55.413867
7.710000 43.306152 45.934404 49.010919 49.330645 52.770266 56.661387
7.810000 44.173304 46.839929 49.910085 50.339484 54.048632 58.170253
7.910000 45.101744 47.824626 51.065115 51.427130 55.096076 59.241973
8.010000 46.727852 48.935218 52.374823 52.665881 56.577715 60.146837
8.110000 47.721300 50.357772 53.650165 53.961745 57.901437 61.320964
8.210000 48.837376 51.551664 55.201323 55.301441 59.323535 62.139206
8.310000 50.065744 52.780442 56.694099 56.681449 60.680565 62.873094
8.410000 51.517041 54.067772 58.546722 58.222200 62.097943 63.861572
8.510000 52.711662 56.139391 60.588018 59.866511 63.294095 64.926402
8.610000 54.311557 58.081363 62.402852 61.605008 64.544056 66.151236
8.710000 55.911520 60.155944 64.110862 63.300495 65.855192 67.375418
8.810000 57.794633 62.428077 65.427730 64.814016 67.067260 68.467951
8.910000 59.274751 64.091835 66.484086 66.033604 68.066693 69.704371
9.010000 61.500778 65.361441 67.499536 67.163075 69.051008 70.542271
9.110000 62.908087 66.555159 68.385782 68.211937 70.074962 71.553334
9.210000 65.142350 67.588516 69.270280 69.225486 70.992187 72.681652
9.310000 66.278961 68.758280 70.162799 70.261984 72.006603 74.077865
9.410000 67.661663 69.722822 71.119758 71.330402 73.036242 75.702139
9.510000 68.951600 70.644288 72.138133 72.416104 74.278959 77.104378
9.610000 70.100744 71.628117 73.263548 73.627386 75.600117 79.064587
9.710000 71.126210 72.568145 74.358828 74.864990 77.354554 81.047786
9.810000 72.190976 73.618710 75.805865 76.315170 79.161035 83.532243
9.910000 73.142620 74.857170 77.390833 77.827136 80.870448 85.388683
10.010000 74.190025 76.082084 79.057656 79.386070 82.800949 86.749723
10.110000 75.313196 77.322304 80.753178 80.993270 84.662248 88.198994
10.210000 76.265297 78.665620 82.323374 82.519344 86.384334 89.729942
10.310000 77.118282 80.092368 84.014107 84.077204 87.961990 91.371995
10.410000 78.338177 81.703012 85.656028 85.717144 89.675230 92.892061
10.510000 79.298879 83.165888 87.579005 87.363113 91.262139 94.299075
10.610000 80.720284 84.662830 89.405433 88.939708 92.949823 95.913828
10.710000 81.981541 86.172575 90.996452 90.442786 94.299178 97.179355
10.810000 83.115187 87.443151 92.636128 91.887000 95.603491 98.250331
10.910000 84.494822 88.747847 94.122835 93.306152 97.049451 99.402257
11.010000 85.658407 90.093219 95.496677 94.680524 98.387035 100.645481
11.110000 87.396195 91.356115 96.873321 96.040073 99.809860 102.098484
11.210000 88.962279 93.135243 98.220160 97.454480 100.993707 103.475650
11.310000 90.311610 94.848480 99.563419 98.845433 102.369221 104.944948
11.410000 91.631001 96.348289 100.873656 100.203647 103.585750 106.143368
11.510000 93.187683 97.861366 102.100966 101.516714 104.749701 107.155917
11.610000 94.709357 99.394582 103.274628 102.803931 106.042406 108.552293
11.710000 96.202407 100.895670 104.522218 104.078729 107.257391 109.709369
11.810000 97.469764 102.329293 105.579850 105.329824 108.430805 110.710076
11.910000 99.183042 103.659218 106.909723 106.578853 109.563941 111.772613
12.000000 100.894936 104.730784 108.015706 107.662817 110.594797 112.720822
12.100000 101.842265 105.899168 109.182917 108.782561 111.643398 113.591601
12.200000 103.202494 106.930887 110.200214 109.911799 112.728884 114.504925
12.300000 104.523917 108.316551 111.335377 111.027878 113.755144 115.340049
12.400000 105.985186 109.548872 112.491214 112.131154 114.770898 116.234200
12.500000 107.284799 110.742220 113.529474 113.174198 115.645288 117.044372
12.600000 108.694876 111.879600 114.532323 114.219596 116.563447 117.837702
12.700000 109.948828 113.214818 115.598984 115.312832 117.426839 118.729892
12.800000 111.318184 114.571118 116.719793 116.443244 118.421875 119.613549
12.900000 113.007233 115.920896 117.888620 117.644734 119.373574 120.573140
13.000000 114.566853 117.297118 119.154857 118.869581 120.325025 121.517434
13.100000 117.049099 118.897586 120.341767 120.133265 121.362152 122.443837
13.200000 118.400603 120.222032 121.356771 121.258403 122.323542 123.291979
13.300000 119.847315 121.284592 122.278012 122.250098 123.235156 124.252598
13.400000 120.983238 122.182624 123.203429 123.162438 124.164692 125.089371
13.500000 122.168041 123.121702 124.114895 124.087770 125.075913 125.978130
13.600000 123.214062 124.128747 125.040290 125.051986 126.014362 126.918694
13.700000 124.339459 125.222336 126.134898 126.155078 127.081058 127.991378
13.800000 125.641095 126.539518 127.485816 127.516859 128.496583 129.652249
13.900000 127.259664 128.198255 129.283130 129.354983 130.514507 131.939263
14.000000 128.917257 130.040802 131.402463 131.492459 132.891236 134.501433
14.100000 130.798590 132.187669 133.710295 133.840216 135.398462 137.603050
14.200000 132.575892 133.882607 135.518920 135.804537 137.558127 140.647170
14.300000 133.967283 135.553840 137.488378 137.765598 139.924687 143.553269
14.400000 135.121663 136.849187 139.239055 139.509333 141.934485 146.001828
14.500000 136.221204 138.044093 140.812646 141.111284 144.238295 148.093596
14.600000 137.196174 139.337648 142.385271 142.655643 145.845136 150.368599
