depth(m) lower_95(kyr) lower_68(kyr) median(kyr) mean(kyr) upper_68(kyr) upper_95(kyr)
0.015000 0.012418 0.076891 0.326889 0.465379 0.880535 1.635179
0.025000 0.069146 0.153626 0.402353 0.543384 0.971166 1.772804
0.035000 0.122043 0.219636 0.490079 0.619029 1.039283 1.852262
0.045000 0.179253 0.283527 0.568139 0.690572 1.110247 1.920761
0.055000 0.230197 0.343587 0.637919 0.761124 1.176036 1.975505
0.065000 0.285880 0.407686 0.721750 0.831048 1.244527 2.100583
0.075000 0.341233 0.471282 0.793369 0.901776 1.316452 2.153137
0.085000 0.395832 0.528185 0.871386 0.971134 1.397698 2.236528
0.095000 0.436199 0.586961 0.952248 1.042963 1.460884 2.303493
0.105000 0.499110 0.652262 1.030386 1.117170 1.540980 2.498821
0.115000 0.538585 0.709330 1.111768 1.187745 1.610733 2.625062
0.125000 0.592209 0.759700 1.198283 1.258064 1.712567 2.741871
0.135000 0.651207 0.817513 1.278475 1.330795 1.776700 2.901187
0.145000 0.707604 0.879475 1.348730 1.399981 1.837794 2.976221
0.155000 0.759002 0.941381 1.410178 1.468851 1.903113 3.076480
0.165000 0.816495 1.000933 1.484038 1.537056 1.980005 3.147357
0.175000 0.869638 1.061649 1.553136 1.608745 2.063073 3.241545
0.185000 0.908464 1.116328 1.623583 1.676091 2.142887 3.295155
0.195000 0.961490 1.187805 1.679683 1.744805 2.205209 3.345889
0.205000 1.006402 1.248478 1.750292 1.815483 2.292319 3.411996
0.215000 1.060537 1.306099 1.824211 1.885159 2.360648 3.494362
0.225000 1.109589 1.367612 1.894370 1.952005 2.424535 3.555376
0.235000 1.156693 1.430360 1.968909 2.020422 2.499963 3.615120
0.245000 1.200629 1.491695 2.036953 2.088187 2.584370 3.670670
0.255000 1.259068 1.558141 2.115690 2.159686 2.652092 3.730343
0.265000 1.308858 1.612001 2.191418 2.229865 2.739023 3.800025
0.275000 1.368147 1.671330 2.273595 2.302190 2.813884 3.857588
0.285000 1.421109 1.723674 2.335548 2.376918 2.893671 3.921974
0.295000 1.484265 1.810175 2.410791 2.447355 2.973387 3.979677
0.305000 1.537015 1.872453 2.470999 2.513772 3.051817 4.067865
0.315000 1.584737 1.932833 2.539606 2.580847 3.127251 4.123928
0.325000 1.645185 1.998196 2.608828 2.647738 3.185600 4.183399
0.435000 2.146757 2.450789 3.226456 3.215693 3.826326 4.746461
0.445000 2.189188 2.515290 3.296527 3.283050 3.921808 4.813093
0.455000 2.241063 2.580241 3.355750 3.350381 4.006886 4.865179
0.465000 2.305476 2.645311 3.422323 3.419930 4.076474 4.942016
0.475000 2.378966 2.710039 3.490711 3.486586 4.146568 5.004166
0.485000 2.442368 2.772701 3.546663 3.553150 4.224255 5.061598
0.495000 2.490459 2.835238 3.607444 3.618329 4.313417 5.115302
0.505000 2.551587 2.897114 3.685282 3.684978 4.393833 5.171007
0.515000 2.605869 2.962388 3.745350 3.751603 4.462290 5.280002
0.525000 2.680521 3.019996 3.813107 3.819755 4.544867 5.343768
0.535000 2.736293 3.076181 3.872736 3.885410 4.621838 5.407365
0.545000 2.800940 3.128276 3.936694 3.950248 4.700268 5.492371
0.555000 2.854257 3.186840 4.011203 4.018080 4.775813 5.554034
0.565000 2.912952 3.257761 4.073961 4.084801 4.853979 5.626483
0.575000 2.964298 3.318730 4.139322 4.153098 4.924642 5.687345
0.585000 3.031798 3.388677 4.209920 4.218306 4.987869 5.740314
0.595000 3.098732 3.463228 4.284488 4.284338 5.048303 5.802554
0.605000 3.163650 3.533335 4.359766 4.352337 5.152424 5.871909
0.615000 3.217030 3.610288 4.421458 4.422307 5.232544 5.931233
0.625000 3.272302 3.671061 4.489903 4.491008 5.282056 5.980915
0.635000 3.316082 3.745896 4.560437 4.560307 5.365205 6.043062
0.645000 3.374061 3.818155 4.624220 4.629941 5.444194 6.090804
0.655000 3.419162 3.920657 4.680645 4.700326 5.550311 6.146665
0.665000 3.481426 4.021904 4.752562 4.773196 5.632161 6.236545
0.675000 3.531305 4.106802 4.838592 4.846786 5.718648 6.319170
0.685000 3.595744 4.173086 4.903316 4.919137 5.764774 6.387506
0.695000 3.663677 4.256668 4.970368 4.991332 5.842222 6.443532
0.705000 3.720230 4.317178 5.037395 5.068415 5.895085 6.523013
0.715000 3.772204 4.382790 5.107813 5.143913 5.962078 6.580467
0.725000 3.828685 4.462252 5.166142 5.217016 6.010137 6.634769
0.735000 3.889080 4.568720 5.226401 5.291480 6.084379 6.705550
0.745000 3.947124 4.649623 5.290388 5.366338 6.171607 6.761739
0.755000 4.009410 4.733393 5.358791 5.441121 6.233433 6.862899
0.765000 4.085489 4.807550 5.421591 5.512441 6.289502 6.918594
0.775000 4.163174 4.891833 5.506312 5.589231 6.345187 6.986219
0.785000 4.242409 4.969193 5.577219 5.667134 6.426765 7.035187
0.795000 4.307077 5.069736 5.655910 5.743827 6.495416 7.109624
0.805000 4.372226 5.149477 5.730639 5.820039 6.566982 7.195548
0.815000 4.458106 5.219782 5.800190 5.897098 6.625469 7.269302
0.825000 4.547664 5.304517 5.883158 5.974425 6.687950 7.326565
0.835000 4.646930 5.395254 5.951281 6.049117 6.752090 7.401839
0.845000 4.725598 5.457380 6.023243 6.119496 6.820268 7.453910
0.855000 4.816841 5.540011 6.104331 6.194131 6.879102 7.516600
0.865000 4.880013 5.608146 6.179588 6.266610 6.943376 7.578397
0.875000 4.963956 5.703507 6.256485 6.341497 7.025801 7.638219
0.885000 5.032111 5.779118 6.359925 6.416252 7.104218 7.724076
0.895000 5.083958 5.853119 6.462282 6.486843 7.175020 7.782711
0.905000 5.183772 5.921115 6.563185 6.558122 7.234502 7.871611
0.915000 5.239808 6.016344 6.624378 6.630287 7.302302 7.933441
0.925000 5.315907 6.081623 6.706500 6.701482 7.361111 7.992544
0.935000 5.379955 6.138430 6.770673 6.772921 7.447418 8.078516
0.945000 5.475615 6.192867 6.847061 6.844237 7.515667 8.129841
0.955000 5.545628 6.275274 6.929822 6.916714 7.595328 8.202260
0.965000 5.709851 6.349462 7.012824 6.989306 7.674436 8.271788
0.985000 5.896472 6.499722 7.161174 7.131204 7.799126 8.452156
0.995000 5.964394 6.562636 7.230267 7.200159 7.860629 8.531026
1.005000 6.051023 6.627033 7.287386 7.269678 7.922196 8.638407
1.015000 6.094989 6.707288 7.370158 7.345608 7.994591 8.717317
1.025000 6.170389 6.778548 7.440558 7.423540 8.073830 8.802822
1.035000 6.259683 6.856619 7.518265 7.501465 8.159938 8.882195
1.045000 6.390952 6.945472 7.589626 7.576022 8.219759 8.973990
1.055000 6.463756 7.017220 7.660119 7.651183 8.286685 9.046818
1.065000 6.550871 7.087022 7.735742 7.728684 8.373064 9.126612
1.075000 6.652806 7.187717 7.814893 7.810064 8.457788 9.202174
1.085000 6.786332 7.281631 7.881396 7.889405 8.532781 9.265836
1.095000 6.841526 7.385202 7.958464 7.971960 8.599171 9.324586
1.105000 6.921390 7.479206 8.026869 8.053164 8.671795 9.387838
1.115000 7.037490 7.577582 8.093482 8.133630 8.743600 9.452243
1.125000 7.126726 7.660152 8.165577 8.216126 8.818843 9.527319
1.135000 7.195240 7.748784 8.241013 8.297189 8.886807 9.634144
1.145000 7.257066 7.844668 8.323208 8.383120 8.967888 9.731072
1.155000 7.352507 7.927896 8.404721 8.471068 9.052468 9.821234
1.165000 7.400811 8.017346 8.501476 8.555083 9.121011 9.872447
1.175000 7.470266 8.102401 8.586718 8.641310 9.187108 9.964026
1.185000 7.551334 8.182943 8.676107 8.728602 9.281588 10.043658
1.195000 7.608299 8.258501 8.781027 8.817601 9.363740 10.152373
1.205000 7.688404 8.339703 8.863501 8.909844 9.461059 10.277865
1.215000 7.830301 8.434365 8.948768 9.002361 9.559233 10.366525
1.225000 7.917412 8.531109 9.056669 9.097518 9.664647 10.418451
1.235000 8.039658 8.616295 9.166199 9.198192 9.771011 10.488466
1.245000 8.104119 8.742033 9.266584 9.297268 9.862659 10.576011
1.255000 8.195751 8.834393 9.389132 9.402123 9.972514 10.691168
1.265000 8.350143 8.957304 9.509754 9.506605 10.050148 10.765053
1.275000 8.485569 9.054556 9.600192 9.610491 10.151623 10.845212
1.285000 8.584299 9.185824 9.696181 9.727234 10.280182 10.935442
1.295000 8.681370 9.320918 9.788359 9.843070 10.421630 11.036856
1.305000 8.767334 9.453932 9.913005 9.965251 10.533662 11.147017
1.315000 8.897262 9.585763 10.056129 10.094807 10.670300 11.259999
1.325000 9.006215 9.727154 10.193572 10.229716 10.792354 11.374382
1.335000 9.165773 9.857101 10.331395 10.363402 10.920752 11.489713
1.345000 9.278540 9.991174 10.482146 10.497142 11.041578 11.607294
1.355000 9.428200 10.108940 10.631272 10.630361 11.179254 11.734658
1.365000 9.575790 10.256777 10.780790 10.768681 11.303143 11.824864
1.375000 9.663949 10.388775 10.924509 10.905975 11.454165 11.989848
1.385000 9.768531 10.517054 11.066549 11.035004 11.573014 12.097418
1.395000 9.856428 10.626869 11.191593 11.166854 11.703791 12.185732
1.405000 9.952642 10.749434 11.326063 11.296469 11.838620 12.331883
1.415000 10.076864 10.882400 11.440030 11.421732 11.966246 12.610761
1.425000 10.166102 10.989845 11.571153 11.541782 12.088777 12.692622
1.435000 10.278460 11.100354 11.677798 11.660553 12.211387 12.865956
1.445000 10.353916 11.230181 11.808537 11.782243 12.353084 12.985582
1.455000 10.485161 11.331483 11.929818 11.898582 12.465651 13.112849
1.465000 10.550053 11.448354 12.048101 12.013548 12.582936 13.257697
1.475000 10.627517 11.573208 12.133007 12.124157 12.727870 13.354397
1.485000 10.759531 11.675588 12.227415 12.237248 12.834346 13.470003
1.495000 10.893441 11.782524 12.348381 12.351031 12.957278 13.585826
1.505000 11.033889 11.888877 12.456685 12.457810 13.077699 13.703546
1.515000 11.201394 12.003898 12.571195 12.567119 13.192537 13.790939
1.525000 11.342799 12.100767 12.680099 12.675539 13.303270 13.894902
1.535000 11.539312 12.205620 12.794972 12.783331 13.399324 13.998616
1.545000 11.623553 12.311953 12.888233 12.890329 13.496436 14.130585
1.555000 11.705913 12.445750 12.991071 12.994326 13.582843 14.237614
1.565000 11.853461 12.551653 13.109070 13.108674 13.705172 14.304960
1.575000 11.970908 12.667687 13.243130 13.228659 13.801748 14.417406
1.585000 12.137702 12.789989 13.372591 13.354485 13.923395 14.482395
1.595000 12.303773 12.911767 13.499292 13.477370 14.035629 14.594052
1.605000 12.414066 13.036381 13.624939 13.598297 14.147411 14.678960
1.615000 12.591097 13.181461 13.770830 13.731201 14.266977 14.819881
1.625000 12.697000 13.311196 13.901741 13.859459 14.378468 14.985082
1.635000 12.880117 13.458502 14.032679 13.998796 14.509150 15.078310
1.645000 13.033981 13.575896 14.153101 14.129512 14.636527 15.197775
1.655000 13.216575 13.725444 14.279959 14.261937 14.766068 15.364676
1.665000 13.347923 13.886995 14.392396 14.390379 14.873768 15.488132
1.675000 13.521849 14.038707 14.515074 14.521724 14.991061 15.627740
1.685000 13.670656 14.190706 14.654633 14.658305 15.109420 15.759526
1.695000 13.877003 14.314184 14.798213 14.802869 15.266485 15.868102
1.705000 14.036699 14.519872 14.944553 14.958601 15.394563 16.052306
1.715000 14.167826 14.664126 15.086956 15.110337 15.556159 16.164115
1.725000 14.434361 14.820357 15.249542 15.279783 15.737972 16.322140
1.735000 14.595529 15.004272 15.422766 15.443306 15.901789 16.457422
1.745000 14.703783 15.151541 15.586169 15.607354 16.062593 16.600543
1.755000 14.836304 15.304764 15.743802 15.766064 16.246339 16.806279
1.765000 14.965902 15.436248 15.902488 15.932971 16.425930 16.993437
1.775000 15.076594 15.568310 16.068656 16.091969 16.608495 17.184376
1.785000 15.197570 15.723584 16.248273 16.259222 16.787941 17.406823
1.795000 15.290954 15.845590 16.413617 16.406478 16.924399 17.587013
1.805000 15.371186 15.981161 16.572281 16.552491 17.083370 17.792921
1.815000 15.489932 16.082292 16.710402 16.679648 17.205851 17.919473
1.825000 15.585385 16.180951 16.822578 16.793935 17.336885 18.026539
1.835000 15.679189 16.275365 16.945918 16.909331 17.460783 18.162027
1.845000 15.769030 16.376930 17.074026 17.023498 17.606176 18.300129
1.855000 15.844368 16.481815 17.183613 17.137052 17.711724 18.432494
1.865000 15.919341 16.576222 17.296877 17.254714 17.840058 18.568252
1.875000 16.063297 16.696141 17.399011 17.368709 17.953047 18.775668
1.885000 16.135380 16.802657 17.496608 17.486836 18.069203 18.964686
1.895000 16.232122 16.904614 17.581164 17.595751 18.208061 19.054235
1.905000 16.304913 17.006574 17.673460 17.697962 18.314388 19.176163
1.915000 16.365571 17.093748 17.753696 17.795771 18.389036 19.301342
1.925000 16.473513 17.182627 17.860763 17.902820 18.515526 19.466566
1.935000 16.544450 17.275688 17.956337 18.003853 18.643947 19.663119
1.945000 16.621317 17.352507 18.044478 18.099755 18.742697 19.862163
1.955000 16.702045 17.441486 18.134215 18.196994 18.831938 20.128588
1.965000 16.803783 17.536185 18.228515 18.287561 18.943902 20.275803
1.975000 16.881738 17.651260 18.315853 18.375437 19.040698 20.348593
1.985000 16.970218 17.760741 18.416849 18.461472 19.137714 20.439126
1.995000 17.096805 17.858528 18.496242 18.547726 19.243609 20.528730
2.005000 17.187240 17.941676 18.570751 18.630253 19.320110 20.665598
2.025000 17.310039 18.104216 18.732943 18.792727 19.491264 20.775017
2.045000 17.450169 18.250867 18.894392 18.952669 19.704900 20.975100
2.065000 17.597590 18.388380 19.045780 19.113985 19.905639 21.100027
2.085000 17.697614 18.509589 19.201669 19.273236 20.120966 21.261322
2.105000 17.805587 18.638081 19.343525 19.432139 20.358416 21.430278
2.125000 17.937613 18.757712 19.486756 19.589373 20.528277 21.578357
2.145000 18.058815 18.863610 19.622729 19.746765 20.748519 21.855463
2.165000 18.207898 18.976536 19.766774 19.903218 20.955195 22.037190
2.185000 18.407812 19.089563 19.914725 20.053936 21.189102 22.199184
2.205000 18.534549 19.199764 20.035329 20.199932 21.412643 22.406870
2.225000 18.672565 19.314678 20.188257 20.349231 21.600749 22.578839
2.245000 18.825789 19.456757 20.358934 20.503354 21.794425 22.713465
2.265000 18.930965 19.568260 20.503186 20.652869 21.950662 22.877445
2.285000 19.079683 19.671540 20.657933 20.812750 22.121592 23.036716
2.305000 19.186692 19.789438 20.808111 20.970530 22.316129 23.228393
2.325000 19.315424 19.910813 20.948899 21.128379 22.446611 23.416417
2.345000 19.442508 20.033848 21.166253 21.294817 22.610382 23.677473
2.365000 19.587141 20.167795 21.330927 21.459477 22.788698 23.947064
2.385000 19.723135 20.299628 21.523481 21.630277 22.946376 24.126188
2.405000 19.845450 20.454095 21.722481 21.800775 23.074319 24.298914
2.425000 20.036689 20.598003 21.921603 21.972724 23.259514 24.468617
2.445000 20.153537 20.727839 22.101369 22.143602 23.448862 24.597814
2.465000 20.269418 20.877815 22.266125 22.303908 23.602910 24.726795
2.485000 20.404461 21.021905 22.465384 22.465815 23.763775 24.871841
2.505000 20.546204 21.172637 22.649427 22.633257 23.944829 25.013452
2.525000 20.651870 21.297816 22.823108 22.795169 24.122249 25.235336
2.545000 20.793419 21.451553 22.989800 22.952448 24.304199 25.379824
2.565000 20.940237 21.615972 23.163509 23.115029 24.460818 25.498242
2.585000 21.052039 21.794289 23.361769 23.274519 24.622592 25.627481
2.605000 21.191214 21.977200 23.542696 23.441569 24.799707 25.767222
2.625000 21.326501 22.204808 23.702745 23.615772 24.965151 25.882213
2.645000 21.482504 22.331779 23.858379 23.783529 25.160435 26.038470
2.665000 21.632587 22.522058 23.992910 23.951448 25.375963 26.217030
2.685000 21.769421 22.733830 24.153567 24.118449 25.567107 26.367864
2.705000 21.905767 22.926522 24.324071 24.294201 25.748868 26.484175
2.725000 22.038085 23.140361 24.513376 24.470839 25.915145 26.620792
2.745000 22.156368 23.364816 24.690331 24.649901 26.063877 26.789901
2.765000 22.361372 23.574266 24.832777 24.831124 26.224371 26.913702
2.785000 22.518373 23.783909 25.021391 25.016350 26.385120 27.063779
2.805000 22.717636 23.999919 25.181596 25.207775 26.569203 27.211999
2.825000 22.880471 24.172086 25.383401 25.406525 26.719297 27.480157
2.845000 23.163409 24.348937 25.555619 25.599579 26.892941 27.643890
2.865000 23.395555 24.540004 25.780568 25.791287 27.047043 27.870501
2.885000 23.520976 24.784417 26.015432 25.982689 27.221924 28.017085
2.905000 23.694380 25.014852 26.192265 26.186829 27.414635 28.290623
2.925000 23.921542 25.241970 26.405828 26.392248 27.569455 28.534622
2.945000 24.166318 25.475684 26.612732 26.610232 27.737259 28.726202
2.965000 24.333387 25.739285 26.834990 26.820760 27.906415 28.998957
2.985000 24.731452 25.954207 27.060957 27.044630 28.093868 29.172545
3.005000 24.968401 26.144771 27.267027 27.259895 28.268906 29.347123
3.025000 25.158166 26.303450 27.479001 27.455460 28.473610 29.504284
3.045000 25.391252 26.500600 27.670240 27.649290 28.691243 29.689288
3.065000 25.558064 26.680791 27.879668 27.852466 28.914083 29.899183
3.085000 25.730509 26.866848 28.068974 28.039102 29.133995 30.065007
3.105000 25.943073 27.111193 28.249571 28.209834 29.293436 30.215610
3.125000 26.094476 27.265498 28.399457 28.380185 29.514231 30.461349
3.145000 26.256973 27.420725 28.549829 28.544837 29.658299 30.627487
3.165000 26.439092 27.595207 28.681293 28.700289 29.855701 30.754886
3.185000 26.591707 27.779746 28.838328 28.857801 30.070923 30.884311
3.205000 26.724824 27.962566 28.964658 29.011385 30.232037 31.066234
3.225000 26.877397 28.125216 29.108609 29.162571 30.377631 31.248586
3.245000 27.035843 28.311870 29.246800 29.312279 30.519609 31.409054
3.265000 27.154492 28.526974 29.385389 29.459630 30.642889 31.518531
3.285000 27.309329 28.686771 29.508945 29.607928 30.783303 31.680536
3.305000 27.455378 28.853911 29.642824 29.755830 30.898395 31.888690
3.325000 27.573446 29.020347 29.787535 29.903431 31.016574 32.073634
3.345000 27.665018 29.150812 29.920622 30.051934 31.167720 32.409787
3.365000 27.803706 29.295633 30.048659 30.201554 31.303001 32.494268
3.385000 27.912524 29.438536 30.192939 30.347152 31.448822 32.816023
3.405000 28.093788 29.580120 30.344996 30.494745 31.581868 33.147373
3.425000 28.188077 29.725191 30.502947 30.635396 31.714077 33.349568
3.445000 28.378852 29.858898 30.651545 30.785609 31.845097 33.608933
3.465000 28.494297 29.992516 30.835058 30.935169 32.009553 33.872526
3.485000 28.659102 30.108257 31.000095 31.086210 32.148331 34.079028
3.505000 28.803363 30.263234 31.155421 31.231878 32.270222 34.339378
3.525000 28.942044 30.419335 31.307648 31.380699 32.405005 34.543885
3.545000 29.096613 30.566978 31.484888 31.537244 32.545537 34.697977
3.565000 29.254253 30.705818 31.640902 31.686684 32.697014 34.868070
3.585000 29.435542 30.841722 31.809367 31.839368 32.824529 35.016161
3.605000 29.675316 30.969580 31.961557 31.991337 32.953957 35.167064
3.625000 29.850003 31.089049 32.118341 32.141623 33.099962 35.256378
3.645000 30.022536 31.220438 32.264860 32.293630 33.251382 35.373744
3.665000 30.236367 31.330173 32.394263 32.449226 33.422604 35.612910
3.685000 30.426586 31.461934 32.556246 32.606127 33.570882 35.765327
3.705000 30.578952 31.584816 32.717238 32.761424 33.726238 35.869838
3.725000 30.803945 31.707116 32.857757 32.917207 33.878127 36.014106
3.745000 30.961665 31.833485 33.007516 33.064851 34.046533 36.173717
3.765000 31.069513 31.956405 33.169560 33.215010 34.265181 36.315002
3.785000 31.312580 32.084260 33.310616 33.365661 34.421493 36.380001
3.805000 31.457754 32.205776 33.450276 33.517244 34.570968 36.634241
3.825000 31.543181 32.355074 33.605116 33.667072 34.725847 36.811874
3.845000 31.779223 32.477254 33.759039 33.818698 34.877261 36.919918
3.865000 31.930313 32.627263 33.914988 33.977799 35.045525 37.054013
3.885000 32.124222 32.774628 34.106321 34.135227 35.212834 37.173817
3.905000 32.250182 32.910538 34.242063 34.293953 35.399041 37.427271
3.925000 32.383461 33.057613 34.400964 34.451256 35.554577 37.576459
3.945000 32.488804 33.196160 34.564577 34.608123 35.718355 37.799544
3.965000 32.632809 33.344181 34.716243 34.763413 35.895485 37.991306
3.985000 32.769750 33.465797 34.903749 34.917852 36.104651 38.147219
4.005000 32.886194 33.586208 35.053760 35.070016 36.267295 38.320868
4.025000 33.058664 33.747290 35.210058 35.226607 36.445648 38.504943
4.045000 33.116133 33.899519 35.377563 35.386259 36.608489 38.656899
4.065000 33.308137 34.048094 35.515464 35.544556 36.785179 38.816198
4.085000 33.457304 34.212027 35.680724 35.704006 36.955835 38.904847
4.105000 33.624610 34.369116 35.847035 35.871603 37.105260 39.184492
4.125000 33.754003 34.525712 36.020151 36.039014 37.302083 39.353904
4.145000 33.909053 34.666371 36.180710 36.204214 37.522268 39.499345
4.165000 34.030529 34.841430 36.368294 36.374778 37.746696 39.688923
4.185000 34.182714 34.981188 36.519124 36.538784 37.874054 39.884617
