depth(m) lower_95(kyr) lower_68(kyr) median(kyr) mean(kyr) upper_68(kyr) upper_95(kyr)
160.240000 1399.040257 1399.300517 1399.971870 1399.963807 1400.624507 1400.938365
160.340000 1399.930460 1400.446659 1401.210760 1401.239801 1401.953808 1402.921666
160.440000 1400.964125 1401.579316 1402.457932 1402.529229 1403.404256 1404.787574
160.540000 1402.128984 1402.796483 1403.756917 1403.918487 1405.071026 1406.832669
160.640000 1403.269077 1404.099276 1405.241278 1405.452829 1406.801390 1408.817090
160.740000 1404.381903 1405.351299 1406.709732 1406.933383 1408.532010 1410.343664
160.785000 1405.017729 1406.046564 1407.469829 1407.635841 1409.298688 1411.104332
160.885000 1406.091222 1407.390700 1408.914870 1408.992353 1410.633898 1412.359054
160.985000 1407.180678 1408.662492 1410.304763 1410.310907 1411.921216 1413.646359
161.085000 1408.371338 1410.024743 1411.686264 1411.681904 1413.303312 1414.918310
161.185000 1409.789839 1411.363876 1413.013346 1413.050434 1414.752136 1416.349803
161.285000 1411.172550 1412.710722 1414.457521 1414.459035 1416.211719 1417.757709
161.385000 1412.356886 1413.984646 1415.822516 1415.799713 1417.641521 1418.981353
161.485000 1413.814078 1415.439255 1417.207546 1417.193305 1419.029415 1420.405826
161.585000 1415.352808 1417.035940 1418.911572 1418.798233 1420.390392 1422.017940
161.685000 1417.407126 1419.086428 1420.827132 1420.763399 1422.316352 1423.966211
161.785000 1419.331095 1421.008213 1422.656869 1422.648792 1424.300636 1425.794417
161.885000 1421.639542 1423.281120 1424.833713 1424.941747 1426.528124 1428.794814
161.985000 1423.742160 1425.374978 1427.129461 1427.263706 1429.133416 1431.386859
162.085000 1425.648755 1427.437342 1429.555054 1429.635139 1431.854254 1434.117017
162.185000 1427.782636 1429.334182 1431.666144 1431.677493 1433.898814 1435.947795
162.285000 1429.458510 1431.374751 1433.623257 1433.597007 1435.790113 1437.602378
162.385000 1430.762086 1433.014097 1435.323670 1435.232532 1437.400163 1439.212476
162.485000 1432.438079 1434.580922 1436.729673 1436.709010 1438.909101 1440.801197
162.585000 1434.151512 1435.993175 1438.078107 1438.132811 1440.255200 1442.281977
162.685000 1435.511430 1437.379283 1439.524186 1439.505950 1441.637517 1443.793004
162.785000 1436.784575 1438.745147 1440.909446 1440.953317 1443.138638 1445.419643
162.885000 1438.129292 1440.181669 1442.298091 1442.377170 1444.585934 1446.851337
162.985000 1439.481735 1441.742973 1443.993319 1443.962721 1446.304504 1448.227342
163.085000 1441.206857 1443.531295 1445.886917 1445.784301 1448.001286 1449.928979
163.185000 1443.505139 1445.871205 1448.027539 1447.871282 1449.899491 1451.584963
163.285000 1446.651965 1448.606946 1450.585032 1450.407381 1452.102799 1453.521074
163.385000 1449.953257 1451.614243 1452.919606 1452.857416 1454.139071 1455.284507
163.485000 1452.314540 1453.532222 1454.784597 1454.766992 1456.097618 1457.340336
163.585000 1453.909872 1455.035066 1456.260759 1456.306266 1457.570778 1458.934142
163.685000 1455.231981 1456.334087 1457.576475 1457.611457 1458.891320 1460.018066
163.785000 1456.428478 1457.564203 1458.796961 1458.839327 1460.079138 1461.370587
163.885000 1457.566093 1458.813835 1460.087878 1460.105087 1461.414561 1462.715023
163.985000 1458.869851 1460.202796 1461.471799 1461.506099 1462.828559 1464.380712
164.085000 1460.275092 1461.576431 1463.022328 1463.059599 1464.431366 1466.323277
164.185000 1462.033213 1463.286491 1464.803922 1464.880276 1466.492174 1468.369316
164.285000 1463.825164 1465.376333 1467.054094 1467.154695 1469.012465 1470.880897
164.385000 1465.560783 1467.352285 1469.185447 1469.275608 1471.314718 1473.203046
164.485000 1467.079501 1469.043057 1471.170617 1471.195351 1473.337923 1475.372413
164.585000 1469.025769 1470.872490 1473.097705 1473.009168 1474.995967 1477.075995
164.685000 1470.842729 1472.568703 1474.747328 1474.657446 1476.680059 1478.416031
164.785000 1472.245861 1474.094549 1476.201063 1476.132751 1478.086754 1479.848870
164.885000 1473.677506 1475.568425 1477.473752 1477.487915 1479.468961 1481.062298
164.985000 1474.819799 1476.865721 1478.820039 1478.765216 1480.756745 1482.404238
165.085000 1475.977813 1478.091284 1480.028915 1479.997764 1481.951474 1483.627676
165.185000 1477.234432 1479.368650 1481.263168 1481.267341 1483.124596 1485.011010
165.285000 1478.751528 1480.562942 1482.475370 1482.504117 1484.352992 1486.258897
165.385000 1480.239302 1481.892239 1483.739689 1483.793763 1485.723971 1487.683589
165.485000 1481.574525 1483.317442 1485.120826 1485.165173 1487.070489 1488.859250
165.585000 1483.221103 1484.722050 1486.664751 1486.679116 1488.548587 1490.341050
165.685000 1484.896793 1486.637260 1488.525160 1488.516794 1490.387272 1492.148858
165.785000 1487.105753 1489.075028 1491.172051 1491.071541 1492.999958 1494.814350
165.887500 1489.214113 1491.563109 1493.622003 1493.606312 1495.622811 1497.616761
165.990000 1492.581973 1494.190985 1496.089996 1496.083993 1497.943236 1499.978578
166.090000 1494.310134 1495.847556 1497.788595 1497.838663 1499.866163 1502.024686
166.190000 1495.425257 1497.233823 1499.228261 1499.333414 1501.542689 1503.467971
166.290000 1496.768408 1498.655594 1500.707490 1500.805076 1502.994930 1504.823188
166.390000 1498.175184 1500.063160 1502.223307 1502.256494 1504.368698 1506.499641
166.490000 1499.666822 1501.710126 1503.751724 1503.718652 1505.717428 1507.777154
166.620000 1501.758222 1503.642303 1505.756696 1505.687661 1507.603251 1509.610332
166.690000 1502.741697 1504.945709 1507.026765 1506.985914 1508.918863 1511.011891
166.785000 1504.867714 1507.084033 1508.928574 1509.081596 1511.189751 1513.605767
166.885000 1507.428576 1509.702029 1511.810315 1511.845448 1514.140816 1516.369434
166.985000 1510.131332 1512.139575 1514.471651 1514.548778 1517.068242 1519.164774
167.085000 1512.240402 1514.494673 1516.974524 1516.888084 1519.305760 1520.996782
167.185000 1514.210905 1516.766148 1519.236452 1519.007031 1521.168432 1522.746487
167.285000 1516.273323 1519.118324 1521.387701 1521.191383 1523.229000 1524.567598
167.385000 1519.117618 1521.656721 1523.662538 1523.383384 1525.152216 1526.178911
167.485000 1521.849804 1523.792468 1525.431864 1525.261459 1526.668669 1527.816229
167.585000 1523.674209 1525.620569 1526.959364 1526.814844 1528.038673 1529.073647
167.685000 1525.511752 1526.921958 1528.156020 1528.075911 1529.236324 1530.042130
167.785000 1526.783516 1528.081321 1529.306529 1529.206568 1530.318665 1531.331068
167.885000 1527.930710 1529.249620 1530.362776 1530.317052 1531.373162 1532.303304
167.985000 1529.116929 1530.369886 1531.378568 1531.336826 1532.357973 1533.231906
168.085000 1530.219487 1531.335210 1532.365583 1532.329923 1533.306923 1534.200753
168.185000 1531.127802 1532.363698 1533.392869 1533.327396 1534.294153 1535.158138
168.285000 1532.214223 1533.348123 1534.349622 1534.288822 1535.250548 1536.105539
168.385000 1533.214418 1534.305803 1535.281320 1535.247479 1536.172670 1537.030997
168.485000 1534.237763 1535.275390 1536.243303 1536.226971 1537.184171 1538.132201
168.585000 1535.151677 1536.190551 1537.168776 1537.167934 1538.135190 1539.169515
168.685000 1536.096218 1537.170065 1538.150945 1538.121089 1539.089323 1540.148019
168.785000 1537.043679 1538.088973 1539.115215 1539.088035 1540.007129 1540.998653
168.885000 1538.069224 1539.112148 1540.086075 1540.067801 1541.017033 1542.109965
168.985000 1539.068544 1540.120532 1541.060493 1541.051270 1541.978269 1543.119477
169.085000 1540.013275 1541.089030 1542.058701 1542.063841 1543.040836 1544.177752
169.185000 1541.131867 1542.091501 1543.096538 1543.110894 1544.128722 1545.268527
169.285000 1541.968336 1543.173195 1544.146392 1544.211997 1545.250770 1546.689092
169.385000 1543.161560 1544.213108 1545.309198 1545.407276 1546.523070 1548.139883
169.485000 1544.195094 1545.356396 1546.505089 1546.650027 1548.032106 1549.842490
169.585000 1545.285903 1546.478108 1547.807263 1547.978667 1549.577427 1551.619134
169.685000 1546.508891 1547.690648 1549.227249 1549.428920 1551.175478 1553.356653
169.785000 1547.877788 1549.004399 1550.726564 1550.926758 1552.940407 1555.488966
169.885000 1548.972785 1550.384760 1552.139039 1552.360036 1554.359501 1556.768287
169.985000 1550.258123 1551.658689 1553.571291 1553.748804 1555.955998 1558.173020
170.085000 1551.496022 1552.885866 1555.003469 1555.123198 1557.276865 1559.571798
170.185000 1552.587312 1554.132661 1556.357201 1556.460121 1558.744091 1561.223213
170.285000 1553.750756 1555.452108 1557.764967 1557.783526 1560.130141 1562.551120
170.385000 1554.924772 1556.705602 1559.046128 1559.107714 1561.521226 1563.692626
170.485000 1556.216360 1558.289438 1560.455694 1560.518592 1562.895294 1564.874326
170.585000 1557.617484 1559.706832 1561.925056 1561.980134 1564.348918 1566.198185
170.685000 1559.097127 1561.142267 1563.468947 1563.420922 1565.702924 1567.380642
170.785000 1560.626903 1562.755729 1564.931723 1564.905057 1567.073508 1568.713809
170.885000 1562.483870 1564.478081 1566.411146 1566.419768 1568.499927 1570.167335
170.985000 1564.244678 1566.108714 1568.021893 1567.992332 1569.876636 1571.559841
171.085000 1565.682528 1568.005550 1569.845808 1569.760650 1571.535818 1573.188477
171.185000 1568.089041 1570.190038 1571.881703 1571.906751 1573.650618 1575.741386
171.285000 1570.615598 1572.251061 1573.778407 1573.910969 1575.582513 1577.648273
171.385000 1572.411926 1573.953065 1575.658497 1575.710837 1577.433891 1579.294359
171.485000 1574.134042 1575.654290 1577.407286 1577.507822 1579.343128 1581.521283
171.585000 1575.710195 1577.334624 1579.240487 1579.436604 1581.456711 1584.463744
171.685000 1577.439268 1579.261124 1581.424018 1581.700283 1584.273584 1587.243848
171.785000 1579.487607 1581.369176 1583.901299 1584.131868 1587.124716 1589.982361
171.885000 1581.648810 1583.587157 1586.623646 1586.706801 1589.761677 1592.270172
171.985000 1583.623603 1586.033882 1589.267436 1589.225471 1592.284288 1594.512860
172.085000 1585.507737 1588.397198 1591.637425 1591.387665 1594.208375 1596.150127
172.185000 1588.404213 1591.055845 1593.702352 1593.555274 1596.096583 1598.084351
172.285000 1591.182328 1593.564847 1595.599437 1595.666488 1597.893410 1599.923901
172.385000 1593.474452 1595.483499 1597.413390 1597.462908 1599.547133 1601.225079
172.485000 1595.076119 1597.127945 1599.174709 1599.101837 1601.083234 1602.693049
172.585000 1596.743441 1598.916900 1600.756958 1600.776206 1602.755019 1604.465124
172.685000 1598.471602 1600.519261 1602.595154 1602.569837 1604.566771 1606.630683
172.785000 1600.095721 1602.591362 1604.684627 1604.661154 1606.759440 1608.947132
172.885000 1602.381738 1604.724167 1606.803989 1606.847701 1609.143362 1611.355758
172.985000 1604.590547 1606.835122 1609.018403 1609.026723 1611.212923 1613.445148
173.085000 1606.311036 1608.658027 1610.909850 1610.902351 1613.174809 1615.251278
173.185000 1608.048702 1610.521600 1612.739684 1612.690849 1614.878466 1617.150231
173.285000 1609.686451 1612.229199 1614.457263 1614.444560 1616.725266 1618.828099
173.385000 1611.340632 1613.959973 1616.201630 1616.171544 1618.336065 1620.775363
173.485000 1613.230643 1615.502947 1617.773052 1617.810829 1620.001500 1622.635822
173.585000 1614.887182 1617.008585 1619.261722 1619.299756 1621.554712 1624.402984
173.685000 1616.244836 1618.387243 1620.711318 1620.726211 1623.185542 1625.719356
173.785000 1617.401432 1619.686314 1622.188055 1622.184066 1624.629172 1627.515291
173.885000 1618.723467 1621.054677 1623.660156 1623.681701 1626.192128 1628.984923
173.985000 1620.220809 1622.599353 1625.153390 1625.231993 1627.838994 1630.399778
174.085000 1621.940518 1624.213758 1626.821354 1626.909744 1629.535369 1632.311228
174.185000 1623.619394 1625.956290 1628.683759 1628.610604 1631.228128 1633.725934
174.285000 1625.234254 1627.651434 1630.435346 1630.347017 1633.038731 1635.364508
174.385000 1627.013318 1629.440574 1632.183648 1632.200340 1634.813791 1637.427915
174.485000 1628.873354 1631.362320 1634.296396 1634.253394 1637.116271 1639.924198
174.585000 1630.659897 1633.548740 1636.446018 1636.460011 1639.463997 1642.617502
174.685000 1632.566787 1635.372791 1638.445479 1638.506620 1641.584088 1644.677727
174.785000 1634.978181 1637.449859 1640.538800 1640.532968 1643.561769 1646.637959
174.885000 1637.179830 1639.328235 1642.720856 1642.610274 1645.629454 1648.510304
174.985000 1638.820243 1641.572318 1644.796608 1644.708710 1647.582175 1650.562176
175.085000 1640.862576 1643.677914 1646.605826 1646.557899 1649.394417 1651.950426
175.185000 1642.819015 1645.181016 1648.239009 1648.212816 1651.113804 1653.506554
175.285000 1644.088868 1646.822731 1649.940495 1649.745859 1652.579524 1654.852305
175.385000 1645.521523 1648.440668 1651.292683 1651.231557 1654.064095 1656.343093
175.485000 1646.871469 1650.064964 1652.782068 1652.695667 1655.469259 1657.768768
175.585000 1648.737359 1651.492466 1654.185234 1654.097508 1656.742993 1658.926783
175.685000 1650.033153 1652.938308 1655.591671 1655.491638 1658.007795 1660.001825
175.785000 1651.576959 1654.242305 1657.105957 1656.869313 1659.288191 1661.118769
175.885000 1652.889062 1655.771190 1658.467125 1658.213204 1660.519079 1662.217182
175.985000 1654.498175 1657.241007 1659.708997 1659.505548 1661.644453 1663.391858
176.085000 1656.206825 1658.801292 1661.120162 1660.851936 1662.870324 1664.557319
176.185000 1657.688272 1660.234365 1662.465343 1662.190891 1664.079338 1665.792301
176.285000 1659.351969 1661.706083 1663.752385 1663.569273 1665.284240 1667.116480
176.385000 1661.353664 1663.331216 1665.233281 1665.103108 1666.772735 1668.661188
176.485000 1663.235895 1665.276735 1666.985081 1666.965912 1668.684992 1671.067482
176.585000 1665.392304 1667.267099 1668.949047 1669.142755 1671.149187 1673.747163
176.685000 1667.431861 1669.136976 1671.062551 1671.231306 1673.401640 1676.164185
176.785000 1668.978660 1670.697174 1673.045264 1673.193483 1675.656686 1678.472842
176.885000 1670.389374 1672.302606 1674.833676 1675.043353 1677.869108 1680.553603
176.985000 1671.903108 1674.144904 1676.712594 1676.899041 1679.722366 1682.770339
177.085000 1673.344586 1675.869813 1678.457885 1678.652910 1681.516770 1684.807477
177.185000 1674.715104 1677.302637 1680.249311 1680.395558 1683.539306 1686.839001
177.285000 1676.390111 1678.997188 1682.034780 1682.085876 1685.147613 1688.556720
177.385000 1677.864081 1680.684172 1683.871417 1683.940433 1687.225105 1690.801725
177.485000 1679.675363 1682.619142 1685.854245 1685.951678 1689.382111 1692.768564
177.585000 1682.015595 1684.901600 1688.065266 1688.182301 1691.620918 1694.511769
177.685000 1684.416019 1687.099490 1690.328397 1690.356795 1693.616422 1696.357852
177.785000 1686.270951 1689.260170 1692.768759 1692.522421 1695.622619 1697.926721
177.885000 1688.343361 1692.056143 1695.168929 1694.849591 1697.543492 1699.569928
177.985000 1691.469520 1694.653519 1697.427439 1697.135440 1699.375473 1701.580548
178.085000 1695.079869 1698.117122 1699.981831 1699.871824 1701.882379 1703.802227
178.185000 1697.837946 1699.996242 1701.752469 1701.814409 1703.701920 1705.972377
178.285000 1699.839750 1701.601959 1703.309580 1703.466059 1705.430886 1707.550501
178.385000 1701.216411 1703.041387 1704.862140 1704.957588 1706.962293 1709.015169
178.485000 1702.785174 1704.555665 1706.361056 1706.483859 1708.507936 1710.446442
178.585000 1704.147809 1706.136777 1708.080034 1708.056568 1710.055747 1711.889414
178.685000 1705.801612 1707.665262 1709.749639 1709.711172 1711.643373 1713.521281
178.785000 1707.266124 1709.331274 1711.408559 1711.349822 1713.339721 1715.461195
178.885000 1708.737436 1710.873055 1712.899336 1712.884827 1714.797825 1717.112458
178.985000 1710.437606 1712.518332 1714.503134 1714.483951 1716.375954 1718.708580
179.085000 1712.345054 1714.310222 1716.039752 1716.065968 1717.918849 1719.909432
179.185000 1714.091494 1715.777049 1717.555207 1717.590739 1719.473174 1721.306843
179.285000 1715.620252 1717.235811 1719.016787 1719.048736 1720.779449 1722.815506
179.385000 1716.922374 1718.682805 1720.396298 1720.479317 1722.252581 1724.646294
179.485000 1718.169364 1720.031448 1721.875396 1721.939061 1723.775236 1726.653841
179.585000 1719.646269 1721.343473 1723.330785 1723.427044 1725.533159 1727.863890
179.685000 1720.967592 1722.758063 1724.809395 1724.960018 1727.148284 1729.814791
179.785000 1722.189419 1724.157440 1726.377904 1726.504071 1728.858367 1731.417496
179.885000 1723.501541 1725.641978 1727.913549 1728.046291 1730.486289 1733.024464
179.985000 1724.927507 1727.111675 1729.431853 1729.560438 1732.102571 1734.780190
180.085000 1726.410700 1728.514958 1730.979394 1731.079030 1733.609137 1736.178668
180.185000 1727.778397 1730.069862 1732.534707 1732.596406 1735.140382 1737.505955
180.285000 1729.441366 1731.630850 1734.125458 1734.135504 1736.606255 1738.902199
180.385000 1731.053120 1733.204647 1735.688891 1735.645529 1738.124527 1740.261095
180.485000 1732.691599 1734.878897 1737.221532 1737.201426 1739.489945 1741.538193
180.585000 1734.183181 1736.343752 1738.912781 1738.746234 1740.975245 1742.867388
180.685000 1735.861644 1738.107687 1740.512451 1740.373319 1742.470045 1744.351746
180.785000 1737.681232 1739.996692 1742.140947 1742.057648 1744.055457 1746.054529
180.885000 1739.370327 1742.040787 1743.990815 1743.935459 1745.874053 1747.674049
180.985000 1741.640728 1743.776199 1745.587508 1745.577903 1747.456325 1749.466422
181.085000 1743.454253 1745.194963 1747.038456 1747.084906 1748.900179 1751.089164
181.185000 1744.869886 1746.624122 1748.489655 1748.531868 1750.284318 1752.507061
181.285000 1746.352647 1748.034397 1749.986058 1750.081041 1752.038140 1754.694473
181.385000 1747.736060 1749.510533 1751.516086 1751.688520 1753.801621 1756.581770
181.485000 1749.313795 1751.069088 1753.184313 1753.402812 1755.838935 1758.304275
181.585000 1750.843166 1752.586648 1754.948357 1755.153119 1757.971510 1760.626647
181.685000 1752.064788 1754.059952 1756.621842 1756.777933 1759.593473 1762.527198
181.785000 1753.394452 1755.543635 1758.252984 1758.375208 1761.165340 1764.427849
181.885000 1755.207909 1757.298729 1760.127315 1760.217669 1762.973282 1766.257878
181.985000 1756.888452 1759.200348 1761.912509 1762.026092 1764.829166 1768.044007
182.085000 1758.392223 1761.024004 1763.739998 1763.812627 1766.732917 1770.002327
182.185000 1759.825080 1762.702178 1765.418879 1765.457928 1768.379730 1771.695501
182.285000 1761.279200 1764.169848 1766.889149 1767.086790 1770.041197 1773.148110
182.385000 1762.938609 1765.741197 1768.537844 1768.691443 1771.756456 1774.456088
182.485000 1764.626056 1767.378044 1770.272853 1770.297347 1773.233001 1776.143799
182.585000 1766.285657 1769.070923 1771.996178 1771.946469 1774.838168 1777.438987
182.685000 1768.247199 1770.897035 1773.600790 1773.661228 1776.494283 1778.958836
182.785000 1770.299268 1772.734003 1775.508871 1775.512956 1778.397104 1780.443925
182.885000 1772.197096 1774.807278 1777.655710 1777.512280 1780.133839 1782.002411
182.985000 1773.980318 1777.010397 1779.844704 1779.530653 1781.873278 1783.786885
183.085000 1776.610641 1779.369576 1781.875570 1781.623265 1783.801128 1785.411805
183.185000 1778.695521 1781.496244 1783.673992 1783.486390 1785.424436 1787.011126
183.285000 1781.499854 1783.421537 1785.395902 1785.254093 1787.053367 1788.459844
183.385000 1783.197223 1785.159457 1786.846572 1786.836240 1788.490160 1790.280530
183.485000 1785.255634 1786.738850 1788.278740 1788.354572 1789.867798 1791.760325
183.585000 1786.676421 1788.185313 1789.769526 1789.816712 1791.413465 1793.186131
183.685000 1788.248894 1789.711288 1791.125603 1791.210759 1792.781749 1794.554648
183.785000 1789.573407 1791.013966 1792.440368 1792.560464 1794.191464 1795.918073
183.885000 1790.704231 1792.260617 1793.862415 1793.931588 1795.607907 1797.435260
183.985000 1791.917467 1793.626385 1795.261448 1795.279576 1796.940109 1798.773780
