depth(m) lower_95(kyr) lower_68(kyr) median(kyr) mean(kyr) upper_68(kyr) upper_95(kyr)
68.420000 1399.038480 1399.261984 1399.893543 1399.917308 1400.599385 1400.900204
68.520000 1400.156729 1400.823182 1401.665890 1401.736759 1402.516965 1404.013081
68.620000 1401.631941 1402.437018 1403.494559 1403.774117 1405.019253 1407.778453
68.720000 1403.037401 1404.104345 1405.410488 1405.785046 1407.572643 1410.497469
68.820000 1404.576038 1405.762237 1407.495755 1407.862112 1410.044016 1412.764909
68.920000 1406.204842 1407.740499 1409.720345 1409.973035 1412.225991 1414.677220
69.020000 1408.128666 1409.970135 1412.321831 1412.330988 1414.732515 1416.591522
69.120000 1410.108143 1412.317471 1414.737663 1414.709930 1416.943182 1418.851156
69.220000 1412.332707 1414.656274 1417.049795 1416.858568 1418.960337 1420.518945
69.320000 1414.434661 1417.289868 1419.222941 1419.041912 1420.893601 1422.445256
69.420000 1417.598013 1419.659385 1421.579314 1421.421932 1423.168050 1424.760470
69.520000 1420.405238 1422.296433 1423.918418 1423.976501 1425.740770 1427.322048
69.620000 1422.650485 1424.468181 1426.258117 1426.413934 1428.436694 1430.987698
69.720000 1424.430858 1426.299234 1428.278547 1428.575894 1430.853429 1433.889514
69.820000 1426.268219 1428.114619 1430.496289 1430.754044 1433.438836 1437.058282
69.920000 1428.045840 1430.031632 1432.890054 1433.109743 1436.121436 1439.897639
70.020000 1430.034552 1432.308896 1435.268020 1435.558745 1438.779462 1442.809365
70.120000 1432.129596 1434.563949 1437.791929 1437.991526 1441.506691 1445.071794
70.220000 1434.472735 1437.117971 1440.661670 1440.645019 1444.195375 1446.757570
70.320000 1436.796570 1439.703516 1443.438004 1443.315892 1446.776063 1448.898046
70.420000 1439.673013 1443.137764 1446.312178 1446.143726 1449.259338 1450.936292
70.520000 1444.270791 1447.188670 1450.059411 1449.744831 1452.108458 1453.881480
70.620000 1448.068052 1451.065743 1453.215523 1452.980016 1455.025968 1456.517155
70.720000 1452.462220 1454.220837 1455.737369 1455.690246 1457.140792 1458.539130
70.820000 1454.785635 1456.153241 1457.475741 1457.445091 1458.803684 1460.136016
70.920000 1456.458265 1457.745449 1459.031888 1459.031484 1460.327086 1461.638030
71.020000 1457.916249 1459.290555 1460.593069 1460.575536 1461.924335 1463.209244
71.120000 1459.531770 1460.826563 1462.212602 1462.237750 1463.598355 1465.442425
71.220000 1461.303168 1462.439449 1463.840313 1463.903266 1465.238910 1467.314845
71.320000 1463.027307 1464.240839 1465.644761 1465.788664 1467.316567 1469.779868
71.420000 1464.786853 1466.085541 1467.504481 1467.831537 1469.653809 1472.406366
71.520000 1466.386738 1467.762608 1469.502099 1469.884886 1472.035963 1475.449725
71.620000 1467.951355 1469.518464 1471.761884 1472.229448 1474.987398 1478.613580
71.720000 1469.606970 1471.300805 1473.934016 1474.536476 1477.798269 1482.705903
71.820000 1471.270832 1473.124798 1476.386542 1476.967150 1480.923900 1485.301234
71.920000 1473.191105 1475.519878 1479.597241 1479.816637 1484.308427 1487.637656
72.020000 1474.947692 1478.067719 1482.843877 1482.644549 1487.007446 1489.603519
72.120000 1477.115632 1481.065235 1485.999680 1485.384602 1489.410488 1491.517350
72.220000 1480.425301 1484.538274 1488.712356 1488.151755 1491.473340 1493.163308
72.320000 1484.408112 1488.966443 1492.163837 1491.678607 1494.209933 1495.981905
72.420000 1491.111455 1493.308947 1494.963868 1494.902717 1496.643682 1498.028370
72.520000 1493.627768 1495.349470 1496.939178 1496.916438 1498.492720 1500.246624
72.620000 1495.324648 1496.926847 1498.493078 1498.525405 1500.097429 1501.803794
72.720000 1497.053919 1498.399389 1500.039354 1500.067015 1501.676084 1503.299200
72.820000 1498.605447 1499.908425 1501.556812 1501.567977 1503.194798 1504.930262
72.920000 1500.072863 1501.418721 1503.172846 1503.167238 1504.815296 1506.577420
73.020000 1501.619470 1503.119947 1504.921509 1504.983465 1506.742990 1508.760984
73.120000 1503.509272 1505.208084 1507.087679 1507.282280 1509.340980 1512.162201
73.220000 1505.903150 1507.810325 1510.048341 1510.440833 1513.236045 1517.037202
73.320000 1508.195010 1510.407825 1513.137878 1513.553589 1516.704356 1521.128155
73.420000 1510.856800 1513.751400 1516.816019 1516.973377 1520.299906 1523.556834
73.520000 1513.874528 1517.272698 1520.750335 1520.494058 1523.646872 1526.051893
73.620000 1517.697743 1522.056279 1524.783702 1524.511947 1527.175774 1528.837548
73.720000 1522.549263 1525.579786 1527.843804 1527.640185 1529.803101 1531.155296
73.820000 1527.125930 1529.188729 1530.911450 1530.816722 1532.429049 1533.827850
73.920000 1529.753184 1531.304254 1532.885347 1532.842368 1534.328273 1535.652550
74.020000 1531.558507 1533.007532 1534.531517 1534.479418 1535.953591 1537.168616
74.120000 1533.089126 1534.467246 1535.991509 1535.933910 1537.315794 1538.496797
74.220000 1534.632795 1535.985174 1537.418860 1537.368794 1538.752528 1539.949934
74.320000 1536.060952 1537.403451 1538.887989 1538.804260 1540.114830 1541.335673
74.420000 1537.458676 1539.018944 1540.364469 1540.305518 1541.616860 1542.795215
74.520000 1539.420789 1540.660149 1541.973246 1541.966829 1543.186346 1544.799773
74.620000 1541.121682 1542.280481 1543.538935 1543.688605 1545.097209 1547.148984
74.720000 1542.824875 1543.907951 1545.235337 1545.527959 1547.092620 1549.725136
74.820000 1544.257350 1545.530465 1546.983801 1547.413634 1549.398580 1552.799884
74.920000 1545.642524 1547.098061 1548.926012 1549.426237 1551.937640 1555.304013
75.020000 1547.011134 1548.706838 1551.027233 1551.465526 1554.492181 1557.776202
75.120000 1548.502272 1550.326987 1553.088958 1553.543490 1556.972356 1560.392911
75.220000 1550.144353 1552.402140 1555.629892 1555.963480 1559.769336 1563.259927
75.320000 1552.017353 1554.626466 1558.559361 1558.581968 1562.367874 1565.529910
75.420000 1554.445191 1557.145727 1561.671731 1561.329630 1564.968041 1567.319447
75.520000 1556.439941 1560.198288 1564.435427 1563.884763 1567.289408 1569.342001
75.620000 1558.730406 1563.096376 1566.980629 1566.323071 1569.390973 1570.964081
75.720000 1561.703296 1566.075139 1569.253189 1568.669442 1571.113893 1572.615977
75.820000 1566.098133 1569.337363 1571.466823 1571.128021 1572.857331 1574.279547
75.920000 1570.140727 1572.010800 1573.476889 1573.368618 1574.728791 1575.990742
76.020000 1572.233663 1573.813731 1575.117028 1575.064981 1576.263818 1577.672148
76.120000 1573.720120 1575.347886 1576.581047 1576.586303 1577.881390 1579.157775
76.240000 1575.384730 1577.106165 1578.354728 1578.396273 1579.739117 1581.112641
76.340000 1577.003142 1578.508067 1579.892607 1579.927273 1581.340864 1582.745731
76.440000 1578.480402 1580.070718 1581.490757 1581.496289 1582.953362 1584.505584
76.540000 1580.154605 1581.633553 1583.150377 1583.191407 1584.681911 1586.639861
76.640000 1581.705376 1583.201198 1584.779734 1584.848477 1586.422628 1588.778682
76.740000 1583.046791 1584.621211 1586.329276 1586.432069 1588.148366 1590.351864
76.840000 1584.441721 1586.226839 1588.032995 1588.081924 1589.904652 1592.258080
76.940000 1586.188464 1587.914840 1589.799849 1589.840441 1591.762761 1593.938002
77.040000 1588.104066 1589.824754 1591.711540 1591.810390 1593.785680 1596.315367
77.140000 1589.932647 1591.876921 1593.912760 1593.993073 1596.095080 1598.865883
77.240000 1591.805180 1593.845665 1595.929232 1596.025290 1598.070082 1600.711676
77.340000 1593.804872 1595.805047 1597.964077 1597.981336 1600.222595 1602.696871
77.440000 1595.572644 1597.465933 1599.870298 1599.899836 1602.266955 1604.830493
77.540000 1597.331201 1599.177618 1601.715754 1601.919722 1604.611378 1607.500676
77.640000 1599.011536 1601.229409 1603.839923 1604.074184 1606.952265 1610.330498
77.740000 1601.034927 1603.516670 1606.486027 1606.679615 1609.994667 1613.367851
77.840000 1603.262465 1606.038381 1609.314926 1609.374715 1612.768315 1616.072927
77.940000 1605.281302 1608.285683 1611.928553 1611.968309 1615.506455 1619.279844
78.040000 1607.012749 1610.910672 1614.536000 1614.492633 1617.956937 1621.848648
78.140000 1609.011795 1613.450002 1617.070090 1616.985557 1620.717534 1624.602034
78.240000 1611.300614 1615.697098 1619.218878 1619.250187 1622.948071 1627.367025
78.340000 1613.524397 1617.806198 1621.304356 1621.505523 1625.236233 1630.135905
78.440000 1615.969995 1619.683541 1623.444065 1623.640876 1627.678855 1632.072889
78.540000 1618.012390 1621.693964 1625.672489 1625.829546 1630.050931 1633.990721
78.640000 1620.082630 1623.875643 1628.083423 1628.214358 1632.722375 1636.656039
78.740000 1622.496457 1626.546433 1630.597264 1630.739398 1635.192231 1639.171381
78.840000 1625.237587 1629.399384 1633.581326 1633.663766 1637.856307 1642.050064
78.940000 1628.495393 1632.529755 1636.625104 1636.687391 1640.857613 1644.330570
79.040000 1633.127252 1636.705254 1640.469779 1640.502205 1644.378370 1648.356867
79.140000 1636.090877 1639.727042 1643.385607 1643.326398 1646.956707 1650.833642
79.240000 1638.899997 1642.395947 1645.942481 1645.780972 1649.197629 1652.774306
79.340000 1641.192102 1644.661064 1648.122936 1647.990129 1651.406326 1654.122108
79.480000 1644.102525 1647.380463 1650.863064 1650.686579 1653.888009 1656.457202
79.580000 1645.947019 1649.220863 1652.767761 1652.576398 1655.791158 1657.992806
79.680000 1648.042643 1651.113193 1654.696660 1654.381591 1657.435347 1659.707033
79.780000 1649.771644 1653.003720 1656.515762 1656.142672 1659.056012 1661.194881
79.880000 1651.441765 1654.950169 1658.309810 1657.896748 1660.632726 1662.707525
79.980000 1653.596222 1656.923323 1660.058196 1659.705630 1662.260880 1664.173036
80.080000 1656.135431 1659.163801 1661.783084 1661.555662 1663.960095 1665.504409
80.180000 1658.703514 1661.485579 1663.608253 1663.447792 1665.578260 1667.220155
80.280000 1661.106828 1663.622237 1665.588433 1665.580839 1667.490475 1669.433130
80.380000 1664.151577 1666.177544 1668.095746 1668.182502 1670.221573 1672.964244
80.480000 1667.184944 1668.865269 1670.908724 1671.188146 1673.499802 1677.166157
80.580000 1669.504178 1671.168472 1673.545672 1673.793184 1676.376342 1679.705143
80.680000 1671.338958 1673.387208 1675.911601 1676.148744 1679.104289 1682.448441
80.780000 1673.097332 1675.247427 1678.155627 1678.324955 1681.275547 1684.301567
80.880000 1674.663475 1677.096762 1680.400504 1680.468159 1683.646880 1686.960440
80.980000 1676.331625 1679.333279 1682.734421 1682.700954 1686.038193 1688.960899
81.080000 1678.494103 1681.666131 1684.909977 1684.943898 1688.449386 1691.473724
81.180000 1680.461519 1683.902341 1687.245953 1687.198359 1690.597147 1693.617996
81.280000 1682.480919 1686.076423 1689.515149 1689.325043 1692.592494 1695.365985
81.380000 1685.043395 1688.433765 1691.899329 1691.666238 1694.795751 1697.237006
81.480000 1687.880295 1691.281786 1694.391463 1694.163014 1697.068247 1699.306877
81.580000 1690.772591 1694.392563 1697.173466 1696.902565 1699.398844 1701.710139
81.680000 1694.661360 1697.763206 1700.042617 1700.007497 1702.376526 1704.595466
81.780000 1697.639438 1700.256479 1702.421703 1702.448447 1704.880366 1706.905713
81.880000 1699.673196 1702.105358 1704.484734 1704.514066 1706.907404 1709.401176
81.980000 1701.927767 1704.203778 1706.476226 1706.572931 1708.941794 1711.503941
82.080000 1703.914036 1706.346785 1708.795817 1708.781118 1711.283155 1713.874565
82.180000 1706.255281 1708.643437 1711.055313 1711.213640 1713.615112 1716.613071
82.280000 1708.927984 1711.278285 1713.588730 1713.791613 1716.310235 1719.739945
82.380000 1711.375612 1713.392434 1715.953741 1716.143797 1718.723510 1721.997242
82.480000 1713.599829 1715.754218 1718.197604 1718.336776 1720.845762 1723.896789
82.580000 1715.422626 1717.801184 1720.335486 1720.446624 1722.930423 1725.946419
82.680000 1717.357676 1719.878320 1722.334973 1722.533812 1725.165738 1728.011479
82.780000 1719.251041 1721.981850 1724.530334 1724.684190 1727.307094 1729.923193
82.880000 1721.517950 1724.019481 1726.535150 1726.701445 1729.359808 1731.923704
82.980000 1723.429381 1725.965995 1728.535094 1728.679638 1731.229336 1734.264333
83.080000 1725.297948 1727.878988 1730.521486 1730.632451 1733.085331 1736.716832
83.180000 1727.239566 1729.757871 1732.392075 1732.583769 1734.981401 1739.028077
83.280000 1729.095336 1731.723395 1734.287398 1734.561333 1737.120355 1741.386897
83.380000 1730.928128 1733.709240 1736.125220 1736.485101 1739.089304 1744.351483
83.480000 1732.925413 1735.616911 1737.944730 1738.410473 1741.098292 1747.700167
83.580000 1734.903132 1737.342091 1739.947905 1740.469791 1743.465385 1750.207515
83.680000 1736.644457 1739.115340 1742.106329 1742.802844 1746.535722 1753.041088
83.780000 1738.405908 1740.932935 1744.391416 1745.142387 1749.639383 1755.843708
83.880000 1740.155103 1742.767078 1746.939488 1747.541532 1752.492826 1758.119469
83.980000 1741.975699 1744.790429 1749.655289 1749.945792 1754.907914 1759.975631
84.080000 1744.308399 1747.442504 1752.237946 1752.501908 1757.286445 1762.705896
84.180000 1746.769570 1750.471380 1754.973450 1755.183280 1759.729136 1764.849309
84.280000 1750.129738 1753.890046 1758.207397 1758.343004 1762.958663 1767.720422
84.380000 1753.686689 1756.993625 1761.210642 1761.374952 1766.086262 1770.078036
84.480000 1756.081252 1759.534202 1763.880866 1764.003406 1768.705921 1772.224089
84.580000 1758.304942 1761.909547 1766.611875 1766.489974 1770.962274 1774.086935
84.680000 1761.083982 1764.729333 1769.384435 1769.044205 1773.107088 1775.746150
84.780000 1763.524428 1767.237861 1771.949154 1771.436616 1775.293055 1777.648409
84.880000 1765.435766 1770.295704 1774.516202 1773.957592 1777.601906 1779.653396
84.980000 1768.159524 1772.839419 1776.557882 1776.180710 1779.534925 1781.574416
85.080000 1770.922272 1775.182968 1778.608178 1778.244345 1781.333536 1783.100032
85.180000 1774.065020 1777.801833 1780.772932 1780.407794 1782.993739 1784.691155
85.280000 1777.029616 1780.376286 1782.802315 1782.570327 1784.854510 1786.635137
85.380000 1780.150955 1782.798474 1784.820144 1784.686270 1786.660559 1788.642757
85.480000 1782.710275 1784.973257 1786.785151 1786.695846 1788.486133 1790.224255
85.580000 1785.253263 1787.035575 1788.730746 1788.716681 1790.437631 1792.077136
85.680000 1787.157006 1788.948307 1790.680824 1790.615654 1792.278874 1793.878447
85.780000 1789.003380 1790.647658 1792.408079 1792.341326 1793.997219 1795.603793
85.880000 1790.571753 1792.281018 1794.104215 1794.056252 1795.730460 1797.490790
85.980000 1791.982358 1793.938447 1795.747962 1795.677087 1797.400552 1799.165770
86.080000 1793.596692 1795.422715 1797.227446 1797.178531 1798.830742 1800.698215
86.180000 1795.497237 1797.111546 1798.902495 1798.829028 1800.396688 1802.128610
86.280000 1797.373702 1798.953700 1800.563999 1800.604541 1802.094411 1804.288061
86.380000 1799.209333 1800.821207 1802.395308 1802.555696 1804.266234 1806.906683
86.480000 1801.056829 1802.685095 1804.157376 1804.534981 1806.475910 1809.692830
86.580000 1802.608751 1804.430854 1806.163191 1806.610798 1808.908220 1812.810314
86.680000 1804.444946 1806.200175 1808.081431 1808.636612 1811.110519 1815.702641
86.780000 1806.022645 1807.994266 1810.189654 1810.741075 1813.320162 1818.783313
86.880000 1807.702982 1809.910104 1812.505950 1812.985746 1816.339620 1820.876629
86.980000 1809.297557 1811.647096 1814.791064 1815.252710 1818.842017 1823.029037
87.080000 1810.770160 1813.822425 1817.587071 1817.660960 1821.464231 1824.904878
87.180000 1813.161073 1816.552050 1820.118841 1820.152071 1823.687195 1827.257233
87.280000 1815.384769 1819.171754 1822.659730 1822.690373 1826.149499 1829.180967
87.380000 1818.946312 1822.225959 1825.393116 1825.348806 1828.289844 1831.222956
87.480000 1821.674385 1824.603983 1827.939193 1827.921094 1830.770600 1833.928401
87.580000 1824.520484 1827.409772 1830.547809 1830.498319 1833.273135 1836.413968
87.680000 1827.128722 1830.470828 1833.487800 1833.526048 1836.467273 1839.753832
87.780000 1830.369085 1833.443157 1836.173757 1836.271771 1839.190046 1842.737612
87.880000 1832.875125 1835.742790 1838.497912 1838.781408 1841.901610 1846.131000
87.980000 1834.542697 1837.850150 1840.796677 1841.153608 1844.564634 1849.270587
88.080000 1836.387437 1839.801405 1843.242410 1843.603613 1847.316911 1851.934617
88.180000 1838.242313 1842.135834 1845.841020 1846.098745 1850.316735 1854.937508
88.280000 1840.271579 1844.215617 1848.485520 1848.628014 1853.147199 1858.176529
88.380000 1842.298029 1846.386303 1851.092489 1851.161713 1855.918868 1860.756763
88.480000 1844.303853 1848.903821 1853.885049 1853.759401 1858.309871 1863.360178
88.580000 1846.644191 1851.760552 1856.807107 1856.649202 1861.324783 1867.036546
88.680000 1848.665953 1854.569985 1859.362530 1859.522466 1864.766014 1870.587505
88.780000 1850.797610 1857.389387 1862.492955 1862.660989 1868.552850 1873.236081
88.880000 1852.969505 1859.630850 1865.910658 1865.670893 1871.819922 1875.234530
88.980000 1855.836092 1862.184369 1870.013213 1868.656611 1874.588762 1877.114133
89.080000 1858.287779 1865.318708 1872.891268 1871.395172 1876.580742 1878.721442
89.180000 1860.777464 1868.964708 1875.449310 1873.971616 1878.279800 1880.526869
89.280000 1863.676639 1872.450639 1877.430700 1876.337061 1880.165845 1882.446791
89.380000 1867.665953 1875.186457 1879.264034 1878.479680 1882.022038 1884.044171
89.480000 1872.005792 1877.524755 1880.948459 1880.422880 1883.574556 1885.285702
89.580000 1875.162342 1879.396581 1882.535194 1882.180896 1885.021117 1887.065596
89.680000 1878.012588 1881.128087 1884.289939 1883.959913 1886.640324 1888.306231
89.780000 1880.418457 1883.101407 1886.079616 1885.745063 1888.292399 1889.831035
89.880000 1882.202034 1884.853131 1887.873183 1887.464367 1889.799420 1891.379903
89.920000 1882.989598 1885.676625 1888.589622 1888.198893 1890.475027 1892.001913
90.020000 1885.067797 1887.624101 1890.338041 1889.953512 1892.038306 1893.645999
90.120000 1886.985566 1889.374451 1891.996374 1891.629179 1893.615894 1895.072051
90.220000 1888.887400 1891.492368 1893.641953 1893.382767 1895.098058 1896.609564
90.320000 1891.071632 1893.615752 1895.368829 1895.223703 1896.793410 1898.131856
90.420000 1893.720855 1895.537131 1897.059381 1896.984633 1898.448702 1899.724335
90.520000 1895.593833 1897.299670 1898.683136 1898.669173 1900.081847 1901.482415
90.620000 1897.577952 1899.204289 1900.410252 1900.475652 1901.884402 1903.442326
90.720000 1899.080171 1900.766402 1902.085906 1902.141200 1903.594662 1905.259407
90.820000 1900.676246 1902.236809 1903.615318 1903.741457 1905.374095 1907.137907
90.920000 1902.391815 1903.790228 1905.190086 1905.356487 1907.063512 1908.957803
91.020000 1903.840450 1905.304532 1906.837859 1907.040021 1908.843906 1911.236170
91.120000 1905.261087 1906.770127 1908.595517 1908.753724 1910.833615 1913.257171
91.220000 1906.834823 1908.430773 1910.517832 1910.684641 1912.944397 1915.286140
91.320000 1908.638410 1910.267759 1912.631069 1912.660678 1915.112497 1917.231746
91.420000 1910.505778 1912.287623 1914.703240 1914.702495 1917.095752 1919.309076
91.520000 1912.285470 1914.387239 1916.965826 1916.906274 1919.299668 1921.578155
91.620000 1914.176863 1916.529767 1919.052552 1918.972452 1921.363100 1923.558874
91.720000 1916.020402 1918.606846 1920.989839 1920.973055 1923.363179 1925.509394
91.820000 1918.257216 1920.699879 1923.131972 1923.056101 1925.366028 1927.379935
91.920000 1920.414639 1922.625166 1925.039223 1925.098189 1927.472343 1929.571089
92.020000 1922.411272 1924.655977 1926.904904 1927.010036 1929.483083 1932.049193
92.120000 1924.413434 1926.727653 1928.974600 1929.067785 1931.561894 1934.155901
92.220000 1926.505621 1928.795948 1931.048585 1931.160391 1933.700864 1936.237822
92.320000 1927.995636 1930.658379 1932.980880 1933.078617 1935.621082 1938.306464
92.420000 1930.357204 1932.640950 1935.025627 1935.097744 1937.594716 1940.177664
92.520000 1932.306738 1934.694868 1937.215129 1937.128864 1939.495936 1941.816482
