depth(m) lower_95(kyr) lower_68(kyr) median(kyr) mean(kyr) upper_68(kyr) upper_95(kyr)
92.600000 1498.007190 1501.485907 1504.485190 1504.172099 1506.880638 1508.576989
92.700000 1500.734815 1503.807651 1506.496164 1506.173360 1508.423431 1510.386219
92.800000 1503.157798 1506.164455 1508.488214 1508.331197 1510.518633 1512.818089
92.900000 1506.043640 1508.485784 1510.454346 1510.539319 1512.703213 1515.743570
93.000000 1508.331026 1510.240703 1512.193234 1512.414455 1514.650193 1517.739406
93.100000 1509.668619 1511.625099 1513.789660 1514.040606 1516.474906 1519.528261
93.200000 1511.328357 1513.136277 1515.586530 1515.689143 1518.342646 1520.912317
93.300000 1512.741293 1514.722538 1517.207460 1517.335430 1519.952728 1522.644330
93.400000 1513.889337 1516.252624 1518.948716 1518.984392 1521.724476 1524.232719
93.500000 1515.209928 1517.871742 1520.674891 1520.651708 1523.500391 1526.150567
93.600000 1516.728914 1519.462101 1522.295256 1522.299048 1525.156883 1527.718816
93.700000 1518.402748 1521.310606 1523.880444 1523.984786 1526.812685 1529.541724
93.800000 1520.443400 1523.224547 1525.799694 1525.758794 1528.306919 1531.136243
93.900000 1522.569316 1525.391901 1527.659834 1527.742512 1530.108998 1532.979159
94.000000 1524.789033 1527.436377 1529.705264 1529.772209 1532.315983 1534.860511
94.100000 1527.380837 1529.445302 1531.658126 1531.771769 1534.409517 1536.776315
94.200000 1528.735968 1530.815592 1533.316911 1533.423264 1536.118965 1538.847323
94.300000 1530.430321 1532.285599 1534.883231 1535.024860 1537.651367 1540.648368
94.400000 1531.822220 1533.871836 1536.514221 1536.575731 1539.216552 1542.034661
94.500000 1533.066264 1535.440163 1538.082287 1538.100282 1540.749711 1543.341006
94.600000 1534.590192 1537.023367 1539.714376 1539.771860 1542.445621 1545.459839
94.700000 1536.187159 1538.708060 1541.432099 1541.447323 1544.224456 1547.194174
94.800000 1537.856012 1540.271902 1542.971915 1543.057588 1545.809412 1548.831653
94.900000 1539.802512 1542.103430 1544.881132 1544.974665 1547.758005 1550.767436
95.000000 1541.826582 1544.102572 1546.935621 1546.995951 1549.890715 1553.048808
95.100000 1543.352300 1545.751377 1548.582665 1548.704651 1551.592084 1554.472242
95.200000 1544.863408 1547.305075 1550.096086 1550.269607 1553.294075 1555.898757
95.300000 1546.108155 1548.739500 1551.744225 1551.758578 1554.809812 1557.266423
95.400000 1547.443368 1550.029652 1553.306877 1553.225164 1556.277021 1558.734661
95.500000 1548.883346 1551.522552 1554.741872 1554.628685 1557.646609 1559.969028
95.600000 1550.138756 1553.055461 1556.215033 1556.048247 1558.890400 1561.232316
95.700000 1551.417676 1554.448241 1557.695248 1557.402922 1560.163287 1562.568355
95.800000 1552.794769 1555.825190 1559.071797 1558.719610 1561.331078 1563.678702
95.900000 1554.065348 1557.158574 1560.386663 1560.029337 1562.614974 1564.840148
96.000000 1555.796399 1558.577899 1561.660156 1561.300607 1563.830716 1565.898024
96.100000 1557.173103 1559.959874 1562.888353 1562.570327 1565.039692 1567.069855
96.200000 1558.418534 1561.185755 1564.099288 1563.826473 1566.270918 1568.366955
96.300000 1559.899506 1562.567948 1565.410924 1565.166979 1567.478815 1569.665055
96.400000 1561.597127 1564.089950 1566.793837 1566.604892 1568.952153 1570.928900
96.500000 1563.616575 1565.789914 1568.197420 1568.140911 1570.433057 1572.558576
96.600000 1565.296026 1567.674723 1569.912957 1569.948499 1572.197057 1574.313835
96.700000 1567.619000 1569.967867 1572.086489 1572.100523 1574.415331 1576.178715
96.800000 1570.473129 1572.290226 1574.416912 1574.369233 1576.376191 1578.017171
96.900000 1572.492639 1574.567760 1576.673787 1576.632585 1578.647456 1580.574686
97.000000 1574.678453 1577.134811 1579.342194 1579.419076 1581.714060 1584.160256
97.100000 1577.537656 1580.182696 1582.324887 1582.275228 1584.402350 1586.439741
97.200000 1581.575009 1583.092932 1584.900000 1584.870035 1586.590983 1588.300861
97.300000 1583.137071 1584.899419 1586.610088 1586.642897 1588.450388 1590.309015
97.400000 1584.669122 1586.386976 1588.080539 1588.161663 1589.967637 1591.826709
97.500000 1585.820936 1587.758174 1589.600326 1589.584337 1591.440295 1593.153528
97.600000 1587.061746 1589.079849 1590.984821 1590.953260 1592.785912 1594.546580
97.700000 1588.355488 1590.271509 1592.294115 1592.235721 1594.128770 1595.977470
97.800000 1589.681938 1591.627004 1593.612152 1593.565632 1595.412438 1597.625651
97.900000 1590.860859 1592.918889 1595.066801 1594.988428 1596.860492 1599.401985
98.000000 1592.377022 1594.340963 1596.428163 1596.455943 1598.307841 1601.450579
98.100000 1593.726823 1595.811306 1597.682487 1597.886907 1599.977837 1603.035481
98.200000 1595.340194 1597.343421 1599.242009 1599.457898 1601.747476 1604.609794
98.300000 1596.865510 1598.805602 1600.820792 1601.054667 1603.469318 1606.135286
98.400000 1598.227703 1600.143190 1602.370999 1602.659817 1605.291394 1607.913530
98.500000 1599.757989 1601.579589 1603.997719 1604.288271 1607.013457 1610.391070
98.600000 1601.239721 1603.034734 1605.715340 1605.939696 1608.875219 1612.196771
98.700000 1602.514715 1604.606640 1607.204541 1607.489706 1610.432564 1614.055008
98.800000 1603.874050 1606.102947 1608.553484 1608.977777 1611.900666 1615.976458
98.900000 1605.294983 1607.436891 1610.006936 1610.464403 1613.543339 1617.657118
99.000000 1606.783206 1608.820428 1611.521516 1611.969147 1615.152550 1619.925278
99.100000 1607.981454 1610.090539 1612.815622 1613.397579 1616.882645 1621.455571
99.200000 1609.361272 1611.342918 1614.307204 1614.826884 1618.487633 1623.114417
99.300000 1610.753292 1612.574827 1615.745331 1616.300484 1620.207116 1624.740584
99.400000 1611.838922 1613.863177 1617.516401 1617.848796 1621.703281 1625.871217
99.500000 1613.223808 1615.282529 1619.287002 1619.389027 1623.496885 1627.182627
99.600000 1614.439605 1616.694913 1621.151074 1621.006120 1625.056120 1628.308560
99.700000 1615.857302 1618.269332 1623.046220 1622.753407 1626.753916 1629.826388
99.800000 1617.346828 1619.997336 1624.868573 1624.579328 1628.707091 1631.585794
99.900000 1618.827602 1621.915980 1627.108506 1626.674072 1630.824330 1633.439360
100.000000 1620.353901 1624.175693 1629.173776 1628.643994 1632.687699 1635.560489
100.142857 1622.384895 1626.742781 1631.548799 1631.106771 1635.159895 1638.405716
100.285714 1624.282744 1629.323821 1633.736833 1633.551595 1637.545250 1641.761112
100.428571 1626.107717 1631.949658 1636.121596 1635.970751 1639.659012 1646.119013
100.571429 1628.485709 1634.529270 1638.269167 1638.332017 1641.716321 1650.390038
100.714286 1631.331976 1636.999837 1640.462207 1640.747226 1643.759901 1655.355317
100.857143 1635.353485 1639.525884 1642.767640 1643.128854 1645.670914 1659.373520
101.000000 1637.996855 1642.075745 1645.127570 1645.552603 1647.892544 1662.460491
101.142857 1639.455516 1644.532086 1647.803645 1648.339035 1651.580789 1663.991225
101.285714 1640.875057 1646.827247 1650.958276 1651.354935 1655.725423 1665.427502
101.428571 1642.034156 1649.246950 1654.292369 1654.254995 1658.847085 1667.180442
101.571429 1643.435315 1652.183159 1657.559375 1657.119988 1661.659423 1668.637536
101.714286 1644.397445 1655.723767 1660.486189 1659.960746 1664.460525 1670.228537
101.857143 1645.914904 1659.476930 1663.330053 1662.764599 1666.667262 1671.974730
102.000000 1647.549440 1663.495509 1666.116783 1665.555260 1668.823641 1673.712474
102.142857 1650.444717 1665.532390 1668.403435 1668.037211 1671.417043 1676.209825
102.285714 1654.045115 1667.544433 1670.832231 1670.433730 1673.880546 1678.682774
102.428571 1657.719510 1669.504667 1672.981240 1672.685212 1676.166746 1680.691055
102.571429 1663.367189 1671.460418 1675.030140 1674.925236 1678.292490 1683.016496
102.714286 1668.582855 1673.688064 1677.190131 1677.255133 1680.338232 1684.515694
102.857143 1672.477651 1676.169212 1679.431673 1679.636535 1682.568428 1686.730919
103.000000 1675.317155 1678.747183 1681.722256 1681.936810 1684.637283 1689.052340
103.142857 1677.573689 1680.934501 1683.944499 1684.361022 1687.323654 1691.774654
103.285714 1679.905195 1683.276408 1686.275072 1686.788385 1689.866292 1694.505948
103.428571 1682.033384 1685.517704 1688.684510 1689.221168 1692.377825 1697.761022
103.571429 1684.477073 1687.757775 1690.967178 1691.603262 1694.588352 1701.785851
103.714286 1687.277509 1690.147314 1693.274908 1694.067758 1697.066705 1704.287559
103.857143 1690.130468 1692.779115 1695.617075 1696.569735 1699.480740 1708.891164
104.000000 1692.237737 1695.147606 1698.022976 1699.012481 1702.235127 1710.941467
104.142857 1693.801662 1696.810058 1700.050466 1701.371912 1705.465649 1715.895382
104.285714 1695.398684 1698.651755 1702.115543 1703.727182 1708.945226 1719.348228
104.428571 1696.932363 1700.345422 1704.112543 1706.097376 1712.895531 1724.304907
104.571429 1698.529599 1701.993815 1706.270345 1708.533705 1716.184872 1727.775250
104.714286 1700.181652 1703.813111 1708.311749 1710.950678 1720.528872 1731.154953
104.857143 1701.530426 1705.936015 1710.305271 1713.350079 1723.834970 1733.406059
105.000000 1702.808791 1708.142269 1712.701028 1715.921072 1727.437399 1735.462258
105.142857 1704.245874 1710.446466 1716.123489 1718.789516 1730.156851 1738.079485
105.285714 1705.525047 1712.703260 1719.809488 1721.714793 1732.514835 1741.186019
105.428571 1706.952913 1715.440253 1724.030654 1724.726659 1734.990009 1742.981123
105.571429 1708.390603 1718.899969 1727.490397 1727.844321 1737.466522 1745.518935
105.714286 1710.363137 1722.521311 1731.152674 1730.934544 1740.119410 1747.250694
105.857143 1712.111140 1726.569994 1734.473587 1733.951962 1742.929366 1749.389990
106.000000 1713.349153 1730.267190 1737.599083 1737.008370 1745.600645 1751.526518
106.142857 1715.448519 1733.032016 1740.658209 1739.702655 1747.983579 1752.902466
106.285714 1717.431537 1736.062380 1743.604604 1742.283807 1750.145613 1755.405881
106.428571 1719.139472 1738.950437 1746.189443 1744.823803 1752.448121 1757.400504
106.571429 1721.223516 1741.735118 1748.916191 1747.404353 1754.551225 1759.089816
106.714286 1724.449130 1744.535218 1751.464727 1749.977570 1756.597035 1760.914098
106.857143 1727.540309 1747.869398 1754.023809 1752.526684 1758.698453 1762.672273
107.000000 1730.320072 1751.094095 1756.585879 1755.157440 1760.734246 1764.719699
107.142857 1735.425703 1753.594363 1759.201019 1757.928561 1763.582898 1767.595719
107.285714 1739.976241 1755.980548 1761.928702 1760.777942 1766.406520 1770.658395
107.428571 1746.578831 1758.830698 1764.546722 1763.687186 1769.280752 1772.611976
107.571429 1749.762235 1761.774147 1767.530726 1766.544603 1771.788586 1775.134333
107.714286 1755.315729 1765.157950 1770.575438 1769.511838 1774.370364 1777.641940
107.857143 1758.514134 1768.059048 1773.613418 1772.430405 1776.687714 1779.695824
108.000000 1761.845234 1771.435075 1776.252309 1775.151407 1778.751113 1781.396363
108.142857 1765.344334 1774.235352 1778.555965 1777.830052 1781.795653 1784.834464
108.285714 1768.549362 1776.731683 1780.839372 1780.395211 1784.338253 1788.400505
108.428571 1771.079851 1779.207162 1783.102449 1782.869707 1786.908305 1791.490381
108.571429 1774.909902 1781.651241 1785.413671 1785.320874 1789.331768 1793.387147
108.714286 1778.247293 1784.118850 1787.759399 1787.733628 1791.506594 1796.034763
108.857143 1782.235489 1786.609720 1790.165146 1790.169320 1793.746000 1798.104789
109.000000 1785.737697 1789.034218 1792.548263 1792.510632 1795.835681 1800.021141
109.142857 1787.571117 1791.061040 1794.593750 1794.543850 1797.893349 1801.889558
109.285714 1789.527183 1793.113508 1796.444308 1796.519556 1800.010282 1803.547731
109.428571 1791.402524 1795.029064 1798.298052 1798.410453 1801.768365 1805.612877
109.571429 1793.504984 1796.926733 1800.362728 1800.333914 1803.716732 1807.727611
109.714286 1795.511832 1798.910041 1802.119576 1802.166153 1805.527774 1809.413474
109.857143 1797.954050 1800.796678 1803.916670 1804.028548 1807.189701 1811.156251
110.000000 1799.659073 1802.778047 1805.785304 1805.943299 1809.107135 1813.397391
110.142857 1801.172373 1804.617798 1807.845728 1808.050076 1811.540619 1816.107850
110.285714 1802.851426 1806.463378 1810.069039 1810.293673 1814.094800 1818.437373
110.428571 1804.492865 1808.309453 1812.277132 1812.500768 1816.762067 1821.179081
110.571429 1806.124264 1810.078675 1814.672934 1814.713067 1819.143774 1824.075523
110.714286 1807.617547 1812.218674 1816.818143 1816.873103 1821.448072 1826.933664
110.857143 1809.488730 1814.273198 1819.059189 1819.027162 1823.698156 1828.539046
111.000000 1811.537088 1816.546861 1821.371340 1821.176711 1825.812905 1830.372295
111.142857 1813.355660 1818.664880 1823.582501 1823.401776 1828.001403 1832.702369
111.285714 1815.292367 1820.832756 1825.863770 1825.570437 1830.269586 1835.218753
111.428571 1817.232045 1822.935955 1827.950076 1827.684910 1832.193148 1837.271621
111.571429 1819.073129 1825.349811 1829.986605 1829.800805 1834.215356 1838.803375
111.714286 1822.135233 1827.859971 1832.083963 1831.918891 1836.084931 1840.389900
111.857143 1824.660271 1830.256932 1833.949091 1834.005729 1838.151935 1842.315404
112.000000 1827.350184 1832.451773 1836.111323 1836.133207 1839.989542 1844.124021
112.142857 1829.504074 1834.636904 1838.211274 1838.218898 1842.059461 1846.784167
112.285714 1831.663997 1836.485077 1840.313520 1840.295079 1844.364620 1848.735878
112.428571 1833.916777 1838.526444 1842.242321 1842.374285 1846.551069 1850.636695
112.571429 1835.897145 1840.369934 1844.529718 1844.492198 1848.760637 1852.635855
112.714286 1837.609664 1842.251000 1846.696436 1846.490518 1850.921473 1854.837762
112.857143 1839.918388 1844.250539 1848.664392 1848.457193 1852.810779 1856.323635
113.000000 1842.086233 1845.968006 1850.808075 1850.390628 1854.489637 1857.976628
113.142857 1843.545880 1847.502398 1852.514693 1852.167518 1856.504933 1859.488309
113.285714 1844.860398 1848.948834 1854.276627 1853.893671 1858.313300 1861.178304
113.428571 1845.930108 1850.381764 1856.058031 1855.504946 1860.062556 1862.782217
113.571429 1847.378047 1851.963690 1857.791890 1857.119302 1861.702027 1864.080032
113.714286 1848.440957 1853.598386 1859.362789 1858.676185 1863.161931 1865.498876
113.857143 1849.674977 1855.378696 1861.078431 1860.259357 1864.625885 1866.914270
114.000000 1851.108275 1857.305779 1862.709950 1861.836024 1866.095561 1868.216666
114.142857 1852.419932 1858.638605 1864.233362 1863.244056 1867.355773 1869.710209
114.285714 1854.036844 1859.998779 1865.653267 1864.597743 1868.513844 1870.920373
114.428571 1855.378409 1861.324274 1867.094711 1865.992247 1869.758171 1871.934817
114.571429 1856.591442 1863.254064 1868.547272 1867.387493 1870.983457 1873.012271
114.714286 1858.127770 1864.893152 1869.849065 1868.777146 1872.224241 1874.110223
114.857143 1859.969108 1866.666059 1871.198897 1870.186729 1873.413482 1875.082981
115.000000 1861.681787 1868.405541 1872.568009 1871.584042 1874.637679 1876.164217
115.142857 1863.393246 1870.208959 1874.134316 1873.197054 1876.154830 1877.721949
115.285714 1865.342692 1871.978252 1875.703274 1874.865994 1877.601556 1879.340418
115.428571 1868.009227 1874.162436 1877.261955 1876.574113 1879.170644 1880.785203
115.571429 1871.627125 1876.094628 1878.799370 1878.341219 1880.610193 1882.138166
115.714286 1874.608052 1878.187331 1880.288431 1880.040873 1882.068257 1883.663876
115.857143 1877.431013 1880.192824 1881.763076 1881.693306 1883.362551 1885.030034
116.000000 1880.389188 1881.861520 1883.243565 1883.251789 1884.703508 1886.269906
116.142857 1881.525832 1883.118831 1884.528328 1884.541588 1886.061299 1887.689050
116.285714 1882.770752 1884.208480 1885.747648 1885.739001 1887.329977 1888.666819
116.428571 1883.958787 1885.394675 1886.894122 1886.933557 1888.488351 1890.163500
116.571429 1885.204132 1886.575648 1888.094747 1888.144719 1889.747922 1891.620941
116.714286 1886.309325 1887.760251 1889.260668 1889.326168 1890.940217 1892.665472
116.857143 1887.472928 1888.958489 1890.485036 1890.536424 1892.131335 1893.778368
117.000000 1888.766297 1890.136158 1891.709971 1891.743458 1893.328683 1894.939271
117.142857 1889.632291 1891.340101 1892.965472 1893.004992 1894.643245 1896.249448
117.285714 1890.894821 1892.594336 1894.248395 1894.280268 1895.975756 1897.572349
117.428571 1892.102408 1893.866350 1895.555349 1895.598423 1897.324118 1899.153536
117.571429 1893.512285 1895.251011 1896.881721 1896.931521 1898.706883 1900.467528
117.714286 1894.954515 1896.565198 1898.192945 1898.242469 1900.044480 1901.590884
117.857143 1896.193067 1897.940539 1899.566333 1899.581406 1901.256916 1902.789733
118.000000 1897.946255 1899.266273 1900.902753 1900.924864 1902.553357 1903.927559
118.142857 1898.993903 1900.439381 1902.094842 1902.130371 1903.833739 1905.280065
118.285714 1900.219139 1901.611996 1903.317761 1903.332407 1905.019823 1906.548978
118.428571 1901.280444 1902.789465 1904.515691 1904.512720 1906.209630 1907.669109
118.571429 1902.424509 1903.951446 1905.729035 1905.690979 1907.334442 1909.092500
118.714286 1903.611019 1905.111422 1906.985420 1906.912878 1908.596372 1910.250671
118.857143 1905.018814 1906.419995 1908.192665 1908.169292 1909.907991 1911.412577
119.000000 1906.280038 1907.959558 1909.641363 1909.606414 1911.202705 1912.801739
119.142857 1907.741290 1909.630330 1911.716824 1911.889112 1914.029488 1917.275789
119.285714 1909.330474 1911.343881 1913.833590 1914.318748 1917.461557 1921.080683
119.428571 1910.849328 1913.510019 1916.744455 1916.983857 1920.622707 1923.977293
119.571429 1913.124622 1915.947980 1919.685149 1919.723580 1923.509482 1926.271468
119.714286 1915.485233 1918.624240 1922.745491 1922.424700 1926.017495 1928.531574
119.857143 1917.532797 1921.787276 1925.362678 1924.935405 1928.243691 1930.206912
120.000000 1919.362874 1924.571665 1927.772357 1927.269051 1930.047714 1931.793558
120.142857 1920.804798 1926.056586 1929.269137 1928.776026 1931.469829 1933.582156
120.285714 1922.632544 1927.477002 1930.682462 1930.191228 1932.846159 1934.926861
120.428571 1924.350914 1929.006114 1932.018039 1931.575483 1934.217741 1936.165854
120.571429 1925.762656 1930.415020 1933.368714 1932.960194 1935.542946 1937.470546
120.714286 1927.892113 1931.881049 1934.684408 1934.356253 1936.818683 1938.719960
120.857143 1929.730971 1933.369732 1936.012226 1935.720570 1938.178707 1939.984879
121.000000 1931.254649 1934.978759 1937.487983 1937.183919 1939.552895 1941.276278
121.142857 1933.199628 1936.491346 1939.127603 1938.925803 1941.326367 1943.483389
121.285714 1934.922956 1938.229455 1940.926165 1940.746519 1943.293172 1945.937378
121.428571 1936.691750 1940.006551 1942.703656 1942.585444 1945.263859 1947.807850
121.571429 1939.137444 1941.829525 1944.535092 1944.479106 1947.095871 1949.742609
121.714286 1941.276528 1943.973418 1946.459341 1946.364329 1948.847029 1951.368467
121.857143 1943.702929 1945.950394 1948.414889 1948.311268 1950.672975 1952.804499
122.000000 1946.312489 1947.849628 1950.255339 1950.226647 1952.509980 1954.546356
122.142857 1947.601968 1949.718434 1952.209162 1952.207922 1954.553404 1957.065441
122.285714 1949.423102 1951.554002 1954.067668 1954.215905 1956.838253 1959.778340
122.428571 1950.962383 1953.401474 1956.097164 1956.242621 1959.132954 1961.976784
122.571429 1952.732144 1955.247669 1958.184166 1958.224271 1961.260558 1964.149545
122.714286 1954.410265 1957.113874 1960.293947 1960.272377 1963.208867 1966.379494
122.857143 1956.573291 1959.456246 1962.372893 1962.393630 1965.222232 1968.368122
123.000000 1958.594087 1961.532895 1964.546874 1964.512870 1967.523658 1970.404101
123.142857 1960.348738 1963.543029 1966.947814 1966.965079 1970.205404 1973.705916
123.285714 1963.003013 1965.889037 1969.407498 1969.453412 1972.729819 1976.585916
123.428571 1964.918567 1968.052770 1971.960227 1971.940328 1975.623432 1979.050225
123.571429 1967.355182 1970.691149 1974.476052 1974.427246 1978.107837 1981.717238
