depth(m) lower_95(kyr) lower_68(kyr) median(kyr) mean(kyr) upper_68(kyr) upper_95(kyr)
41.355000 1488.565496 1492.953138 1497.039399 1496.681540 1500.325470 1502.544980
41.395000 1491.349530 1495.269508 1498.982823 1498.647177 1501.825967 1503.998783
41.435000 1493.669967 1497.805418 1501.073254 1500.644537 1503.485239 1505.363918
41.475000 1496.370973 1500.404760 1503.151272 1502.887916 1505.575290 1507.185288
41.515000 1499.850159 1503.298061 1505.742261 1505.526794 1507.857417 1509.368198
41.555000 1503.539958 1506.054439 1508.206433 1508.189337 1510.184499 1513.120702
41.595000 1506.456191 1508.796894 1510.674167 1510.900729 1513.189567 1516.118895
41.635000 1509.101410 1510.835286 1513.005067 1513.242314 1515.688050 1518.772770
41.675000 1510.853699 1512.684551 1515.055141 1515.325850 1517.977853 1520.684669
41.715000 1512.566258 1514.528772 1517.119948 1517.326893 1520.225406 1522.578675
41.755000 1514.339624 1516.408697 1519.316927 1519.317542 1522.236180 1524.308920
41.795000 1516.045564 1518.469931 1521.265268 1521.282944 1524.071180 1526.211789
41.835000 1518.315435 1520.862921 1523.736208 1523.464201 1525.888862 1527.824464
41.875000 1521.109053 1523.583740 1526.032343 1525.856629 1527.943267 1529.784037
41.915000 1524.080543 1526.426999 1528.310523 1528.194974 1530.007704 1531.758148
41.955000 1526.258717 1528.265454 1529.958154 1529.920053 1531.523435 1533.404391
41.995000 1528.221339 1529.907694 1531.476379 1531.500345 1533.060046 1534.869957
42.035000 1529.724673 1531.276353 1532.910323 1532.922251 1534.634449 1536.169396
42.075000 1531.053115 1532.509119 1534.164964 1534.179682 1535.787609 1537.304467
42.115000 1532.299093 1533.842679 1535.445721 1535.441371 1537.021393 1538.537621
42.155000 1533.441097 1535.051769 1536.638406 1536.659137 1538.226199 1539.793538
42.195000 1534.879129 1536.387111 1537.947626 1537.894015 1539.393945 1541.008168
42.235000 1535.937917 1537.627865 1539.240160 1539.189100 1540.743251 1542.384673
42.275000 1537.262726 1538.950463 1540.535743 1540.510531 1542.108270 1543.644113
42.315000 1538.736563 1540.404633 1541.958230 1541.973490 1543.629224 1545.153588
42.355000 1540.173076 1541.855209 1543.476044 1543.571567 1545.418848 1547.197005
42.395000 1541.627983 1543.371183 1545.024065 1545.218326 1547.230136 1549.322478
42.435000 1543.195570 1544.844629 1546.625494 1546.834078 1549.000937 1551.173523
42.475000 1544.488465 1546.125952 1548.065297 1548.307497 1550.640646 1552.963182
42.515000 1545.789446 1547.407132 1549.571951 1549.771966 1552.150007 1554.482803
42.555000 1547.037182 1548.828073 1551.184227 1551.290908 1553.795745 1556.135545
42.595000 1548.588785 1550.338793 1552.761114 1552.882307 1555.551941 1557.704320
42.635000 1549.984140 1552.063058 1554.461421 1554.521984 1557.074576 1559.323195
42.675000 1551.855235 1553.954419 1556.410954 1556.427382 1558.931698 1560.953624
42.715000 1553.492724 1555.658078 1558.340053 1558.272010 1560.838870 1562.781648
42.755000 1555.018090 1557.498195 1560.412319 1560.095548 1562.493368 1564.295397
42.795000 1556.730835 1559.290329 1562.020204 1561.821044 1564.154412 1565.786563
42.835000 1558.736470 1561.237397 1563.880316 1563.614150 1565.762454 1567.372739
42.875000 1560.643672 1563.194356 1565.677028 1565.374186 1567.379478 1568.776253
42.915000 1562.789571 1565.059269 1567.187947 1566.985056 1568.804731 1570.117817
42.955000 1565.233184 1567.130342 1568.781878 1568.692299 1570.299000 1571.614254
42.995000 1566.998461 1568.815213 1570.278180 1570.230095 1571.678948 1572.957451
43.035000 1569.047267 1570.353359 1571.742911 1571.708677 1573.134509 1574.453889
43.075000 1570.381725 1571.688841 1573.087447 1573.059531 1574.418238 1575.652041
43.115000 1571.593817 1573.049050 1574.350539 1574.356108 1575.691720 1577.028687
43.155000 1572.912136 1574.374378 1575.648973 1575.637858 1576.911048 1578.215205
43.195000 1574.326618 1575.621837 1576.945131 1576.932429 1578.193953 1579.580898
43.235000 1575.699155 1576.982020 1578.253962 1578.310277 1579.633824 1581.166582
43.275000 1577.076029 1578.467971 1579.710982 1579.829014 1581.185496 1583.276154
43.315000 1578.805801 1579.997567 1581.455165 1581.631049 1583.166313 1586.045006
43.355000 1580.484510 1581.819993 1583.522373 1583.871166 1586.135679 1589.067370
43.395000 1581.808661 1583.510697 1585.666709 1585.962979 1588.583165 1591.601398
43.435000 1583.573064 1585.147597 1588.001143 1588.047219 1590.705577 1593.606091
43.475000 1585.089673 1587.253666 1590.266086 1590.226968 1592.931186 1595.544403
43.515000 1586.662913 1589.403003 1592.517789 1592.295424 1594.940583 1597.265913
43.555000 1588.656403 1591.920454 1594.825522 1594.562218 1596.979474 1599.297592
43.595000 1591.449446 1594.486995 1597.179190 1596.891758 1599.246005 1601.260579
43.635000 1593.840604 1596.721325 1599.030794 1598.931810 1601.180831 1603.086736
43.675000 1596.136637 1598.566352 1600.682385 1600.670821 1602.722039 1605.418465
43.715000 1598.235278 1600.159022 1602.261688 1602.271281 1604.337528 1606.952554
43.755000 1599.984359 1601.788301 1603.808797 1603.896504 1606.032004 1608.485277
43.795000 1601.418204 1603.400954 1605.384947 1605.538647 1607.698801 1610.028891
43.835000 1603.148536 1605.178622 1607.394103 1607.586204 1610.045012 1613.111789
43.875000 1605.304646 1607.190263 1609.761226 1610.073574 1613.061122 1616.330080
43.915000 1606.995380 1609.101391 1612.129901 1612.313194 1615.388408 1619.007680
43.955000 1608.365806 1610.952531 1614.320015 1614.512224 1617.957026 1622.073575
43.995000 1610.080596 1613.147814 1616.422229 1616.651113 1620.226384 1624.436741
44.035000 1612.012656 1615.467679 1618.737417 1618.843971 1622.515487 1626.394418
44.075000 1613.922326 1617.548206 1620.740695 1620.870611 1624.446804 1627.872974
44.115000 1615.547218 1619.476457 1622.674420 1622.796415 1626.445488 1629.721236
44.155000 1617.694012 1621.246948 1624.753605 1624.701575 1628.221998 1631.630517
44.195000 1619.591535 1623.219541 1626.771927 1626.621804 1629.898647 1633.308912
44.235000 1621.793960 1625.175380 1628.796782 1628.645486 1631.825041 1635.402244
44.275000 1624.072845 1627.332801 1630.921265 1630.671774 1633.787858 1637.023762
44.315000 1626.137979 1629.658713 1632.757104 1632.666577 1635.686666 1639.397002
44.355000 1628.707570 1631.751601 1634.591159 1634.636107 1637.571149 1641.150463
44.395000 1631.261062 1633.766823 1636.607369 1636.787067 1639.702377 1643.553419
44.435000 1633.389655 1636.221344 1639.123989 1639.397494 1642.846619 1646.413916
44.475000 1636.273329 1639.059827 1642.289109 1642.540894 1646.363904 1649.321966
44.515000 1639.182929 1642.288763 1646.155468 1646.085350 1649.808785 1652.603320
44.555000 1641.729888 1645.345580 1649.427675 1649.155483 1652.772456 1655.868597
44.595000 1643.837368 1647.820228 1651.790798 1651.523914 1655.182917 1658.021066
44.635000 1645.371712 1649.846709 1653.869211 1653.694939 1657.497447 1660.752730
44.675000 1647.047102 1651.899845 1655.890322 1655.804023 1659.707349 1663.514475
