depth(m) lower_95(kyr) lower_68(kyr) median(kyr) mean(kyr) upper_68(kyr) upper_95(kyr)
41.355000 1495.735463 1498.709851 1501.206657 1500.984716 1503.228374 1504.766083
41.395000 1498.205077 1500.678386 1502.758457 1502.588635 1504.557777 1505.852745
41.435000 1500.231624 1502.547756 1504.168130 1504.105338 1505.796977 1507.161985
41.475000 1502.227055 1504.194196 1505.862134 1505.708155 1507.234554 1508.471559
41.515000 1504.497433 1506.204096 1507.707721 1507.647002 1509.093764 1510.408620
41.555000 1506.664170 1508.234709 1509.696749 1509.772873 1511.271214 1513.294815
41.595000 1508.873492 1510.363255 1512.112567 1512.299419 1514.295502 1516.950818
41.635000 1510.592888 1512.326667 1514.513051 1514.687794 1516.926501 1520.049467
41.675000 1512.370266 1514.466927 1517.103286 1517.123496 1519.610768 1522.202815
41.715000 1514.268393 1516.803382 1519.462044 1519.496355 1522.221060 1524.876879
41.755000 1515.823131 1518.767078 1521.936573 1521.747256 1524.696005 1526.831191
41.795000 1517.961756 1521.175944 1523.946932 1523.782397 1526.572503 1528.216040
41.835000 1520.455197 1523.819901 1526.357102 1526.112666 1528.522813 1529.812501
41.875000 1524.471114 1527.068713 1529.028054 1528.765559 1530.518668 1531.544420
41.915000 1527.852883 1529.568169 1531.032793 1530.869584 1532.104837 1533.013057
41.955000 1529.773007 1531.294222 1532.470676 1532.361584 1533.404338 1534.359868
41.995000 1531.628044 1532.793204 1533.808057 1533.764031 1534.712060 1535.664959
42.035000 1532.786778 1534.040993 1535.027570 1534.982585 1535.917603 1536.855865
42.075000 1533.697582 1535.049743 1536.123938 1536.042350 1537.017419 1537.864638
42.115000 1534.751173 1536.138109 1537.214153 1537.110737 1538.074145 1538.952253
42.155000 1535.824225 1537.268862 1538.283202 1538.202331 1539.115386 1540.046513
42.195000 1537.072845 1538.441457 1539.408745 1539.330960 1540.201932 1541.103967
42.235000 1538.435663 1539.709157 1540.541411 1540.511811 1541.347692 1542.170823
42.275000 1539.907840 1541.030692 1541.750810 1541.732805 1542.493703 1543.335986
42.315000 1541.491037 1542.291481 1543.005219 1543.049322 1543.804568 1544.826736
42.355000 1542.815720 1543.593649 1544.397177 1544.477753 1545.312039 1546.716700
42.395000 1544.055496 1544.853928 1545.819742 1545.944076 1547.004451 1548.822638
42.435000 1545.151337 1546.094283 1547.184985 1547.428197 1548.926526 1550.816286
42.475000 1546.275342 1547.289321 1548.572975 1548.838802 1550.550114 1552.512288
42.515000 1547.553969 1548.532903 1550.036186 1550.259451 1552.072933 1554.065180
42.555000 1548.657386 1549.815138 1551.471617 1551.704521 1553.682589 1555.624213
42.595000 1549.791382 1551.263853 1553.013631 1553.179988 1555.138947 1557.089328
42.635000 1551.119786 1552.734066 1554.754783 1554.734361 1556.566871 1558.667864
42.675000 1552.626474 1554.492523 1556.549088 1556.583662 1558.614613 1561.058270
42.715000 1554.046955 1556.084154 1558.305118 1558.377625 1560.666834 1563.115700
42.755000 1556.117806 1558.065622 1560.465135 1560.491728 1562.992033 1565.179367
42.795000 1557.785013 1559.748226 1562.584953 1562.478171 1565.136440 1566.871849
42.835000 1559.347179 1561.801572 1564.695927 1564.378024 1566.790813 1568.012663
42.875000 1561.165955 1564.126980 1566.749871 1566.282609 1568.366382 1569.347345
42.915000 1563.213840 1566.314377 1568.251335 1567.926807 1569.574832 1570.539575
42.955000 1567.230321 1568.854245 1569.955822 1569.852192 1570.910694 1571.820589
42.995000 1569.265977 1570.342370 1571.300053 1571.247267 1572.165831 1572.983607
43.035000 1570.685642 1571.679366 1572.579433 1572.566763 1573.454508 1574.427934
43.075000 1571.945039 1572.889833 1573.815376 1573.785330 1574.673048 1575.656461
43.115000 1573.152336 1574.105180 1574.977046 1574.989311 1575.878468 1576.913607
43.155000 1574.395783 1575.267272 1576.129921 1576.166977 1577.029201 1578.118110
43.195000 1575.486395 1576.462548 1577.321060 1577.376966 1578.282415 1579.505696
43.235000 1576.556178 1577.675596 1578.597755 1578.673557 1579.657570 1581.087859
43.275000 1578.064456 1579.034493 1580.115397 1580.221364 1581.435480 1582.909911
43.315000 1579.523165 1580.714428 1581.995859 1582.105581 1583.505554 1585.468873
43.355000 1581.510807 1582.861614 1584.468746 1584.686389 1586.468554 1589.179395
43.395000 1583.255510 1584.767339 1586.614077 1586.922031 1588.973011 1592.287500
43.435000 1584.855590 1586.523223 1588.947544 1589.101399 1591.734917 1594.117095
43.475000 1586.543230 1588.483682 1591.387777 1591.225146 1593.712543 1595.753732
43.515000 1588.315899 1591.287114 1593.855431 1593.482459 1595.552784 1597.183982
43.555000 1589.873298 1593.967191 1595.947828 1595.665689 1597.484430 1598.912767
43.595000 1593.050696 1596.777658 1598.159231 1597.997389 1599.536102 1600.829023
43.635000 1596.756212 1598.519117 1599.867927 1599.804052 1601.191503 1602.643204
43.675000 1598.483960 1599.993265 1601.336254 1601.325438 1602.672926 1604.087507
43.715000 1600.061958 1601.345538 1602.577348 1602.647149 1603.998585 1605.441326
43.755000 1601.334932 1602.627840 1603.857957 1603.929005 1605.242876 1606.569514
43.795000 1602.986461 1604.155157 1605.318663 1605.397167 1606.688372 1607.911617
43.835000 1604.639076 1605.878275 1607.283979 1607.355583 1608.673681 1610.849096
43.875000 1606.853042 1608.841289 1611.195075 1611.352101 1613.871314 1616.317378
43.915000 1608.451149 1611.056676 1614.901422 1614.569415 1617.561022 1620.299636
43.955000 1609.764058 1613.764077 1617.572800 1617.195561 1620.281615 1623.413133
43.995000 1612.047182 1615.883189 1619.358242 1619.344211 1622.795852 1626.459473
44.035000 1615.820157 1618.655516 1621.124878 1621.540266 1624.759052 1628.187314
44.075000 1618.095608 1620.493699 1622.892537 1623.374174 1626.598768 1630.063604
44.115000 1619.888748 1622.075030 1624.722810 1625.129674 1628.597574 1631.523514
44.155000 1621.393586 1623.732512 1626.797112 1626.874861 1630.103985 1632.431834
44.195000 1623.281353 1625.647701 1628.956206 1628.731592 1631.626059 1633.750388
44.235000 1625.205699 1627.838628 1630.871113 1630.566276 1633.103062 1635.211673
44.275000 1627.019583 1630.380059 1632.651008 1632.498994 1634.696412 1636.555920
44.315000 1628.940145 1632.219134 1634.272345 1634.147611 1636.256680 1637.977835
44.355000 1631.607802 1633.928350 1635.902152 1635.792441 1637.675743 1639.551999
44.395000 1633.650522 1635.599404 1637.649994 1637.519537 1639.431054 1641.133637
44.435000 1635.413295 1637.433579 1639.431460 1639.409480 1641.368866 1643.172689
44.475000 1637.798907 1639.959426 1641.892518 1641.929829 1644.006711 1645.957733
44.515000 1640.967353 1642.918080 1645.078491 1645.288689 1647.675815 1650.578929
44.555000 1643.120613 1645.172712 1647.521506 1647.924597 1650.701407 1654.407455
44.595000 1644.920101 1646.905602 1649.628933 1650.102306 1653.559931 1657.641721
44.635000 1646.187841 1648.414309 1651.441334 1651.981908 1655.848601 1660.138790
44.675000 1647.701437 1649.985197 1653.416640 1653.922842 1658.178694 1662.327077
