depth(m) lower_95(kyr) lower_68(kyr) median(kyr) mean(kyr) upper_68(kyr) upper_95(kyr)
14.315000 1495.749888 1499.467420 1502.108808 1501.722076 1504.036726 1505.571903
14.340000 1497.749741 1501.356596 1503.677579 1503.341196 1505.438376 1506.700200
14.365000 1499.610803 1502.915523 1505.150496 1504.895044 1506.872627 1508.457333
14.390000 1501.936247 1504.734478 1506.621067 1506.464703 1508.270145 1510.049633
14.415000 1504.175349 1506.649223 1508.367265 1508.429561 1510.405874 1512.667016
14.440000 1506.238695 1508.239324 1509.935519 1510.210051 1512.262909 1515.272156
14.465000 1508.650505 1510.401744 1512.481813 1512.679513 1514.882348 1517.550947
14.490000 1510.866831 1512.770873 1515.057252 1515.242164 1517.720169 1520.484676
14.540000 1514.260220 1517.597512 1520.158988 1520.068490 1522.523670 1524.820520
14.565000 1516.619360 1519.868759 1522.686860 1522.497018 1525.158752 1527.698947
14.615000 1521.655673 1524.685537 1527.467949 1527.366990 1530.029043 1531.993411
14.640000 1526.968782 1529.470272 1531.578352 1531.268541 1532.909982 1534.063545
14.665000 1530.609993 1532.546880 1533.765613 1533.631827 1534.751800 1535.806935
14.690000 1533.476865 1534.415253 1535.369175 1535.374239 1536.340991 1537.209774
14.715000 1534.949902 1535.817811 1536.713057 1536.698351 1537.636833 1538.432178
14.740000 1536.122204 1536.993615 1537.892290 1537.893508 1538.805748 1539.592109
14.765000 1537.260636 1538.194644 1539.072209 1539.060284 1539.956910 1540.649429
14.790000 1538.391474 1539.414726 1540.293156 1540.255169 1541.163213 1541.860173
14.815000 1539.730894 1540.597045 1541.502051 1541.455631 1542.290803 1543.115110
14.840000 1540.960923 1541.707918 1542.603010 1542.593613 1543.445054 1544.359507
14.865000 1542.093085 1542.887302 1543.799854 1543.809468 1544.729215 1545.682699
14.890000 1543.062548 1544.007838 1544.878408 1544.979402 1545.963536 1547.245685
14.915000 1544.220828 1545.129776 1546.101732 1546.229853 1547.289876 1549.136922
14.940000 1545.240811 1546.258449 1547.371333 1547.515918 1548.647309 1550.864518
14.965000 1546.402729 1547.493253 1548.688424 1548.869956 1550.197286 1552.632458
14.990000 1547.476436 1548.688674 1550.047280 1550.235788 1551.712180 1554.263294
15.015000 1548.566876 1549.945556 1551.422386 1551.627568 1553.346757 1555.650103
15.040000 1549.805392 1551.184445 1552.804983 1553.014384 1554.800127 1557.308623
15.065000 1551.072846 1552.496123 1554.226640 1554.547167 1556.627616 1559.781501
15.090000 1552.333273 1553.877754 1555.712512 1556.187848 1558.535378 1563.035623
15.115000 1553.474020 1555.447389 1557.671512 1558.469139 1561.798686 1566.531743
15.140000 1554.754113 1556.821616 1559.561209 1560.668177 1566.168400 1569.190834
15.165000 1556.371498 1558.395710 1561.810590 1562.855122 1568.863179 1572.154977
15.215000 1561.075832 1564.474964 1567.427693 1567.861119 1571.443931 1575.796237
15.240000 1568.748070 1570.449741 1572.513575 1572.746947 1575.052994 1578.214796
15.265000 1571.575318 1573.233822 1575.384106 1575.602769 1578.165545 1580.519224
15.290000 1573.716937 1575.787321 1578.202221 1578.106948 1580.305318 1582.394345
15.315000 1575.963197 1578.397383 1580.522675 1580.350079 1582.334264 1584.039166
15.340000 1577.750178 1580.143934 1582.205161 1582.133398 1584.022564 1586.104154
15.365000 1580.508717 1582.340956 1584.244152 1584.256153 1586.120213 1588.179229
15.390000 1582.451048 1584.104884 1585.948733 1586.062040 1588.034637 1590.278786
15.415000 1584.529221 1586.178041 1588.036803 1588.124148 1590.118288 1592.054780
15.440000 1586.001582 1587.908055 1589.859728 1589.888210 1591.784925 1593.580779
15.465000 1587.872463 1589.932084 1591.804759 1591.722654 1593.440962 1595.323477
15.490000 1589.505945 1592.081781 1593.841709 1593.697368 1595.278495 1596.763542
15.515000 1591.383855 1593.911160 1595.884194 1595.644143 1597.340111 1598.824099
15.540000 1593.351497 1596.008083 1597.645118 1597.527524 1599.223491 1600.415888
15.565000 1595.723312 1597.784979 1599.386919 1599.326689 1600.922680 1602.053993
15.590000 1598.177151 1599.827937 1601.384019 1601.254240 1602.657491 1603.739229
15.615000 1600.155336 1601.704946 1603.005508 1602.887886 1604.060199 1605.114342
15.640000 1601.838177 1603.311615 1604.419418 1604.334141 1605.372487 1606.372827
15.665000 1603.565104 1604.843437 1605.869952 1605.841063 1606.863536 1607.839241
15.690000 1605.360379 1606.366664 1607.351718 1607.391589 1608.373083 1609.442641
15.715000 1606.830734 1607.787759 1608.794952 1608.888472 1609.896567 1611.530491
15.740000 1608.223055 1609.110306 1610.174645 1610.386478 1611.604607 1613.857167
15.765000 1609.663997 1610.607480 1611.908651 1612.143175 1613.655481 1615.906521
15.790000 1610.851210 1612.020175 1613.698408 1613.874699 1615.600464 1618.193523
15.815000 1612.093749 1613.564095 1615.366655 1615.550423 1617.576455 1620.008390
15.840000 1613.669030 1615.272468 1617.215823 1617.465054 1619.783280 1622.345750
15.865000 1615.206844 1616.878756 1619.053060 1619.270389 1621.800149 1624.112722
15.890000 1616.678263 1618.585535 1620.970576 1621.109694 1623.654218 1626.008907
15.915000 1618.248838 1620.546532 1623.139038 1623.073096 1625.566072 1627.702198
15.940000 1620.181837 1622.816567 1625.209618 1625.101237 1627.222627 1629.339606
15.965000 1622.252947 1624.899896 1627.018706 1626.945842 1628.922264 1631.171184
15.990000 1624.333868 1626.746211 1628.940525 1628.913102 1630.993987 1633.959906
16.015000 1626.171644 1628.533742 1631.035947 1631.134385 1633.697078 1636.865901
16.040000 1627.868676 1630.486488 1633.191705 1633.273691 1636.222940 1638.882818
16.065000 1629.893177 1632.430201 1635.545888 1635.425799 1638.460957 1640.466608
16.095000 1631.873480 1635.424837 1638.441885 1638.061637 1640.597943 1642.386061
16.115000 1633.372989 1637.528571 1640.203587 1639.788353 1642.094332 1643.796880
16.140000 1636.381709 1639.760659 1641.938678 1641.694539 1643.662906 1645.413091
16.165000 1640.047218 1642.208935 1643.891127 1643.874239 1645.544325 1647.546292
16.190000 1642.747452 1644.446968 1645.985302 1646.084314 1647.921075 1649.540833
16.215000 1644.718043 1646.241593 1647.885446 1647.946369 1649.794003 1651.347675
16.240000 1646.269115 1647.764578 1649.509450 1649.543405 1651.295124 1652.757299
16.265000 1647.570767 1649.092319 1650.947372 1650.902248 1652.669401 1654.315881
16.290000 1648.885290 1650.425737 1652.180989 1652.175448 1653.901864 1655.408750
16.315000 1650.025788 1651.645520 1653.514435 1653.413214 1655.091460 1656.643924
16.365000 1652.167241 1653.928864 1655.713485 1655.606330 1657.279975 1658.619056
16.390000 1653.380644 1655.162258 1656.918630 1656.812197 1658.414564 1659.765122
16.415000 1654.803645 1656.428391 1658.194429 1658.078311 1659.688147 1661.058938
16.440000 1656.204980 1657.872570 1659.520301 1659.471190 1661.021658 1662.423200
16.465000 1657.650989 1659.457715 1661.003379 1661.087922 1662.656693 1664.794032
16.490000 1659.469995 1661.327287 1662.964264 1663.155944 1665.012407 1667.983540
16.515000 1661.946977 1663.586896 1665.510887 1665.972401 1668.552308 1672.077489
16.540000 1663.755333 1665.471260 1668.070891 1668.383112 1671.436394 1674.885677
16.565000 1665.300484 1667.253446 1670.185016 1670.402324 1673.509480 1677.520102
16.590000 1666.778242 1668.862791 1672.040141 1672.248920 1675.468167 1679.433235
16.615000 1668.320629 1670.601311 1673.820166 1674.025159 1677.435626 1681.619089
16.640000 1669.806489 1672.547974 1675.786999 1675.969119 1679.416917 1683.423276
16.665000 1671.182192 1674.032152 1677.667599 1677.790043 1681.514295 1685.238944
16.690000 1672.742126 1675.723036 1679.742344 1679.686548 1683.588566 1687.158663
16.715000 1674.458212 1677.573784 1681.587329 1681.618078 1685.437115 1689.172767
16.740000 1676.010342 1679.475174 1683.741696 1683.572009 1687.414617 1690.711135
16.765000 1677.901837 1681.358635 1685.807163 1685.471951 1689.279943 1692.027550
16.790000 1679.417931 1683.337003 1687.879790 1687.461646 1691.231671 1693.859438
16.815000 1681.540584 1685.726712 1689.900938 1689.483302 1693.153595 1695.912556
16.840000 1683.983171 1688.272150 1692.179036 1691.779684 1695.059161 1698.080536
16.865000 1686.874709 1690.995300 1694.684125 1694.357873 1697.533019 1700.721629
16.890000 1689.808038 1693.779986 1697.204585 1697.211248 1700.487513 1703.780010
16.940000 1697.785022 1700.487295 1703.921937 1703.898801 1707.262366 1710.359295
16.965000 1699.979364 1703.231750 1706.879195 1706.765017 1710.068289 1713.321541
17.010000 1706.503573 1710.321763 1713.375580 1713.265459 1716.395750 1718.784001
17.035000 1709.250090 1712.928361 1715.713138 1715.595256 1718.377344 1720.800396
17.060000 1711.395594 1715.050380 1717.865153 1717.588777 1720.154781 1722.348087
17.087500 1713.561049 1717.092990 1719.604822 1719.436395 1721.832885 1723.921790
17.112500 1714.837511 1718.763025 1721.246323 1721.074118 1723.469950 1725.588870
17.137500 1716.182516 1720.205340 1722.775210 1722.573953 1725.037625 1727.185670
17.162500 1717.575434 1721.741279 1724.171240 1724.030493 1726.494731 1728.841296
17.187500 1719.389257 1723.097464 1725.511331 1725.428477 1727.915414 1730.350276
17.212500 1720.838743 1724.482921 1726.805400 1726.780420 1729.228976 1731.837043
17.237500 1722.186850 1725.764990 1728.136512 1728.155546 1730.624905 1733.563195
17.262500 1724.133011 1726.974974 1729.470214 1729.516329 1732.010674 1735.534637
17.287500 1725.735531 1728.308976 1730.680630 1730.837864 1733.383519 1737.197471
17.312500 1727.047134 1729.612601 1731.985321 1732.179042 1734.819448 1738.793887
17.337500 1728.462608 1730.906525 1733.370415 1733.574095 1736.355280 1739.979308
17.365000 1729.876458 1732.261352 1734.841840 1735.110687 1738.102361 1741.665189
17.387500 1731.058455 1733.439940 1735.995466 1736.414921 1739.710402 1743.155256
17.412500 1732.404665 1734.611831 1737.376846 1737.881808 1741.509499 1745.101038
17.437500 1733.707859 1735.921412 1738.617672 1739.292104 1743.084363 1747.367445
17.465000 1734.974170 1737.294497 1740.052724 1740.902587 1745.256643 1749.357453
17.490000 1736.126627 1738.574171 1741.444159 1742.412442 1746.889486 1750.979257
17.515000 1737.773582 1739.885327 1742.916890 1744.002857 1748.877632 1752.660417
17.540000 1738.973881 1741.313737 1744.621332 1745.591551 1750.589613 1754.183844
17.550000 1739.523199 1742.080280 1745.496333 1746.306098 1751.307446 1754.655652
17.585000 1742.041143 1744.613618 1748.659198 1748.876127 1753.183906 1756.468124
17.610000 1743.870218 1746.793497 1750.974894 1750.799276 1754.619013 1757.717731
17.635000 1745.711472 1749.093327 1752.886713 1752.733994 1756.194513 1759.282129
17.660000 1747.772911 1751.379970 1755.060886 1754.822713 1758.056348 1760.818557
17.685000 1750.561737 1754.159116 1757.383735 1757.211559 1760.169544 1763.033046
17.710000 1753.593625 1756.645625 1759.569827 1759.617485 1762.402637 1765.862788
17.735000 1756.299605 1759.375256 1762.348655 1762.409004 1765.508389 1768.987969
17.760000 1758.799574 1761.649775 1764.695777 1764.936969 1768.309870 1772.165932
17.785000 1761.260927 1763.836546 1767.028386 1767.310537 1770.880652 1774.650900
17.810000 1763.434110 1766.157656 1769.494918 1769.654919 1773.211995 1776.782445
17.835000 1765.751970 1768.770005 1772.035760 1772.099739 1775.395284 1778.738112
17.860000 1768.170437 1771.403411 1774.763806 1774.798258 1778.042452 1781.260984
17.885000 1771.306543 1774.365640 1777.592997 1777.575282 1780.877879 1783.718568
17.910000 1774.441490 1777.460399 1780.629715 1780.511834 1783.595603 1786.354576
17.935000 1778.971695 1781.483145 1784.127407 1784.017168 1786.610766 1788.416007
17.960000 1781.939061 1784.074752 1786.475110 1786.257259 1788.448956 1789.694451
17.985000 1784.122716 1786.018463 1788.143057 1787.942279 1789.771394 1790.834829
18.020000 1786.586182 1788.525194 1790.215668 1790.007175 1791.406827 1792.387092
18.035000 1787.740477 1789.655240 1791.053628 1790.880882 1792.134834 1793.104405
18.085000 1792.058455 1792.765772 1793.657332 1793.639249 1794.450885 1795.266392
18.110000 1793.431856 1794.469132 1795.627729 1795.818069 1797.180999 1799.108623
18.135000 1794.941346 1796.467263 1798.460509 1798.476050 1800.444319 1802.417515
18.160000 1797.012872 1798.998180 1800.962395 1800.931426 1802.900622 1804.469786
18.185000 1798.744538 1801.009790 1802.876528 1802.838293 1804.729199 1806.010894
18.210000 1800.414820 1802.415594 1804.343850 1804.260457 1806.136834 1807.599685
18.235000 1801.782103 1803.663072 1805.546954 1805.540989 1807.379703 1808.995168
18.260000 1802.775472 1804.803257 1806.822675 1806.716203 1808.566297 1810.157890
18.285000 1803.884988 1805.938837 1807.868513 1807.807257 1809.654156 1811.166108
18.310000 1805.077155 1806.981256 1809.016068 1808.891020 1810.831280 1812.054959
18.335000 1806.064580 1808.096269 1810.146531 1809.961011 1811.831987 1813.035030
18.360000 1807.019286 1809.255698 1811.252104 1811.057164 1812.851754 1814.051574
18.385000 1808.035727 1810.332493 1812.386281 1812.157466 1813.920171 1815.180464
18.410000 1809.158367 1811.500837 1813.480913 1813.256788 1814.920921 1816.069852
18.435000 1810.223253 1812.549726 1814.521374 1814.294404 1815.908347 1816.992869
18.460000 1811.087287 1813.636706 1815.536429 1815.302701 1816.869946 1817.978020
18.485000 1812.219473 1814.709044 1816.512808 1816.317660 1817.907388 1819.010324
18.510000 1813.219774 1815.735010 1817.516232 1817.295940 1818.840813 1819.913921
18.535000 1814.114336 1816.651533 1818.502468 1818.262054 1819.816105 1820.904878
18.560000 1815.292233 1817.595001 1819.501320 1819.248924 1820.818713 1821.897132
18.585000 1816.175281 1818.534595 1820.481593 1820.225372 1821.761359 1822.867463
18.610000 1817.235927 1819.538516 1821.418617 1821.204107 1822.763652 1823.978696
18.635000 1818.279842 1820.641520 1822.385324 1822.199813 1823.741994 1825.060175
18.660000 1819.123610 1821.624963 1823.366445 1823.154244 1824.708712 1825.983533
18.685000 1820.134606 1822.527150 1824.306912 1824.111538 1825.644166 1826.925222
18.710000 1821.221238 1823.548960 1825.303818 1825.100230 1826.633686 1828.011977
18.735000 1822.246321 1824.546123 1826.249382 1826.084617 1827.561782 1828.927407
18.760000 1823.137015 1825.555061 1827.208705 1827.058633 1828.573894 1829.976317
18.785000 1824.326968 1826.559787 1828.180200 1828.037072 1829.571698 1830.781413
18.810000 1825.254902 1827.567912 1829.170227 1829.018330 1830.470497 1831.761063
18.835000 1826.378960 1828.516891 1830.167248 1830.007260 1831.475747 1832.696571
18.860000 1827.608068 1829.481672 1831.155884 1830.995545 1832.427345 1833.713420
18.885000 1828.612497 1830.520705 1832.185555 1832.005799 1833.434150 1834.631224
18.910000 1829.753308 1831.543480 1833.179788 1833.030368 1834.451482 1835.516182
18.935000 1830.917630 1832.642230 1834.176343 1834.048097 1835.464620 1836.448715
18.985000 1833.032214 1834.586326 1836.112284 1835.972892 1837.284229 1838.373242
19.010000 1833.952129 1835.524076 1837.200337 1837.017110 1838.348510 1839.352703
19.035000 1835.059336 1836.719849 1838.205908 1838.075287 1839.363201 1840.466468
19.085000 1837.294257 1838.899379 1840.315418 1840.200211 1841.456662 1842.571285
19.110000 1838.795793 1840.279085 1841.481969 1841.391749 1842.579425 1843.640846
19.135000 1840.537847 1841.721195 1842.726502 1842.728917 1843.790473 1844.694921
19.160000 1842.530568 1843.331285 1844.269339 1844.262238 1845.164816 1846.031852
19.185000 1843.674146 1844.832424 1846.273906 1846.540878 1848.183487 1851.524163
19.210000 1845.037430 1846.486565 1848.373639 1848.744546 1851.159566 1854.670381
19.235000 1846.728914 1848.809170 1851.291211 1851.549263 1854.363731 1857.523772
19.260000 1848.569568 1851.149595 1853.902618 1854.002123 1856.843479 1860.130798
19.285000 1850.458336 1853.013169 1855.959986 1856.046096 1859.121677 1862.589997
19.310000 1852.329667 1854.866148 1857.937808 1857.991305 1861.152697 1864.583836
19.335000 1854.143341 1856.953286 1860.110360 1860.143085 1863.248854 1866.747035
19.360000 1856.094211 1859.105407 1862.240521 1862.267898 1865.530725 1868.302511
19.385000 1858.042107 1861.095594 1864.241903 1864.220973 1867.486554 1870.171987
19.410000 1859.737082 1863.058451 1866.266057 1866.161719 1869.311738 1871.642352
19.435000 1862.117567 1865.210789 1868.407040 1868.159206 1871.089049 1873.353292
19.460000 1864.074249 1867.328323 1870.480545 1870.234377 1873.037857 1875.323313
19.485000 1866.125148 1869.657946 1872.585323 1872.279471 1874.911304 1877.117895
19.510000 1868.120769 1871.905034 1874.511788 1874.266998 1876.715398 1878.677536
19.535000 1870.363065 1874.179089 1876.646199 1876.436832 1878.706994 1880.945760
19.560000 1872.192757 1876.390094 1878.717033 1878.609340 1880.894715 1883.710149
19.585000 1874.978083 1878.493135 1881.053277 1881.036816 1883.546855 1886.634058
19.610200 1877.251792 1880.388419 1883.239638 1883.174151 1886.053997 1888.807354
19.635000 1879.172358 1882.030360 1885.340650 1885.152436 1888.068361 1890.565159
19.660000 1881.369508 1884.151525 1887.652771 1887.397867 1890.439724 1892.684289
19.685000 1883.474853 1886.802259 1889.976561 1889.680409 1892.484271 1895.293235
19.710000 1885.415719 1889.337386 1892.062020 1891.862357 1894.510792 1897.250442
19.735000 1887.678638 1891.242839 1893.953956 1893.860705 1896.660661 1899.029069
19.760000 1890.037905 1893.064875 1895.825776 1895.786804 1898.550103 1900.876338
19.785000 1892.133461 1895.151536 1897.929583 1897.853099 1900.598875 1902.859713
19.810000 1894.210334 1897.316499 1900.121740 1899.989893 1902.597307 1905.197770
19.835000 1897.232732 1899.855439 1902.413602 1902.391838 1904.951849 1907.832505
19.860000 1899.783704 1902.325307 1905.146060 1905.121921 1907.680427 1911.018984
19.885000 1905.201512 1906.703849 1908.748729 1909.273377 1912.184840 1915.136876
19.910000 1914.570025 1915.462459 1916.432188 1916.442551 1917.396958 1918.305220
19.935000 1916.103458 1917.283886 1918.413563 1918.507923 1919.726155 1921.485078
19.960000 1917.757299 1918.866253 1920.208923 1920.414490 1921.937563 1924.277292
19.985000 1919.025191 1920.367650 1922.090730 1922.248627 1924.144786 1926.504589
20.010000 1920.512297 1921.909090 1923.878221 1924.076718 1926.230881 1928.597368
20.035000 1921.721703 1923.303310 1925.373901 1925.576967 1927.968412 1930.255741
20.060000 1922.808203 1924.613990 1926.714435 1926.920141 1929.331828 1931.556442
20.085000 1923.915889 1925.913491 1928.028670 1928.211204 1930.593312 1932.937176
20.110000 1925.088845 1927.126657 1929.337761 1929.486123 1931.887890 1934.281755
20.135000 1926.268683 1928.241368 1930.539805 1930.684696 1933.206504 1935.567826
20.160000 1927.443603 1929.464103 1931.711860 1931.850127 1934.396264 1936.542778
20.185000 1928.687754 1930.545335 1933.019890 1933.059923 1935.638533 1937.756883
20.210000 1929.645288 1931.814016 1934.268699 1934.253475 1936.788288 1938.791114
20.235000 1930.822237 1933.017156 1935.495943 1935.457230 1937.949926 1939.823181
20.260000 1932.050494 1934.217560 1936.694119 1936.638825 1939.022404 1940.737717
20.285000 1933.285336 1935.460661 1937.885573 1937.771802 1940.074971 1941.667662
20.310000 1934.496175 1936.755493 1939.050742 1938.949611 1941.164991 1942.774020
20.335000 1935.466761 1938.090655 1940.211449 1940.146936 1942.313615 1943.872243
20.360000 1936.905273 1939.355039 1941.431627 1941.332821 1943.409793 1944.930194
20.385000 1937.958422 1940.554412 1942.639007 1942.488398 1944.441152 1945.948910
20.411000 1939.102779 1941.679757 1943.811084 1943.585234 1945.502096 1947.113918
20.460000 1941.268626 1943.569922 1945.727585 1945.469256 1947.314522 1948.680103
20.485000 1942.300883 1944.532638 1946.645683 1946.473389 1948.305436 1949.703287
20.510000 1943.301075 1945.499344 1947.630679 1947.460921 1949.286984 1950.648890
20.535000 1944.554285 1946.447584 1948.644722 1948.447626 1950.263195 1951.588135
20.560000 1945.497928 1947.514141 1949.690838 1949.472746 1951.220650 1952.530790
20.585000 1946.333054 1948.520066 1950.679461 1950.454413 1952.200195 1953.821297
