depth(m) lower_95(kyr) lower_68(kyr) median(kyr) mean(kyr) upper_68(kyr) upper_95(kyr)
549.800000 1783.620377 1786.108847 1788.053490 1787.913827 1789.627263 1791.861405
549.925000 1784.241511 1786.640609 1788.500527 1788.393013 1790.041291 1792.256866
550.050000 1784.974223 1787.247334 1788.991546 1788.896838 1790.485743 1792.737885
550.175000 1785.428744 1787.860420 1789.549183 1789.460158 1790.964270 1793.290549
550.300000 1786.250941 1788.459907 1790.070498 1790.044756 1791.551893 1793.627500
550.435000 1787.065025 1789.127630 1790.665650 1790.718393 1792.219810 1794.376503
550.570000 1788.017527 1789.740188 1791.385532 1791.392553 1792.951100 1794.887215
550.685000 1788.477097 1790.324919 1791.875881 1791.901628 1793.521426 1795.425421
550.800000 1789.320016 1790.838794 1792.382829 1792.400478 1794.044817 1795.841385
550.920000 1789.973482 1791.434567 1792.891723 1792.956606 1794.585904 1796.229244
551.040000 1790.764831 1791.970978 1793.445042 1793.530174 1795.087845 1796.683695
551.170000 1791.390538 1792.717559 1794.066164 1794.159148 1795.667717 1797.222085
551.300000 1791.838653 1793.382483 1794.729483 1794.792498 1796.239981 1797.746911
551.425000 1792.518252 1794.010275 1795.423267 1795.414555 1796.849564 1798.197036
551.550000 1793.094639 1794.652312 1796.073042 1796.032617 1797.454025 1798.660026
551.675000 1793.726802 1795.255478 1796.669303 1796.668383 1798.003277 1799.420626
551.800000 1794.157079 1795.889395 1797.317206 1797.285197 1798.619838 1800.046413
551.925000 1794.900568 1796.501447 1797.889685 1797.849311 1799.219366 1800.541241
552.050000 1795.467679 1797.117725 1798.469408 1798.387563 1799.672077 1801.113756
552.175000 1795.969217 1797.717678 1799.040107 1798.986684 1800.286797 1801.658755
552.300000 1796.722369 1798.357895 1799.659990 1799.609650 1800.878158 1802.221178
552.425000 1797.411767 1798.950476 1800.314003 1800.262395 1801.540591 1802.829801
552.550000 1798.050820 1799.550357 1800.941138 1800.897162 1802.245112 1803.364363
552.675000 1798.693564 1800.239184 1801.590224 1801.566754 1802.987805 1803.994186
552.800000 1799.584103 1800.897452 1802.214452 1802.242969 1803.718840 1804.713106
552.925000 1800.013760 1801.507298 1802.900559 1802.871503 1804.259610 1805.412687
553.050000 1800.580441 1802.085882 1803.534752 1803.497987 1804.780786 1806.143259
553.175000 1801.023775 1802.666656 1804.091996 1804.043546 1805.419500 1806.743100
553.300000 1801.450649 1803.123538 1804.663970 1804.574378 1805.997533 1807.326709
553.425000 1801.790824 1803.650133 1805.118006 1805.057652 1806.465400 1808.221821
553.550000 1802.167877 1804.112569 1805.560898 1805.508160 1806.915554 1808.894583
553.675000 1802.616344 1804.551916 1805.952076 1805.948741 1807.359427 1809.468655
553.800000 1803.010127 1805.017501 1806.358812 1806.369836 1807.754649 1809.929488
553.925000 1803.328517 1805.340951 1806.712433 1806.757481 1808.190233 1810.298441
554.050000 1803.652566 1805.732576 1807.053989 1807.141640 1808.571129 1810.827946
554.175000 1803.973054 1806.146509 1807.380658 1807.513614 1808.935468 1811.246328
554.300000 1804.248154 1806.575062 1807.695634 1807.871645 1809.370264 1811.735092
554.425000 1804.490589 1806.848106 1807.986297 1808.207028 1809.731423 1812.084757
554.550000 1804.803023 1807.197390 1808.273327 1808.547453 1810.162616 1812.416295
554.688889 1805.151140 1807.534125 1808.621736 1808.907946 1810.575973 1813.057192
554.827778 1805.551577 1807.868978 1808.980002 1809.270800 1810.973560 1813.462911
554.966667 1805.852880 1808.206323 1809.291904 1809.614040 1811.367248 1813.780760
555.105556 1806.156846 1808.490758 1809.604374 1809.960823 1811.808450 1814.288462
555.244444 1806.471989 1808.807631 1809.929869 1810.317481 1812.207367 1814.918953
555.383333 1806.777893 1809.120412 1810.246477 1810.681129 1812.613956 1815.537448
555.522222 1807.275242 1809.462926 1810.556725 1811.045866 1812.992410 1816.056893
555.661111 1807.577970 1809.757549 1810.905327 1811.405121 1813.349202 1816.622979
555.800000 1807.896510 1810.079200 1811.227546 1811.778476 1813.867602 1817.282528
555.925000 1808.198764 1810.351079 1811.512494 1812.111630 1814.320580 1817.864027
556.050000 1808.571597 1810.663905 1811.834446 1812.461404 1814.738413 1818.154215
556.175000 1808.852173 1810.987218 1812.154660 1812.819244 1815.113903 1818.564892
556.300000 1809.139871 1811.267121 1812.507535 1813.200752 1815.622553 1819.019933
556.425000 1809.507680 1811.554867 1812.858281 1813.594468 1816.166979 1819.749629
556.550000 1809.811744 1811.898175 1813.214859 1813.999195 1816.702176 1820.225700
556.675000 1810.098889 1812.197458 1813.627930 1814.421467 1817.462210 1820.718807
556.800000 1810.478066 1812.507772 1814.044919 1814.837808 1817.998614 1821.127207
556.925000 1810.715477 1812.803276 1814.449010 1815.271810 1818.489963 1821.571428
557.050000 1811.162694 1813.171573 1814.829597 1815.727665 1819.082692 1822.044631
557.190000 1811.555096 1813.587359 1815.349550 1816.236669 1819.705956 1822.860164
557.330000 1811.939190 1813.988525 1815.861053 1816.737815 1820.257436 1823.677625
557.440000 1812.275295 1814.324789 1816.277387 1817.131760 1820.701701 1824.030322
557.550000 1812.744048 1814.628681 1816.776355 1817.519611 1821.025116 1824.445286
557.680000 1813.167864 1815.033433 1817.310555 1817.997869 1821.470406 1824.846361
557.810000 1813.558519 1815.459018 1817.852401 1818.465595 1821.942495 1825.214941
557.954545 1814.249486 1816.006860 1818.485503 1819.033631 1822.385381 1825.568403
558.099091 1814.794566 1816.600577 1819.082046 1819.584097 1822.844179 1826.036054
558.243636 1815.263767 1817.142500 1819.745845 1820.132704 1823.350013 1826.400870
558.388182 1815.811258 1817.688504 1820.500399 1820.718677 1823.826708 1826.823149
558.532727 1816.258460 1818.226724 1821.183534 1821.289734 1824.314467 1827.241582
558.677273 1816.925649 1818.841161 1821.861499 1821.855607 1824.710588 1827.550709
558.821818 1817.471767 1819.466132 1822.495056 1822.408687 1825.111199 1827.891799
558.966364 1818.031724 1820.076512 1823.094132 1822.977140 1825.664007 1828.402509
559.110909 1818.521249 1820.631218 1823.684828 1823.561733 1826.133934 1828.837572
559.255455 1818.817071 1821.254541 1824.275570 1824.145880 1826.706273 1829.334511
559.400000 1819.520716 1821.795892 1824.872619 1824.700566 1827.142333 1829.689832
559.525000 1820.048821 1822.314283 1825.396655 1825.190266 1827.717704 1830.076328
559.650000 1820.490555 1822.948335 1825.903830 1825.688368 1828.173116 1830.511168
559.775000 1821.103814 1823.571481 1826.388527 1826.190828 1828.608782 1831.077238
559.900000 1821.614857 1824.171722 1826.822976 1826.699928 1829.161860 1831.540181
560.025000 1822.303651 1824.642068 1827.315671 1827.211380 1829.713868 1831.918603
560.150000 1822.753363 1825.319649 1827.814259 1827.722793 1830.158614 1832.326878
560.275000 1823.485744 1825.866403 1828.257087 1828.249451 1830.645766 1832.944886
560.400000 1824.144582 1826.523145 1828.746688 1828.784760 1831.171312 1833.328668
560.525000 1824.855891 1827.177092 1829.323832 1829.355111 1831.756625 1833.746701
560.650000 1825.287036 1827.684847 1829.819859 1829.913418 1832.370410 1834.281687
560.775000 1825.979463 1828.397316 1830.357375 1830.487364 1832.899408 1834.757676
560.900000 1826.745726 1829.065440 1830.967613 1831.048906 1833.325355 1835.024579
561.025000 1827.268964 1829.570682 1831.559866 1831.633750 1833.825574 1835.509240
561.150000 1827.827775 1830.118485 1832.168601 1832.193208 1834.316299 1835.818140
561.275000 1828.541725 1830.793131 1832.762061 1832.764192 1834.773427 1836.256998
561.400000 1829.171293 1831.372169 1833.377920 1833.297625 1835.207477 1836.616829
561.525000 1830.124018 1831.947507 1833.975216 1833.821429 1835.603571 1836.951918
561.650000 1830.739262 1832.614541 1834.490289 1834.353788 1836.005312 1837.222927
561.775000 1831.387723 1833.131196 1835.019584 1834.844334 1836.441240 1837.500243
561.900000 1831.866979 1833.716049 1835.456595 1835.319499 1836.844368 1837.870179
562.025000 1832.535840 1834.274896 1835.886242 1835.787358 1837.291999 1838.379842
562.150000 1833.017856 1834.815031 1836.341851 1836.239443 1837.627461 1838.741932
562.275000 1833.428421 1835.343608 1836.721769 1836.650888 1838.006883 1838.949946
562.400000 1833.927004 1835.842778 1837.123684 1837.058752 1838.342810 1839.463921
562.525000 1834.290547 1836.244661 1837.516467 1837.422478 1838.650137 1839.733404
562.650000 1834.690868 1836.604794 1837.901899 1837.777706 1838.957917 1840.162873
562.775000 1835.066645 1836.967780 1838.235576 1838.124322 1839.250425 1840.594771
562.900000 1835.639592 1837.355588 1838.576261 1838.468117 1839.545188 1840.862586
563.025000 1835.948856 1837.689574 1838.918779 1838.796772 1839.853683 1841.184354
563.150000 1836.261412 1838.003339 1839.247420 1839.127918 1840.173993 1841.517841
563.275000 1836.612511 1838.333652 1839.556347 1839.444937 1840.508262 1842.010685
563.400000 1837.085301 1838.660172 1839.850803 1839.770650 1840.792856 1842.383517
563.500000 1837.467500 1838.920917 1840.115325 1840.028611 1841.070360 1842.565127
563.600000 1837.696694 1839.209127 1840.365383 1840.276952 1841.304923 1842.834127
563.700000 1837.979280 1839.495731 1840.603629 1840.528749 1841.534919 1843.017251
563.800000 1838.268699 1839.796991 1840.799631 1840.773065 1841.800348 1843.236354
563.900000 1838.473513 1840.063464 1841.033057 1841.021683 1842.026931 1843.506905
564.025000 1838.772563 1840.370439 1841.335207 1841.319102 1842.324524 1843.770921
564.150000 1839.022506 1840.683574 1841.587171 1841.615162 1842.641150 1844.051416
564.275000 1839.454778 1840.973707 1841.875520 1841.911800 1842.908825 1844.349781
564.400000 1839.792462 1841.274256 1842.155437 1842.206187 1843.196358 1844.682076
564.525000 1840.098453 1841.550978 1842.423512 1842.493309 1843.518208 1844.923216
564.650000 1840.534738 1841.839023 1842.704437 1842.777063 1843.789776 1845.201914
564.775000 1840.877482 1842.118038 1842.970701 1843.061234 1844.096518 1845.477022
564.900000 1841.108195 1842.404875 1843.254062 1843.338948 1844.405335 1845.733423
565.025000 1841.385873 1842.675903 1843.494067 1843.618298 1844.730684 1846.066315
565.150000 1841.645619 1842.938964 1843.765811 1843.896648 1845.005430 1846.375791
565.275000 1841.968942 1843.197105 1844.022249 1844.170673 1845.291856 1846.630549
565.400000 1842.192442 1843.469597 1844.300934 1844.445040 1845.619904 1846.857116
565.525000 1842.450488 1843.725714 1844.568765 1844.719763 1845.922358 1847.135912
565.650000 1842.745760 1844.018250 1844.842836 1844.993361 1846.219625 1847.346138
565.775000 1842.957667 1844.244699 1845.124646 1845.271206 1846.519583 1847.673688
565.900000 1843.188576 1844.516473 1845.402627 1845.540251 1846.780245 1848.017931
566.025000 1843.437762 1844.768054 1845.678470 1845.816538 1847.079187 1848.286344
566.150000 1843.802498 1845.040584 1845.934560 1846.094402 1847.312529 1848.670023
566.275000 1844.010674 1845.276291 1846.190378 1846.366872 1847.567090 1848.927463
566.400000 1844.234676 1845.528681 1846.460366 1846.645372 1847.901230 1849.245248
566.515000 1844.462441 1845.783522 1846.715417 1846.907038 1848.175733 1849.674544
566.630000 1844.684586 1846.040669 1846.970416 1847.168396 1848.452212 1849.991581
566.650000 1844.739069 1846.089666 1847.016784 1847.218350 1848.493917 1850.031488
566.775000 1845.061058 1846.350613 1847.293717 1847.478841 1848.822534 1850.218563
566.900000 1845.324579 1846.589627 1847.530275 1847.730277 1849.140728 1850.461218
567.025000 1845.528033 1846.822066 1847.786968 1847.980912 1849.407655 1850.710652
567.150000 1845.795854 1847.049837 1848.007603 1848.218145 1849.671509 1850.962366
567.294615 1846.109337 1847.336988 1848.310897 1848.497574 1849.981564 1851.206258
567.439231 1846.381047 1847.576866 1848.599704 1848.775141 1850.276798 1851.461778
567.583846 1846.640007 1847.786006 1848.861573 1849.052324 1850.547794 1851.755272
567.728462 1846.906809 1848.045794 1849.163825 1849.334034 1850.851864 1852.014520
567.873077 1847.179524 1848.270938 1849.457324 1849.620113 1851.133775 1852.246498
568.017692 1847.498562 1848.509046 1849.740255 1849.902468 1851.466272 1852.503338
568.162308 1847.739172 1848.801324 1850.042555 1850.184206 1851.764909 1852.755175
568.306923 1847.963627 1849.024481 1850.365315 1850.473471 1852.050735 1853.110097
568.451538 1848.188166 1849.277879 1850.669229 1850.761754 1852.367594 1853.299932
568.596154 1848.486899 1849.521140 1850.949829 1851.046254 1852.678103 1853.622426
568.740769 1848.747136 1849.763060 1851.272751 1851.328850 1852.981662 1853.913440
568.885385 1849.012807 1850.044592 1851.561211 1851.613879 1853.303869 1854.206477
569.030000 1849.243526 1850.352978 1851.900923 1851.905559 1853.627308 1854.524908
569.140000 1849.481364 1850.573498 1852.134281 1852.142301 1853.877875 1854.785372
569.250000 1849.659780 1850.814436 1852.415209 1852.388395 1854.149770 1855.032096
569.375000 1849.935296 1851.088764 1852.724769 1852.677292 1854.427503 1855.311237
569.500000 1850.165734 1851.334441 1853.015252 1852.965036 1854.719856 1855.600433
569.625000 1850.445957 1851.584186 1853.327624 1853.253944 1855.038298 1855.880907
569.750000 1850.712062 1851.848690 1853.634243 1853.549081 1855.346903 1856.232373
569.875000 1850.976740 1852.124972 1853.956004 1853.858608 1855.665279 1856.666938
570.000000 1851.241987 1852.411119 1854.290358 1854.168558 1855.950058 1857.026893
570.125000 1851.482737 1852.671719 1854.620716 1854.495255 1856.252720 1857.361796
570.250000 1851.774246 1852.969225 1854.968265 1854.833551 1856.557220 1857.736394
570.375000 1852.079725 1853.277170 1855.309803 1855.173793 1856.853010 1858.102940
570.500000 1852.339712 1853.617769 1855.654998 1855.527355 1857.169099 1858.464925
570.625000 1852.631337 1853.903155 1856.026331 1855.887114 1857.498327 1859.011733
570.750000 1852.913701 1854.239154 1856.421648 1856.253255 1857.795309 1859.559036
570.875000 1853.192297 1854.583911 1856.847741 1856.639826 1858.185848 1860.146180
571.000000 1853.472287 1854.914813 1857.276555 1857.021541 1858.504799 1860.615896
571.125000 1853.746486 1855.266269 1857.660460 1857.401371 1858.977736 1861.101533
571.250000 1854.068624 1855.564148 1858.017713 1857.781680 1859.414907 1861.528295
571.375000 1854.357724 1855.944503 1858.376595 1858.161821 1859.918937 1862.188083
571.500000 1854.652356 1856.302389 1858.771998 1858.562362 1860.398536 1862.732597
571.600000 1854.941236 1856.592589 1859.079922 1858.864577 1860.776363 1863.021993
571.700000 1855.226511 1857.006104 1859.353268 1859.190915 1861.100980 1863.529498
571.800000 1855.558962 1857.331239 1859.602991 1859.506430 1861.377381 1864.303801
571.900000 1856.004630 1857.628624 1859.885065 1859.822902 1861.677964 1864.638944
572.000000 1856.284745 1858.017039 1860.161869 1860.146869 1862.047419 1864.948650
572.125000 1856.645868 1858.497862 1860.502460 1860.567656 1862.580416 1865.335358
572.250000 1856.911473 1858.933482 1860.856573 1860.959880 1862.935919 1865.774112
572.375000 1857.258640 1859.403432 1861.173673 1861.366924 1863.319683 1866.206931
572.500000 1857.525939 1859.871721 1861.532326 1861.801260 1863.795575 1866.645999
572.625000 1857.881660 1860.314508 1861.935137 1862.231186 1864.287308 1867.193182
572.750000 1858.271771 1860.750137 1862.366726 1862.690792 1864.766913 1867.742344
572.875000 1858.602166 1861.334195 1862.816588 1863.162603 1865.251213 1868.356511
573.000000 1859.078222 1861.838310 1863.334893 1863.667275 1865.810771 1868.931556
573.110000 1859.345562 1862.267038 1863.798041 1864.130372 1866.360460 1869.498220
573.235000 1859.880758 1862.703011 1864.463754 1864.727219 1866.999205 1869.996319
573.360000 1860.357733 1863.211851 1865.190970 1865.380534 1867.744362 1870.827565
573.485000 1861.241859 1863.815027 1865.903787 1866.075124 1868.466439 1871.591028
573.610000 1861.889092 1864.372745 1866.659958 1866.809336 1869.330919 1872.352160
573.752571 1862.749812 1865.373602 1867.517864 1867.721144 1870.203301 1873.096772
573.895143 1863.744859 1866.346069 1868.497693 1868.684599 1871.182703 1874.580024
574.037714 1864.855540 1867.371180 1869.554150 1869.709678 1872.226919 1875.520086
574.180286 1865.726594 1868.143550 1870.483700 1870.740087 1873.536686 1876.369232
574.322857 1867.004222 1869.238199 1871.533936 1871.762250 1874.383567 1877.224648
574.465429 1867.970124 1870.372084 1872.733684 1872.867905 1875.515347 1878.429115
574.608000 1869.227154 1871.367936 1873.748658 1873.970720 1876.596770 1879.741415
574.750571 1870.448906 1872.512323 1875.025852 1875.104547 1877.653240 1880.750022
574.893143 1871.218393 1873.533284 1876.073221 1876.190823 1878.792370 1881.738714
575.035714 1872.317128 1874.662504 1877.253568 1877.291470 1879.737594 1883.126105
575.178286 1873.394205 1875.867158 1878.387807 1878.414052 1880.828483 1883.888411
575.320857 1874.801341 1876.983201 1879.562838 1879.530309 1881.978196 1884.973801
575.463429 1875.612491 1878.159494 1880.677540 1880.678937 1883.207373 1885.889065
575.606000 1876.780025 1879.314213 1881.843700 1881.838570 1884.318621 1886.766677
575.748571 1878.443631 1880.520517 1882.958067 1883.008866 1885.377441 1887.915159
575.891143 1879.574356 1881.651183 1884.296160 1884.176070 1886.737837 1888.977773
576.033714 1880.654955 1882.845070 1885.378679 1885.354080 1887.926171 1889.980626
576.176286 1881.850064 1884.076044 1886.567972 1886.539897 1888.988624 1891.270575
576.318857 1882.803308 1885.270287 1887.697301 1887.690755 1890.170004 1892.495258
576.461429 1884.006985 1886.385788 1888.870577 1888.885665 1891.352057 1893.622880
576.604000 1885.316299 1887.628167 1890.062373 1890.074400 1892.614881 1894.972134
576.746571 1886.455700 1888.723077 1891.174309 1891.237589 1893.726852 1895.936187
576.889143 1887.496272 1889.821735 1892.361315 1892.392951 1895.026344 1897.150285
577.031714 1888.354412 1890.930477 1893.524003 1893.549562 1896.107542 1898.550464
577.174286 1889.495965 1892.228843 1894.718464 1894.695276 1897.231354 1899.727183
577.316857 1890.912936 1893.401325 1895.889087 1895.848488 1898.302147 1901.270944
577.459429 1891.902990 1894.495384 1896.951663 1896.955086 1899.400972 1902.182574
577.602000 1892.718512 1895.526546 1898.051504 1898.039235 1900.672271 1903.068775
577.744571 1894.058489 1896.559621 1899.170163 1899.127640 1901.832506 1904.142115
577.887143 1895.021595 1897.521652 1900.202194 1900.205514 1902.834588 1905.377281
578.029714 1896.246082 1898.646140 1901.355668 1901.223198 1903.753504 1906.149775
578.172286 1897.394536 1899.711035 1902.375602 1902.299154 1904.827608 1907.034416
578.314857 1898.346751 1900.776091 1903.330226 1903.290722 1905.730034 1907.985939
578.457429 1899.347742 1901.787275 1904.370723 1904.271424 1906.704843 1908.963720
578.600000 1900.445373 1902.835087 1905.339855 1905.222470 1907.627261 1909.652940
578.725000 1901.663314 1903.769745 1906.151083 1906.063759 1908.392870 1910.631849
578.850000 1902.501532 1904.598068 1906.950659 1906.852346 1909.040211 1911.207161
578.975000 1903.173825 1905.343086 1907.631986 1907.526009 1909.582887 1912.025720
579.100000 1903.827705 1906.006197 1908.288168 1908.178030 1910.140165 1912.373512
579.225000 1904.437268 1906.694269 1908.926745 1908.785564 1910.655860 1913.025884
579.350000 1905.224457 1907.287548 1909.545233 1909.369959 1911.124984 1913.754227
579.475000 1905.838439 1907.964166 1910.136946 1909.980194 1911.695185 1914.137726
579.600000 1906.525719 1908.552082 1910.792047 1910.583552 1912.269581 1914.568737
579.725000 1907.217497 1909.292771 1911.414221 1911.221232 1912.905433 1915.137139
579.850000 1907.828881 1909.998768 1911.953134 1911.839720 1913.553475 1915.804928
579.975000 1908.461621 1910.508138 1912.440913 1912.381064 1914.244675 1916.248156
580.100000 1908.900588 1911.100535 1912.942774 1912.894237 1914.719405 1916.626041
580.225000 1909.322783 1911.606727 1913.358099 1913.379692 1915.307987 1917.138959
580.350000 1909.960933 1912.063046 1913.802596 1913.869642 1915.856811 1917.677420
