depth(m) lower_95(kyr) lower_68(kyr) median(kyr) mean(kyr) upper_68(kyr) upper_95(kyr)
14.990000 298.655083 301.396234 304.324075 304.316378 307.345186 310.124764
15.090000 301.152381 303.514029 306.262471 306.387385 309.258470 312.844526
15.190000 302.878579 305.515022 307.997256 308.324901 311.383104 315.039027
15.290000 305.034788 307.513260 309.991542 310.448768 313.855355 316.915106
15.390000 307.439445 309.547032 312.672581 312.987565 316.535157 319.247458
15.490000 310.044807 312.489985 315.934071 315.958252 319.473529 321.569352
15.590000 312.255667 315.639679 319.207451 318.963112 322.111068 324.728982
15.690000 314.728864 319.045703 322.177061 321.858480 324.560457 327.111319
15.790000 318.982609 322.652971 324.805072 324.629237 326.712303 329.358758
15.890000 321.520105 324.950495 326.927248 326.858026 328.939554 331.308121
15.990000 324.020617 327.006914 329.028184 329.021636 331.060775 333.584562
16.090000 327.338521 329.346758 331.232647 331.305554 333.086573 336.083878
16.190000 329.937328 331.614237 333.605160 334.549128 338.194933 342.971527
16.323333 331.654713 333.414767 335.435552 336.805655 341.697983 347.050760
16.456667 333.579079 335.298067 337.224357 338.884150 344.907159 350.062201
16.590000 335.531632 337.291003 339.282662 341.037942 347.588337 352.922086
16.690000 337.875234 340.210134 343.665114 344.428351 349.056373 354.494058
16.790000 339.375276 342.834201 347.848611 347.701071 351.860932 356.116404
16.890000 341.025893 346.735415 350.143382 350.104760 353.897378 357.805083
16.990000 342.676313 348.947000 352.182565 352.154208 355.642060 359.315168
17.090000 344.234484 350.857933 354.060102 353.963486 357.369764 360.819456
17.190000 346.416925 352.595054 355.745504 355.651042 358.891217 362.447898
17.290000 348.032477 354.413466 357.361819 357.345756 360.554030 364.104651
17.390000 350.473306 356.071681 359.119028 358.964508 362.003931 365.737864
17.523333 353.816856 358.215575 361.233499 361.132307 363.990621 368.168614
17.656667 357.019093 360.576448 363.308143 363.380018 366.134465 370.507568
17.790000 359.902899 362.987406 365.392354 365.660857 368.497471 372.602811
17.890000 362.925399 365.168532 367.187589 367.690184 370.506614 374.405296
17.990000 365.714607 367.553594 369.449987 370.149516 373.448714 376.593965
18.090000 367.525283 369.561614 371.816364 372.384606 375.703804 378.513063
18.215000 369.687889 372.004162 374.762223 374.995573 378.202604 380.893449
18.340000 371.971387 374.405998 377.651925 377.668552 380.861263 383.864836
18.465000 374.687032 377.271187 380.594100 380.486809 383.549757 386.313740
18.590000 377.609999 380.253792 383.076095 383.080626 386.062588 388.270648
18.690000 379.593236 382.224816 385.065175 385.009322 387.738967 389.883212
18.790000 381.349092 384.159858 387.208613 387.008956 389.663285 391.671235
18.890000 383.454568 386.559785 389.351340 389.083845 391.437691 393.492338
18.990000 386.071094 388.956132 391.558387 391.307270 393.385930 395.448776
19.040000 387.544055 390.360088 393.102770 392.752788 394.857123 397.053488
19.140000 391.364750 394.382624 397.202294 397.148501 400.024409 402.953630
19.240000 397.381108 399.537825 401.600084 401.647828 403.793972 406.382368
19.340000 400.485966 402.479829 404.348812 404.498313 406.589716 408.712972
19.440000 403.144378 404.954992 407.042697 407.095532 409.132789 411.384214
19.540000 405.517589 407.643495 409.946806 410.035397 412.235760 415.232940
19.640000 408.880284 411.823043 415.594997 415.936426 420.426890 423.925771
19.740000 413.311243 417.267291 422.198988 421.718889 425.850327 427.898288
19.840000 422.904663 425.406704 427.350496 427.155727 428.960851 430.492223
19.940000 426.512627 428.225156 429.826839 429.789608 431.294923 432.988010
20.040000 428.623046 430.311855 431.777615 431.831030 433.400594 435.129485
20.140000 430.226720 431.954449 433.479498 433.556244 435.226941 436.958589
20.240000 431.660640 433.429439 435.084971 435.148530 436.946282 438.792632
20.340000 433.068976 434.952993 436.610401 436.684004 438.431257 440.360358
20.440000 434.592037 436.468942 438.218854 438.226943 439.972862 441.687265
20.540000 436.466389 438.064887 439.793749 439.774579 441.485752 443.104529
20.640000 438.159727 439.743294 441.433276 441.415378 443.032775 444.854182
20.740000 439.875011 441.447794 443.049309 443.084673 444.635878 446.715260
20.840000 441.608367 443.053154 444.636620 444.704677 446.272952 448.169330
20.940000 443.215455 444.625227 446.106525 446.226607 447.848232 450.076120
21.040000 444.561243 446.052874 447.638996 447.775953 449.483412 451.832377
21.140000 445.961392 447.408641 449.112314 449.275024 451.171876 453.601441
21.170000 446.412464 447.916648 449.608305 449.772655 451.718120 454.042421
21.240000 447.370279 448.892630 450.736470 450.892553 452.917742 455.398929
21.340000 448.608644 450.309667 452.249681 452.395016 454.601093 456.875867
21.440000 450.014481 451.732381 453.786856 453.903346 456.181519 458.403407
21.540000 451.627616 453.143157 455.301616 455.459136 457.701210 460.013325
21.640000 453.009961 454.675126 456.795344 457.016462 459.286415 461.875931
21.740000 454.391389 456.194440 458.394158 458.581982 460.909822 463.652980
21.840000 456.061202 457.694243 459.990270 460.182961 462.506337 465.466825
21.940000 457.609878 459.416437 461.613645 461.836800 464.336461 467.605219
22.040000 458.999689 461.022380 463.410054 463.609741 466.101078 469.769431
22.140000 461.017876 462.839327 465.227319 465.522332 468.089544 472.031099
22.240000 462.938635 464.823298 467.414801 467.754405 470.742222 474.622043
22.340000 465.126723 467.254078 470.054360 470.403822 473.862210 476.672731
22.440000 467.201934 469.864015 473.301927 473.266197 476.815203 478.853762
22.540000 469.568918 472.813643 476.764581 476.366107 479.562588 481.578488
22.640000 473.053369 476.920602 479.906562 479.522618 482.167077 483.795450
22.740000 477.533331 480.275805 482.511103 482.349593 484.512670 486.265944
22.840000 480.591389 482.954222 484.853286 484.760039 486.582835 488.340028
22.940000 483.566274 485.622850 487.375108 487.365479 489.194014 490.964790
23.040000 486.031917 487.707913 489.361897 489.468474 491.194970 493.476284
23.140000 487.618998 489.569879 491.142660 491.347986 493.237419 495.879830
23.270000 489.827830 491.820606 493.796210 493.942308 496.173429 498.987372
23.400000 492.080082 494.207383 496.306968 496.580676 499.240932 502.018979
23.500000 493.762683 496.001627 498.472540 498.699648 501.543353 504.148237
23.623333 495.988870 498.441260 501.665443 501.966023 505.347316 510.504090
23.746667 498.735715 501.328981 504.754229 505.344150 509.550807 514.290933
23.870000 501.518308 504.569726 507.899420 508.783550 513.884187 517.314320
23.970000 504.177881 507.650803 512.421557 512.110664 516.800504 519.440409
24.070000 505.860663 510.371085 515.791826 515.217882 519.286874 521.863023
24.170000 507.579178 513.804088 519.053116 518.157596 522.093151 524.808895
24.270000 509.381762 516.673839 521.185077 520.535527 524.506806 527.185358
24.403333 513.114086 519.907655 523.874036 523.497912 527.379444 530.014569
24.536667 518.369970 523.061455 526.715478 526.506409 530.109410 532.338380
24.670000 522.714648 526.263514 530.036929 529.624500 532.734725 534.696578
24.770000 525.946442 529.910503 533.177644 532.698360 535.224651 537.274682
24.870000 533.190005 535.863271 537.637012 537.842727 540.128479 542.899947
24.970000 536.583295 538.488395 540.575183 540.774663 543.313362 545.848301
25.070000 538.632615 540.663200 543.151557 543.236975 545.867223 548.024326
25.170000 540.506416 542.761738 545.486831 545.400867 547.992756 549.796707
25.270000 542.735915 545.060741 547.832239 547.579377 550.001644 551.807099
25.370000 544.734791 547.454143 550.015968 549.792679 552.009881 553.850539
25.470000 547.054453 549.848753 552.179148 551.984909 554.084800 556.042629
25.570000 549.495403 552.103138 554.500433 554.327239 556.401418 558.545206
25.670000 552.711862 554.664762 556.836170 556.806082 558.878128 560.940495
25.770000 555.288613 557.542702 559.581505 559.612570 561.759129 563.953394
25.870000 557.322965 559.609135 561.960461 561.961073 564.309981 566.361627
25.970000 559.741999 561.884075 564.227558 564.235675 566.617681 568.254808
26.070000 561.889288 564.179813 566.632898 566.478441 568.744495 570.231063
26.170000 564.643604 567.087346 569.317318 569.128213 571.117162 572.718065
26.270000 568.588498 571.090680 572.699885 572.668608 574.307701 576.515098
26.370000 572.596642 574.186720 575.792986 575.837246 577.549041 579.024301
26.470000 575.224513 577.128813 579.008867 578.841597 580.333390 581.890870
26.570000 579.988296 581.383324 582.739414 583.011653 584.849717 586.971671
26.670000 582.256089 583.781892 585.497002 585.626737 587.511580 589.708579
26.770000 584.223378 585.788225 587.721085 587.882861 589.967616 592.435562
26.870000 586.245047 587.903068 589.831346 590.056655 592.307425 595.020931
26.970000 588.505293 590.109166 592.057891 592.383738 594.846811 597.408325
27.070000 590.451568 592.219961 594.506938 594.738565 597.268548 599.680276
27.170000 592.144769 594.251005 596.992397 596.975328 599.585511 601.740229
27.270000 594.232796 596.506418 599.367117 599.228073 601.787371 603.683675
27.370000 596.117414 598.662489 601.718343 601.432294 603.955476 606.010552
27.470000 598.229723 600.848930 603.756282 603.539979 606.038121 608.170768
27.570000 601.146861 603.426721 605.862895 605.717783 607.734537 610.226510
27.670000 604.297777 606.272820 608.246875 608.224733 610.063388 612.470732
27.770000 606.915490 608.850780 610.590668 610.670748 612.600531 614.674020
27.870000 609.143535 611.233075 613.163014 613.218302 615.140190 617.546525
27.970000 612.180523 614.230955 616.360054 616.322041 618.400529 620.540516
28.070000 615.754817 617.852257 620.131358 620.024035 622.124142 623.873737
28.170000 621.314609 623.598340 625.213275 625.264474 627.068356 628.922221
28.270000 624.995260 626.583666 628.134461 628.274142 630.103032 632.221619
28.370000 627.139947 628.831436 630.626544 630.663833 632.589241 634.797970
28.470000 629.091005 630.903887 632.700231 632.731536 634.586869 636.983970
28.570000 630.864510 632.711703 634.681600 634.720658 636.689205 638.837403
28.670000 632.790442 634.659950 636.638287 636.636483 638.671464 640.589437
28.770000 634.811722 636.618268 638.590854 638.637125 640.700976 642.599685
28.870000 636.694370 638.589700 640.607697 640.626864 642.695585 644.675619
28.970000 638.601060 640.566918 642.652364 642.737742 644.720273 647.412459
29.070000 640.820721 642.903800 644.926132 645.007806 647.103234 650.343087
29.170000 642.745830 644.846814 646.972624 647.159625 649.305334 652.782622
29.260000 644.418789 646.603247 648.864780 649.078157 651.544027 655.216045
29.370000 646.323411 648.697177 651.190001 651.433184 654.277609 657.556911
29.470000 648.070780 650.613473 653.198033 653.494455 656.494755 660.135854
29.570000 650.103319 652.670721 655.425416 655.630666 658.721255 662.252926
29.670000 652.129153 654.871529 657.540965 657.890770 661.124408 664.920976
29.770000 654.150738 657.138825 659.961976 660.274392 663.672577 667.212282
29.870000 656.435778 659.217169 662.559691 662.640577 666.109252 669.908789
29.970000 658.579119 661.715087 665.090920 665.155076 668.676519 672.129160
30.070000 661.547314 664.353925 667.902475 667.849147 671.220074 674.589560
30.170000 664.185548 667.247827 671.027565 670.826799 674.079520 677.720431
30.270000 667.276018 670.373759 673.923598 673.875293 677.042220 680.427322
30.370000 671.142945 674.397063 677.223958 677.324498 680.279237 683.829902
30.470000 674.345928 677.866364 680.583800 680.499269 683.305127 685.977414
30.570000 677.364058 680.725150 683.609211 683.405396 686.058986 688.924772
30.670000 680.736564 683.993263 686.448836 686.316172 688.592240 691.163430
30.770000 685.338953 688.130652 690.083084 690.386654 692.646599 697.005184
30.870000 688.244579 690.781348 693.172537 693.617151 696.637473 701.394122
