depth(m) lower_95(kyr) lower_68(kyr) median(kyr) mean(kyr) upper_68(kyr) upper_95(kyr)
34.240000 319.089496 320.133118 320.681216 320.700610 321.174080 322.473512
34.270000 319.325870 320.343953 320.848779 320.872199 321.306819 322.610334
34.300000 319.560680 320.535948 320.993527 321.038573 321.434164 322.752266
34.330000 319.780698 320.706099 321.129648 321.192718 321.558309 322.883708
34.390000 320.173497 321.044016 321.404406 321.482114 321.805315 323.147003
34.420000 320.267851 321.180964 321.532169 321.622025 321.940025 323.352418
34.450000 320.454194 321.311889 321.660892 321.757026 322.061295 323.487679
34.555000 320.965612 321.716049 322.031064 322.150423 322.509282 323.924452
34.660000 321.454014 322.101851 322.409662 322.544903 322.926714 324.343810
34.780000 321.909340 322.511484 322.816970 322.957704 323.323311 324.724755
34.900000 322.340953 322.921239 323.214254 323.371835 323.724039 325.095414
34.990000 322.661620 323.254449 323.535015 323.688168 323.955458 325.437802
35.020000 322.833992 323.386520 323.644655 323.811766 324.115280 325.572362
35.110000 323.185173 323.715773 323.960217 324.145055 324.443479 325.896467
35.200000 323.540306 324.065904 324.273045 324.483627 324.880170 326.247958
35.210000 323.580384 324.106033 324.313819 324.525366 324.919771 326.287908
35.310000 323.940419 324.408738 324.645997 324.852584 325.204954 326.689587
35.410000 324.292837 324.708394 324.982995 325.181684 325.587531 326.978588
35.510000 324.584151 325.008985 325.322798 325.514181 325.975605 327.314564
35.610000 324.833065 325.303076 325.656737 325.843142 326.431251 327.654447
35.710000 325.137297 325.625496 326.005958 326.184925 326.804433 327.993157
35.810000 325.502264 325.916830 326.326814 326.512202 327.144379 328.351858
35.910000 325.818779 326.226905 326.683169 326.846510 327.490110 328.686787
36.054444 326.170360 326.627624 327.126776 327.287536 327.977151 329.117839
36.198889 326.578666 327.051595 327.601694 327.753843 328.471496 329.618793
36.343333 326.890322 327.475003 328.088742 328.210396 329.021933 330.017786
36.487778 327.288478 327.885987 328.567908 328.668375 329.497397 330.496558
36.632222 327.680641 328.314998 329.035099 329.132024 329.997504 330.927964
36.776667 328.088582 328.761139 329.497127 329.594661 330.490751 331.434036
36.921111 328.532743 329.201020 329.964406 330.069253 331.034901 331.914228
37.065556 328.908531 329.666962 330.442059 330.552129 331.539302 332.401626
37.210000 329.285016 330.150624 330.970185 331.053632 332.038774 332.954506
37.310000 329.616407 330.491976 331.375204 331.443369 332.423960 333.277115
37.410000 329.992596 330.862700 331.830249 331.865242 332.890544 333.725519
37.510000 330.392065 331.290444 332.291499 332.323626 333.355939 334.304905
37.640000 330.925852 331.880470 333.014864 333.018866 334.148976 335.277170
37.770000 331.520065 332.565462 333.771963 333.831159 335.062840 336.512677
37.898571 332.231579 333.397157 334.921243 334.956970 336.442464 338.491996
38.027143 333.170171 334.413876 336.085562 336.203524 337.948160 339.959989
38.155714 334.084824 335.629673 337.301642 337.476202 339.351081 341.355475
38.284286 335.128693 336.746483 338.772477 338.833479 340.804952 342.705984
38.412857 336.467103 338.077788 340.221470 340.232772 342.174089 344.211875
38.541429 337.808633 339.737834 341.476354 341.594373 343.643084 345.391986
38.670000 339.611993 341.137266 342.839376 342.935186 344.814533 346.519982
38.790000 340.775088 342.344199 343.967209 344.028390 345.788384 347.636755
38.910000 342.364038 343.492099 344.933486 345.102388 346.780937 348.424372
38.990000 343.053427 344.258882 345.721169 345.868756 347.567602 349.246592
39.070000 343.826010 345.068575 346.464554 346.635875 348.213907 349.828540
39.170000 344.973029 346.253786 347.591461 347.684939 349.091143 350.725790
39.270000 346.141932 347.361598 348.733836 348.758813 350.051848 351.996215
39.370000 347.321254 348.474903 349.829401 349.865740 351.141109 353.175743
39.470000 348.239962 349.495218 350.755190 350.869508 352.150997 354.311547
39.570000 349.073332 350.370463 351.650744 351.762919 353.141226 355.149381
39.670000 349.716565 351.058325 352.414124 352.557846 354.105825 355.944465
39.770000 350.170111 351.759611 353.175999 353.312762 354.931451 356.753923
39.870000 350.888522 352.444516 353.948287 354.068972 355.718053 357.457600
39.970000 351.489054 353.132599 354.860987 354.892881 356.706374 358.370887
40.070000 352.240523 353.805902 355.696217 355.697419 357.581951 359.491184
40.210000 353.030938 354.629953 356.772970 356.765181 358.796608 360.804500
40.290000 353.524412 355.102701 357.393597 357.358392 359.447453 361.354593
40.370000 353.967717 355.633052 358.013674 357.923806 360.089044 361.913203
40.483333 354.632081 356.277858 358.847088 358.725079 360.899455 363.069322
40.596667 355.371011 357.007937 359.639949 359.541724 361.685714 364.028788
40.710000 356.027299 357.769424 360.422370 360.312031 362.433275 365.042083
40.790000 356.405370 358.405587 360.956349 360.883571 363.087254 365.632904
40.870000 356.870054 358.878990 361.535801 361.452128 363.743586 366.409584
40.970000 357.311837 359.643500 362.127576 362.137651 364.640930 367.212980
41.070000 357.805571 360.231817 362.787703 362.849406 365.485824 368.050605
41.170000 358.297819 361.031428 363.408470 363.567735 366.321209 369.056920
41.270000 358.889284 361.725350 363.958963 364.320526 367.315903 370.230760
41.310000 359.150361 361.948084 364.199975 364.589671 367.796929 370.574876
41.440000 359.976265 362.736803 364.866282 365.458483 368.898296 371.667031
41.570000 360.921194 363.553333 365.506004 366.321870 370.122857 373.145441
41.710000 362.220156 364.483779 366.287346 367.317539 371.311171 374.151107
41.790000 362.794502 364.971304 366.949196 367.934379 372.117096 374.627783
41.870000 363.630608 365.649284 367.599395 368.601099 372.745225 375.229696
41.970000 364.704646 366.569831 368.642239 369.570113 373.544539 376.094751
42.070000 365.847598 367.518610 369.744080 370.616998 374.457532 376.917141
42.170000 367.006558 368.646580 371.123193 371.734705 375.451201 377.749022
42.270000 367.913435 369.875374 372.451552 372.877707 376.416448 378.531133
42.370000 368.789134 371.091924 373.864181 374.089338 377.377319 379.540898
42.490000 370.478959 372.789967 375.644554 375.737786 378.759050 381.170134
42.610000 372.078534 374.553629 377.486393 377.407922 380.214786 382.751057
42.730000 373.840832 376.383070 379.192263 379.140449 381.829585 384.423029
42.850000 375.901326 378.296592 380.732942 380.803654 383.393376 385.701318
42.970000 377.784142 380.072673 382.384752 382.493024 385.074249 387.190523
43.070000 379.202497 381.189623 383.519731 383.621512 386.093974 388.246328
43.210000 380.916227 382.793668 385.181089 385.198044 387.609444 389.527840
43.290000 381.533320 383.557929 385.877372 385.931438 388.460939 390.319839
43.370000 382.345302 384.297478 386.551982 386.621481 389.107635 390.866879
43.510000 384.068363 385.776324 387.999109 388.009252 390.244281 391.597130
43.590000 384.810109 386.543662 388.805458 388.716070 390.800694 392.137288
43.670000 385.411871 387.350707 389.572935 389.400935 391.501245 392.662653
43.765000 386.462218 388.242583 390.438391 390.221909 392.210684 393.183354
43.860000 387.332728 389.204682 391.240545 391.033574 392.824717 393.802615
43.970000 388.399220 390.351351 392.151068 391.927640 393.429101 394.424029
44.065000 389.079171 391.217696 392.879447 392.643817 394.006434 394.955195
44.160000 389.866705 392.063120 393.519629 393.328216 394.639249 395.447173
44.220000 390.304317 392.537815 393.865544 393.705185 394.982271 395.770173
44.320000 391.224003 393.142980 394.400427 394.261536 395.431776 396.240301
44.460000 392.331487 393.845609 395.080715 394.973327 396.142368 396.908645
44.593333 393.158729 394.453099 395.723789 395.642556 396.838424 397.632057
44.726667 393.941795 395.089781 396.331179 396.274978 397.489412 398.339220
44.860000 394.559073 395.663606 396.944938 396.921484 398.138912 399.025739
44.980000 395.112919 396.222551 397.493041 397.476014 398.689147 399.562453
45.100000 395.683130 396.770692 398.025991 398.003513 399.228928 400.092296
45.220000 396.120924 397.274463 398.549601 398.512694 399.760315 400.545669
45.362857 396.796345 397.858486 399.117583 399.097933 400.354355 401.188449
45.505714 397.427801 398.432662 399.681612 399.675902 400.947000 401.789445
45.648571 398.059346 398.986479 400.261965 400.248756 401.510279 402.470322
45.791429 398.710881 399.575869 400.795899 400.818420 402.088484 403.122684
45.934286 399.362433 400.138908 401.332032 401.391429 402.646109 403.644042
46.077143 399.855442 400.720247 401.884336 401.966098 403.230287 404.276566
46.220000 400.471612 401.266268 402.408736 402.533033 403.843564 404.897386
46.320000 400.904244 401.656518 402.843901 402.953595 404.265943 405.434229
46.420000 401.332210 402.076149 403.310341 403.375307 404.682560 405.831508
46.520000 401.810911 402.507289 403.722407 403.799569 405.109924 406.122136
46.620000 402.268002 402.923598 404.145630 404.223506 405.553517 406.570104
46.720000 402.653446 403.357641 404.572413 404.653352 405.981836 407.026831
46.820000 403.022543 403.754789 404.991203 405.075309 406.422784 407.475469
46.920000 403.455950 404.167060 405.428621 405.505292 406.881439 407.864710
47.053333 403.987561 404.690166 405.978363 406.048310 407.406176 408.460307
47.186667 404.607785 405.223976 406.517281 406.602561 407.965951 408.992126
47.320000 405.102894 405.779954 407.109021 407.164873 408.535529 409.474346
47.420000 405.520756 406.218111 407.554450 407.606710 409.004519 409.906875
47.520000 405.921012 406.650720 408.015049 408.059530 409.467325 410.385650
47.620000 406.387619 407.111997 408.469814 408.497675 409.898747 410.802540
47.720000 406.872662 407.557430 408.924140 408.950501 410.343174 411.240553
47.820000 407.288013 408.034751 409.410609 409.406021 410.769057 411.637134
47.953333 407.852143 408.611199 409.989371 409.996362 411.370412 412.214157
48.086667 408.461666 409.245474 410.634251 410.599585 411.940099 412.809533
48.220000 408.969563 409.861024 411.256824 411.207648 412.506704 413.441777
48.360000 409.637700 410.511997 411.938743 411.861078 413.132241 414.028651
48.440000 410.067984 410.931365 412.357057 412.269358 413.518028 414.397030
48.520000 410.496505 411.354339 412.738798 412.679773 413.912805 414.819266
48.653333 411.128650 412.069463 413.449153 413.363322 414.574127 415.544938
48.786667 411.723215 412.748556 414.126164 414.056741 415.324646 416.287450
48.920000 412.380314 413.411236 414.821014 414.745889 415.970795 417.133561
49.057778 413.082691 414.136008 415.556501 415.483497 416.712155 418.000060
49.195556 413.664415 414.835924 416.283660 416.226990 417.485916 418.846347
49.333333 414.335819 415.598581 417.025372 416.990285 418.219258 419.739096
49.471111 415.067994 416.332700 417.799694 417.769955 419.053390 420.765726
49.608889 415.792420 417.114409 418.547052 418.550565 419.968788 421.496961
49.746667 416.530789 417.982044 419.322445 419.354917 420.739647 422.361178
49.884444 417.276083 418.754997 420.184038 420.207996 421.667081 423.480785
50.022222 417.979134 419.587946 421.090011 421.140874 422.715732 424.515962
50.160000 418.932769 420.526140 422.135645 422.154092 423.797337 425.297302
50.220000 419.547542 421.092727 422.704089 422.711547 424.315261 425.757665
50.320000 420.752806 422.385920 424.096736 424.126257 425.886714 427.241222
50.420000 422.348481 423.956604 425.719056 425.684537 427.386475 428.894883
50.520000 424.354616 425.761059 427.265587 427.290486 428.821694 430.440476
50.615000 425.798289 427.359733 428.977537 429.091056 430.765663 433.533775
50.710000 427.931800 429.178955 430.657742 430.892590 432.472248 435.552471
50.760000 428.393842 429.843889 431.352929 431.567997 433.180603 436.453217
50.885000 429.904706 431.789343 433.802172 434.010130 436.312778 438.726794
51.010000 431.624196 434.090872 436.478106 436.507181 438.918992 441.288006
51.110000 432.984616 435.488205 438.203024 438.120506 440.623210 442.871691
51.210000 434.151897 437.266565 439.940391 439.767633 442.357702 444.339546
51.310000 435.164958 438.678484 441.474267 441.255811 443.868533 445.912957
51.410000 436.303656 439.674501 442.784817 442.516065 445.310114 447.568106
51.510000 438.055149 440.703188 444.097702 443.737399 446.412597 449.036704
51.610000 438.977372 441.830593 445.309081 444.943620 447.609422 450.145714
51.710000 439.849838 442.694322 446.273644 445.954741 448.866334 452.197463
51.810000 440.706011 443.464276 447.182436 446.913026 450.082739 453.462108
51.910000 441.359249 444.223612 448.113277 447.838861 451.162020 454.229986
52.038000 442.467352 445.389942 449.345318 449.059608 452.465110 455.451826
52.166000 443.293251 446.585875 450.496947 450.273913 453.674208 456.820555
52.294000 444.030474 447.699678 451.717028 451.509362 455.127193 458.044093
52.422000 444.854675 449.051782 453.100201 452.762789 456.300614 459.401683
52.550000 446.083918 450.242046 454.279551 453.970634 457.480361 460.458151
52.690000 447.637159 451.727393 455.685812 455.379460 458.848243 461.952368
52.830000 448.845783 453.281362 457.096652 456.835243 460.404639 463.322029
52.970000 450.103834 454.691798 458.511529 458.253189 461.899188 464.358189
53.110000 451.312479 456.270948 459.983452 459.621039 463.110776 465.887262
53.250000 452.374045 457.779520 461.338581 461.043751 464.325719 467.319015
53.370000 453.617920 458.923569 462.510401 462.198371 465.468357 468.641119
53.490000 454.958255 460.312830 463.661436 463.380334 466.593781 469.899972
53.610000 456.618585 461.483479 464.646430 464.509480 467.812132 470.996235
53.710000 457.559369 462.320405 465.616038 465.432617 468.867539 472.054901
53.810000 458.231571 463.220810 466.494797 466.341255 469.883997 473.275291
53.910000 459.460510 464.010525 467.482124 467.307867 470.897832 474.086796
54.010000 460.679624 464.908238 468.271082 468.259263 471.778887 475.079298
54.110000 462.042927 465.989481 469.258409 469.283002 472.805110 476.019227
54.210000 463.072466 466.930090 470.305504 470.276206 473.852241 476.912484
54.320000 464.511542 468.177555 471.447679 471.497215 475.040347 478.147579
54.430000 465.957937 469.396837 472.874638 472.774443 476.266427 479.150193
54.540000 467.390164 470.604643 474.262709 474.049873 477.343246 480.099050
54.650000 468.941606 472.154619 475.508885 475.343201 478.644431 481.068531
54.783333 470.993003 473.993427 477.131921 477.036210 479.986525 482.438535
54.916667 473.019489 476.031569 478.907750 478.711971 481.368511 483.696254
55.050000 474.837082 477.877854 480.453133 480.327248 482.746119 484.860710
55.150000 476.098064 479.051413 481.822917 481.580582 484.050894 486.142046
55.250000 477.240313 480.384046 483.087846 482.793321 485.198509 487.379195
55.350000 478.595962 481.627024 484.253722 484.001076 486.272213 488.498809
55.470000 479.725531 483.120751 485.456611 485.297523 487.559667 489.616157
55.590000 481.272967 484.359108 486.651638 486.504662 488.789606 490.609060
55.710000 482.948760 485.683115 487.769840 487.758959 489.918141 491.875945
55.830000 484.268471 486.734164 488.807582 488.830456 491.039104 492.991607
55.950000 485.422792 487.748757 489.837070 489.845099 492.074907 494.060133
56.070000 486.314470 488.629226 490.786210 490.770598 493.070079 495.246373
56.190000 487.136361 489.538527 491.606573 491.659713 493.920023 496.135188
56.310000 488.173195 490.313023 492.360225 492.519013 494.944747 497.040460
56.430000 489.034157 491.190812 493.263971 493.419068 495.897330 497.932470
56.550000 489.845711 492.121810 494.104765 494.301950 496.724692 498.791522
56.675000 490.909343 492.923240 495.038012 495.201517 497.556117 499.762486
56.800000 491.847261 493.952558 495.956912 496.104518 498.432436 500.630478
56.925000 492.952034 494.853306 496.881505 496.986243 499.219563 501.247746
57.050000 493.893053 495.659799 497.741525 497.844007 500.124102 502.105462
57.130000 494.398222 496.228360 498.301308 498.401298 500.531759 502.470570
57.210000 494.857263 496.830016 498.873054 498.934541 500.927069 502.888777
57.350000 495.858622 497.834624 499.927532 499.856240 501.759757 503.596161
57.430000 496.523055 498.322674 500.538770 500.406696 502.332360 504.067899
57.510000 497.143309 498.887428 500.998109 500.948596 502.885320 504.536694
57.630000 498.080783 499.799348 501.846743 501.769587 503.611248 505.311571
57.750000 499.030847 500.694380 502.614455 502.577199 504.458701 506.012638
57.870000 499.966408 501.581255 503.408028 503.354276 505.243651 506.935501
57.990000 500.814228 502.439972 504.194498 504.177742 505.935865 507.902964
58.110000 501.689901 503.285488 504.919847 504.978944 506.607180 508.775368
58.150000 502.010689 503.579116 505.182076 505.252132 506.866219 509.064814
58.280000 502.803726 504.452780 505.925525 506.092871 507.704438 510.025215
58.410000 503.779067 505.306111 506.710863 506.984598 508.651436 511.595040
58.550000 504.739485 506.253004 507.683583 508.002469 509.765225 513.105888
58.630000 505.180773 506.775086 508.240228 508.578414 510.445207 513.564731
58.710000 505.681615 507.283977 508.722643 509.151395 511.025066 514.053740
58.830000 506.528864 508.060177 509.686190 510.013681 512.150814 515.000739
58.950000 507.301772 508.864718 510.639274 510.939567 513.264902 515.776207
59.070000 508.033107 509.694427 511.570530 511.852491 514.261206 516.792038
59.190000 508.841268 510.488966 512.519920 512.750896 515.223418 517.563221
59.310000 509.477925 511.343963 513.420729 513.613459 516.040678 518.365039
59.416667 510.101788 512.115828 514.225984 514.388614 516.790386 519.140840
59.523333 510.863538 512.858719 515.062040 515.161106 517.563713 519.949199
59.630000 511.533674 513.592697 515.828079 515.921793 518.232577 520.593649
59.758571 512.440031 514.529215 516.769537 516.849757 519.210025 521.485537
59.887143 513.132536 515.452283 517.633522 517.718662 520.089416 522.268879
60.015714 513.966441 516.279778 518.516673 518.616331 521.079066 523.201195
60.144286 514.819214 517.105573 519.402193 519.476855 521.960786 524.225019
60.272857 515.607400 517.945198 520.306180 520.352901 522.867772 525.103070
60.401429 516.430196 518.804337 521.068050 521.201136 523.736477 525.830235
60.530000 517.341827 519.685077 521.960595 522.081073 524.673547 526.831575
60.658571 518.162065 520.524070 522.843096 522.921891 525.521135 527.633146
60.787143 518.773113 521.313351 523.761247 523.770660 526.273547 528.518924
60.915714 519.468286 522.127250 524.658381 524.617498 527.041838 529.332049
61.044286 520.329985 522.915955 525.513293 525.464461 527.903943 530.229375
61.172857 521.309779 523.887634 526.413926 526.372708 528.803472 531.159222
61.301429 521.990869 524.754410 527.354369 527.278926 529.700946 531.866210
61.430000 523.176755 525.688955 528.326742 528.217764 530.612700 532.731792
61.535000 523.985793 526.596310 529.096977 529.027209 531.401870 533.384147
61.640000 525.278048 527.525215 529.966151 529.876730 532.187198 533.972562
61.740000 526.135726 528.356235 530.767883 530.687299 532.860355 534.547002
61.840000 527.143998 529.322075 531.657332 531.546739 533.691454 535.251380
61.940000 528.332454 530.461174 532.539315 532.429778 534.427709 535.920719
62.030000 529.360709 531.432525 533.433500 533.293095 535.105345 536.637893
62.157500 530.690215 532.776525 534.710723 534.547071 536.157006 537.810274
62.285000 532.144248 534.214487 535.888502 535.808557 537.439986 538.830164
62.412500 534.007107 535.762445 537.094505 537.092036 538.564678 540.037594
62.540000 536.018108 537.117365 538.289267 538.367137 539.636086 540.938082
62.630000 536.716134 537.753757 538.986251 539.004939 540.222216 541.568387
62.735000 537.266735 538.404811 539.592499 539.645222 540.915431 542.216627
62.840000 537.776868 538.926159 540.246306 540.242987 541.502199 542.847922
62.980000 538.487245 539.601668 541.010129 540.977401 542.284031 543.557133
63.100000 539.122286 540.144049 541.672854 541.597139 542.905057 544.348611
63.220000 539.639510 540.735474 542.264607 542.209559 543.524235 545.003694
