depth(m) lower_95(kyr) lower_68(kyr) median(kyr) mean(kyr) upper_68(kyr) upper_95(kyr)
6.070000 296.734238 299.945230 302.904372 302.654580 305.341279 307.269963
6.120000 299.371524 302.460146 304.896173 304.756787 307.129624 308.958477
6.170000 302.062641 304.629877 306.853875 306.797476 308.943768 311.320199
6.220000 304.508302 306.679052 308.623286 308.740556 310.838107 313.137579
6.270000 306.985661 308.694663 310.697399 310.839092 313.118499 314.987076
6.320000 308.920264 310.583885 312.828458 312.866148 315.137829 316.692101
6.370000 310.593286 312.640530 315.064268 314.870220 316.998199 318.481745
6.420000 312.466516 314.860677 317.250087 316.880410 318.736709 319.964971
6.470000 314.806747 317.130925 319.024630 318.742035 320.301476 321.337665
6.520000 316.809025 319.199312 320.653468 320.409853 321.694113 322.621832
6.570000 319.181237 320.998181 322.133791 322.007597 323.096129 324.028988
6.620000 321.336249 322.577472 323.559981 323.512872 324.498624 325.520060
6.670000 323.150610 324.086692 325.020516 325.072695 326.102175 327.305175
6.720000 324.481601 325.471304 326.516232 326.552174 327.664539 328.938345
6.770000 325.908374 326.942800 328.018385 328.109268 329.281923 330.497724
6.820000 327.409787 328.574336 329.663285 329.737353 330.958228 332.101557
6.870000 328.827379 330.165382 331.352553 331.399159 332.682122 334.102222
6.920000 330.506087 331.882916 333.135127 333.214124 334.570798 336.165513
6.970000 333.158554 334.589887 336.073506 336.129263 337.693008 339.163993
7.020000 336.467427 337.805396 339.400900 339.381297 340.845267 342.377205
7.070000 338.467689 339.969950 341.259617 341.289404 342.542296 344.536563
7.120000 340.220633 341.577344 342.814935 342.883609 344.020495 346.205247
7.170000 341.798312 343.187751 344.355700 344.485777 345.658872 348.353242
7.220000 343.121081 344.705211 345.917899 346.192409 347.775062 350.797689
7.270000 344.577087 346.105754 347.325409 347.700035 349.263429 353.077078
7.320000 346.118824 347.498496 348.876324 349.360433 351.252874 355.185694
7.370000 347.542693 349.063948 350.651020 351.193217 353.840996 357.069130
7.420000 349.028987 350.676077 352.641227 353.144143 355.932222 358.788539
7.470000 350.773712 352.502303 354.810454 355.159313 357.999096 360.550100
7.520000 352.545105 354.571554 357.172280 357.228916 359.911664 362.114482
7.570000 354.535185 356.651648 359.312052 359.252238 361.735343 364.148211
7.620000 356.477422 358.894861 361.399792 361.229311 363.479859 365.785071
7.670000 358.380222 360.885406 363.255213 363.226741 365.386024 367.733773
7.720000 361.035724 363.041126 365.233162 365.192422 367.208308 370.079656
7.770000 363.269849 365.285934 367.067755 367.324511 369.465012 372.585775
7.820000 365.592306 367.308739 369.165549 369.645212 372.200540 375.975341
7.870000 367.624870 369.412925 371.714742 372.083484 374.900793 378.380757
7.920000 369.713162 371.548882 374.491730 374.607988 377.681183 380.973312
7.970000 371.634544 373.901034 376.984224 377.164092 380.372822 383.458606
8.020000 374.467712 377.456593 380.334820 380.521745 383.812263 386.846912
8.070000 378.502761 381.176752 384.189319 384.258281 387.567912 389.909178
8.120000 381.764757 384.270647 387.175516 387.117202 390.076746 391.962762
8.170000 384.463168 387.400898 389.857158 389.709306 392.228464 393.684332
8.220000 387.053133 390.249244 392.442208 392.200780 394.176944 395.681980
8.270000 391.488206 393.669740 395.175734 395.105905 396.644356 397.971890
8.320000 394.909650 396.403209 397.807860 397.827616 399.224381 400.788256
8.370000 397.266088 398.505344 399.850031 399.960324 401.351501 403.501606
8.420000 399.295291 400.673268 402.012123 402.228784 403.835148 406.470016
8.470000 401.403285 402.733509 404.321185 404.463236 406.235752 408.543074
8.520000 403.238933 404.750575 406.773914 406.794229 408.844153 410.559518
8.570000 405.304857 407.187639 409.389559 409.267443 411.178323 412.687266
8.620000 408.711779 410.959712 412.567677 412.481197 414.023712 415.440601
8.670000 412.617760 414.064042 415.443115 415.549900 417.092628 418.923404
8.720000 415.059910 416.359343 418.199132 418.373709 420.372545 422.623586
8.770000 417.170414 419.022576 421.772047 421.813697 424.367415 426.835429
8.820000 424.947575 427.164791 429.216694 429.100559 431.151500 432.754221
8.870000 428.477331 430.134587 431.664922 431.699917 433.340035 434.785875
8.920000 430.546033 432.069954 433.510572 433.566157 435.155313 436.495934
8.970000 432.340045 433.792554 435.305242 435.301210 436.816637 438.256622
9.020000 433.957455 435.605608 437.076809 437.072756 438.610523 439.974870
9.070000 435.863681 437.439557 438.920299 438.949561 440.465952 441.902590
9.120000 438.128603 439.427441 440.962940 441.032737 442.619485 444.352987
9.170000 440.049533 441.385934 443.095557 443.238029 445.033830 447.429212
9.220000 441.788112 443.311896 445.052745 445.380141 447.523598 450.793766
9.270000 443.622177 445.168629 447.004789 447.518947 450.197513 453.763806
9.320000 445.426689 447.017928 449.570969 449.964644 452.991905 456.861470
9.370000 447.266177 449.080571 452.121820 452.368006 455.698492 459.165055
9.420000 449.046944 451.186033 454.887858 454.911689 458.432772 461.761994
9.470000 451.285727 453.943194 457.710583 457.772382 461.243673 464.761059
9.520000 453.793356 456.942187 460.749682 460.608759 464.167501 467.846847
9.570000 457.125924 460.359452 463.627145 463.807257 467.133287 471.959171
9.620000 461.147548 464.447783 467.714244 468.057974 472.014931 476.469329
9.670000 466.706758 469.561427 472.920606 473.197463 477.346174 480.073783
9.720000 469.659194 473.398812 477.073136 476.806740 480.032549 482.173575
9.770000 473.076587 477.255492 480.126834 479.790723 482.395033 484.477966
9.820000 477.096138 480.242762 482.441038 482.313716 484.588612 486.502551
9.870000 480.352635 482.640287 484.708942 484.730414 486.828293 489.028724
9.920000 483.016649 485.299167 487.407925 487.444340 489.720870 491.520689
9.970000 485.067310 487.427284 489.621436 489.665554 492.097911 494.236865
10.020000 486.890930 489.291063 491.626532 491.682088 494.184870 496.397150
10.070000 488.819226 491.043555 493.678405 493.623334 496.092044 498.018190
10.120000 490.793007 493.101562 495.699606 495.590083 497.998654 499.726213
10.170000 492.927943 495.211708 497.742128 497.580269 499.932038 501.656073
10.220000 494.618892 497.366639 499.768787 499.600670 501.742373 503.378767
10.270000 496.947663 499.639450 501.854035 501.664261 503.681198 505.219167
10.320000 499.663983 502.178235 504.065496 503.951790 505.731157 507.325356
10.370000 502.578035 504.479047 506.224193 506.240537 508.049289 510.052713
10.420000 505.077600 506.651841 508.453587 508.549100 510.591597 512.734923
10.470000 506.848049 508.515253 510.537850 510.654067 512.899845 514.782190
10.520000 508.874599 510.589904 512.747374 512.754346 514.930544 516.717100
10.570000 510.725253 512.829128 514.988733 514.857696 516.775689 518.316256
10.620000 513.000026 515.052552 517.077646 516.895860 518.688212 520.160480
10.670000 515.240621 517.140990 518.968700 518.860810 520.540515 522.034934
10.720000 517.016049 519.058441 520.683629 520.657685 522.256078 523.730028
10.770000 518.743217 520.805027 522.340648 522.324236 523.977766 525.412958
10.820000 520.379128 522.402412 523.982176 523.949727 525.560679 527.208351
10.870000 521.915945 524.012009 525.702676 525.626424 527.297919 528.985885
10.920000 523.821887 525.717840 527.355741 527.361694 529.069577 530.615706
10.970000 525.857916 527.503437 529.182302 529.145205 530.786044 532.283209
11.020000 527.403152 529.344663 530.998483 530.966062 532.462539 534.073342
11.070000 529.161303 531.257148 532.971905 532.899669 534.486238 536.160935
11.120000 531.325641 533.249518 535.183920 535.246135 537.039560 540.373758
11.170000 533.463636 535.171882 537.186764 537.613880 540.120335 544.451668
11.220000 536.216055 537.733183 540.404358 540.910894 544.293130 548.277636
11.270000 538.214961 540.544684 544.234820 544.239783 547.928736 550.551239
11.320000 540.730240 543.720714 547.590166 547.312854 550.592443 552.882088
11.370000 543.634857 547.297616 550.799039 550.404676 553.350177 555.485972
11.420000 547.427226 551.233309 553.912096 553.674795 556.202858 558.618416
11.470000 552.586328 555.285133 557.436525 557.456158 559.751512 562.466785
11.520000 556.960824 559.364380 561.620813 561.703188 564.041558 566.815338
11.570000 559.400586 561.735654 564.174463 564.400901 567.219903 569.628288
11.620000 561.610037 564.091922 566.854132 567.104917 570.076010 572.512991
