depth(m) lower_95(kyr) lower_68(kyr) median(kyr) mean(kyr) upper_68(kyr) upper_95(kyr)
11.300000 303.347348 305.935293 307.684355 307.423814 308.889992 310.150940
11.330000 303.783283 306.658384 308.207517 307.958033 309.381132 310.689156
11.350000 304.160005 307.051138 308.526915 308.286921 309.667543 310.974210
11.380000 304.535041 307.568618 308.956366 308.771754 310.127279 311.475054
11.400000 304.904655 307.959397 309.223595 309.097693 310.431543 311.714595
11.430000 305.345105 308.541699 309.653234 309.565539 310.880725 312.252865
11.450000 305.582214 308.830501 309.937973 309.869874 311.201243 312.704931
11.480000 306.004897 309.229679 310.380113 310.304090 311.667781 313.087774
11.500000 306.346580 309.585217 310.643202 310.603538 311.965779 313.336992
11.530000 306.803991 309.995646 311.107958 311.045300 312.446316 313.737574
11.550000 307.020744 310.267190 311.426664 311.355167 312.791556 314.106313
11.580000 307.354021 310.633516 311.912710 311.833612 313.334246 314.679937
11.600000 307.740340 310.918236 312.267606 312.163024 313.695494 314.956329
11.630000 308.523440 311.424570 312.764815 312.670512 314.208071 315.698706
11.650000 308.865420 311.723227 313.129008 313.013822 314.518316 315.992185
11.680000 309.298258 312.250325 313.681551 313.578961 315.159436 316.572620
11.700000 309.698460 312.635689 314.066175 313.955955 315.550831 316.978830
11.730000 310.240932 313.133803 314.692131 314.576261 316.232754 317.458998
11.750000 310.507571 313.445476 315.148206 314.978470 316.603223 317.879617
11.780000 310.934939 313.957356 315.893901 315.594605 317.243396 318.499670
11.800000 311.612346 314.290748 316.309748 315.994753 317.660672 318.831867
11.830000 312.315691 314.831619 316.991733 316.627654 318.268787 319.416589
11.850000 312.666404 315.175673 317.414982 317.048647 318.704165 319.789769
11.880000 313.206839 315.813058 318.083355 317.685018 319.363386 320.445931
11.900000 313.539947 316.297233 318.505018 318.125790 319.824972 320.890480
11.930000 314.235772 316.927459 319.202929 318.831435 320.534704 321.519782
11.980000 315.143343 318.185960 320.430775 320.029378 321.799723 322.796602
12.010000 315.842752 318.912325 321.102705 320.738715 322.532579 323.638337
12.141429 318.574021 322.170711 324.871721 325.504805 329.036989 335.347038
12.272857 322.037935 325.743333 330.223365 330.545141 335.579476 340.580177
12.404286 325.587393 330.144108 335.557773 335.666400 341.236624 347.000086
12.535714 329.408147 334.249640 340.996590 340.882865 347.172052 352.777984
12.667143 334.516212 340.132130 346.483458 346.230736 352.346326 357.467723
12.798571 340.756912 346.326982 351.239131 351.308313 356.661761 360.545940
12.930000 348.806417 350.983621 356.160337 356.040839 360.893683 363.302670
12.950000 349.320116 351.554064 356.595730 356.507227 361.389503 363.646635
12.970000 349.915900 352.028736 357.056580 356.914364 361.845712 364.056686
12.990000 350.249386 352.418146 357.432686 357.275787 362.229236 364.405037
13.010000 350.538102 352.728790 357.785220 357.635985 362.576480 364.585594
13.030000 351.025756 353.165667 358.115135 357.988476 362.946072 364.912002
13.050000 351.342161 353.490957 358.413261 358.315970 363.254170 365.202906
13.090000 351.888134 354.101925 358.896665 358.918761 363.733223 365.851908
13.140000 352.449667 354.928433 359.599924 359.633762 364.258557 366.457774
13.268571 354.143340 356.904352 361.409910 361.346498 365.573346 367.821609
13.397143 355.850320 359.068023 363.100501 362.989529 366.872558 369.212950
13.525714 357.692961 360.969340 364.770302 364.603641 368.118780 370.595870
13.654286 360.002440 362.974891 366.408758 366.265679 369.362981 372.056987
13.782857 362.457870 364.735197 367.969809 367.837723 370.665664 373.231299
13.911429 364.689251 366.738126 369.538671 369.456293 372.024209 374.389775
14.040000 366.620797 368.521818 371.132908 371.036504 373.290925 375.622969
14.140000 368.117268 369.812176 372.424204 372.254603 374.397622 376.724276
14.200000 368.962464 370.555944 373.204516 373.035384 375.101686 377.489264
14.220000 369.319321 370.842168 373.467370 373.311044 375.357814 377.758114
14.260000 369.953494 371.389739 373.983004 373.825068 375.930083 378.264672
14.370000 371.293673 372.630685 375.166859 375.051922 377.041023 379.387473
14.480000 372.577251 373.908697 376.286275 376.239879 378.159146 380.501791
14.590000 373.771045 375.212784 377.312443 377.412696 379.412583 381.856479
14.700000 375.128407 376.598759 378.511488 378.632971 380.631896 382.988758
14.720000 375.375478 376.854395 378.739542 378.894023 380.935947 383.211302
14.740000 375.651262 377.157040 378.974369 379.155768 381.196132 383.368938
14.780000 376.112509 377.648548 379.462694 379.653741 381.676521 383.877539
14.820000 376.562176 378.210264 379.919589 380.156389 382.148767 384.265651
14.880000 377.425910 378.807366 380.676807 380.856944 382.864251 384.949369
15.025000 378.899381 380.173474 382.053726 382.321177 384.526460 386.300544
15.170000 380.491984 381.542908 383.520648 383.830244 386.144890 388.060074
15.180000 380.617301 381.677436 383.641680 383.963283 386.289442 388.151343
15.200000 380.798025 381.908377 383.925015 384.219920 386.555699 388.370392
15.280000 381.762211 382.723961 384.941026 385.127862 387.473521 389.140897
15.425000 383.173267 384.153587 386.637839 386.633955 389.121736 390.534625
15.570000 384.305382 385.559943 388.120033 388.150889 390.725984 391.922055
15.590000 384.694788 385.816956 388.408389 388.411420 390.965279 392.122617
15.600000 384.850918 385.954249 388.536531 388.558505 391.121465 392.313137
15.620000 385.081789 386.216984 388.880114 388.860489 391.435540 392.549298
15.630000 385.270855 386.383064 388.986314 389.025097 391.591674 392.691621
15.640000 385.444063 386.540587 389.215162 389.196985 391.759003 392.839622
15.720000 386.819287 388.096149 391.267749 390.649169 392.851350 393.766471
15.850000 389.298204 391.403121 393.472267 393.116107 394.607105 395.610028
15.980000 393.652463 394.591753 395.515165 395.473954 396.344366 397.112146
16.000000 394.038797 394.885556 395.851940 395.805283 396.672732 397.413010
16.020000 394.326023 395.240848 396.158534 396.112552 396.976193 397.748894
16.060000 394.871547 395.769298 396.659079 396.645015 397.504321 398.276930
16.100000 395.358454 396.286417 397.172566 397.179565 398.093477 398.879307
16.160000 396.006057 397.025726 397.891767 397.926679 398.878200 399.766933
16.280000 397.164486 398.243202 399.228730 399.240864 400.285495 401.223084
16.400000 398.451954 399.452042 400.518122 400.545768 401.647884 402.588636
16.520000 399.607917 400.711603 401.901424 401.874390 403.014406 404.036214
16.640000 400.949937 401.918530 403.179335 403.164814 404.364927 405.332913
16.753333 402.055947 403.235762 404.549955 404.441974 405.627567 406.569700
16.866667 403.324102 404.585269 405.862133 405.753237 406.891414 407.625621
16.980000 404.664810 406.054672 407.238000 407.102992 408.157172 408.641549
17.000000 404.906261 406.385028 407.563219 407.383311 408.392790 408.871382
17.020000 405.185310 406.694870 407.879632 407.680818 408.666533 409.102748
17.040000 405.473246 406.977689 408.203847 407.972859 408.924217 409.313218
17.100000 406.591497 407.798242 408.991533 408.748549 409.607631 409.969476
17.120000 406.904593 408.137953 409.284325 409.036345 409.868280 410.215022
17.130000 407.025895 408.293669 409.424578 409.181508 409.989868 410.324881
17.160000 407.467277 408.749388 409.849385 409.584943 410.353947 410.681434
17.180000 407.806211 409.055512 410.097203 409.862220 410.594075 410.923868
17.200000 408.228944 409.340447 410.342600 410.141462 410.852918 411.174412
17.220000 408.552745 409.621481 410.613027 410.421265 411.103621 411.444732
17.270000 409.482680 410.364545 411.235908 411.070870 411.662131 412.036593
17.300000 410.026036 410.911562 411.620385 411.498032 412.059515 412.441578
17.320000 410.549359 411.237502 411.905869 411.815823 412.328963 412.872424
17.340000 410.922236 411.638186 412.205458 412.161684 412.634091 413.237289
17.350000 411.087470 411.846698 412.351589 412.333265 412.832893 413.459852
17.370000 411.495896 412.218886 412.658548 412.690655 413.210412 413.822020
17.380000 411.658855 412.416383 412.823575 412.866089 413.435207 414.019048
17.390000 411.938692 412.571624 412.974875 413.042192 413.640633 414.151643
17.410000 412.226065 412.837862 413.276293 413.367126 414.048485 414.534279
17.430000 412.602300 413.109082 413.576408 413.679936 414.408279 414.837303
17.450000 412.873729 413.375647 413.920485 413.996124 414.746901 415.154566
17.460000 413.011163 413.493277 414.112544 414.160615 414.901885 415.356693
17.470000 413.179785 413.619203 414.284007 414.329357 415.078569 415.528021
17.480000 413.343468 413.740381 414.503481 414.488119 415.248749 415.701006
17.500000 413.562321 413.967276 414.892330 414.794851 415.577019 416.035576
17.520000 413.803708 414.182430 415.252400 415.073029 415.852277 416.282037
17.540000 414.050714 414.405958 415.569698 415.346461 416.145761 416.517165
17.560000 414.291882 414.613963 415.875968 415.606831 416.408539 416.765740
17.570000 414.406730 414.735959 416.029491 415.741596 416.553444 416.922476
17.580000 414.554959 414.856344 416.167654 415.876362 416.677645 417.114047
17.620000 414.951646 415.257000 416.695446 416.353800 417.157856 417.663904
17.640000 415.166050 415.484376 416.968327 416.610014 417.410298 417.947023
17.650000 415.310072 415.605288 417.108494 416.751732 417.552355 418.143512
17.660000 415.420319 415.731350 417.266572 416.895845 417.690394 418.309978
17.670000 415.563456 415.873644 417.423518 417.048289 417.853939 418.446158
17.680000 415.706960 416.010455 417.569776 417.195853 417.997977 418.571213
17.690000 415.860367 416.147201 417.722856 417.347979 418.144304 418.745184
17.720000 416.198085 416.568457 418.112795 417.771365 418.622758 419.132287
17.730000 416.319239 416.706798 418.248221 417.925633 418.777613 419.263228
17.740000 416.465571 416.861412 418.401286 418.087388 418.961410 419.406000
17.750000 416.607486 417.020989 418.562880 418.250452 419.134419 419.601645
17.760000 416.768294 417.175271 418.718038 418.420416 419.298788 419.739623
17.770000 416.918148 417.344647 418.894670 418.595248 419.477127 419.893525
17.780000 417.052989 417.528061 419.088855 418.765873 419.628063 420.025393
17.790000 417.191981 417.704908 419.276699 418.948928 419.785381 420.241629
17.800000 417.347472 417.881066 419.471890 419.137051 419.941922 420.454464
17.810000 417.546086 418.068064 419.636634 419.319898 420.094999 420.656015
17.820000 417.710600 418.240043 419.811090 419.495519 420.270900 420.794716
17.830000 417.842191 418.419692 419.986908 419.670832 420.425033 420.972284
17.840000 418.005077 418.639476 420.158182 419.850728 420.605885 421.141289
17.850000 418.225953 418.841542 420.335088 420.032928 420.775488 421.312430
17.870000 418.552093 419.205862 420.633172 420.390743 421.117016 421.656515
17.880000 418.728153 419.480399 420.785114 420.570120 421.292233 421.839137
17.890000 418.897418 419.703927 420.945564 420.749925 421.470031 421.974039
17.900000 419.098269 419.923877 421.122321 420.935919 421.647024 422.148292
17.920000 419.535582 420.400782 421.469884 421.315306 422.028235 422.427314
17.930000 419.676114 420.626459 421.641221 421.507225 422.208186 422.671770
17.940000 419.869882 420.882572 421.812007 421.702110 422.393293 422.851830
17.950000 420.071901 421.135029 422.025781 421.903902 422.607840 423.011499
17.960000 420.272811 421.389715 422.242044 422.111553 422.800231 423.183234
17.970000 420.543313 421.635722 422.459423 422.329453 423.006096 423.446894
17.990000 421.126966 422.233429 422.918820 422.832406 423.459740 423.973501
18.000000 421.372598 422.465215 423.140103 423.060112 423.692225 424.235862
18.010000 421.679084 422.698290 423.368283 423.304037 423.916001 424.488758
18.020000 421.936647 422.992705 423.642738 423.576415 424.203990 424.722503
18.030000 422.251584 423.286141 423.922002 423.879051 424.519936 425.107448
18.050000 423.265027 424.065165 424.717003 424.705950 425.362684 426.076569
18.060000 423.640772 424.364356 425.026147 425.035243 425.725143 426.522078
18.110000 428.830088 429.673501 430.347818 430.350379 431.035297 431.828929
18.180000 436.700271 437.505834 438.167785 438.174198 438.840852 439.526090
18.260000 445.640673 446.402275 447.041383 447.025599 447.680749 448.410555
18.270000 445.991878 446.768997 447.379452 447.395086 448.032311 448.798937
18.310000 450.070782 450.795435 451.422780 451.412933 452.025827 452.656930
18.320000 450.386761 451.121994 451.746850 451.735593 452.338562 452.947877
18.330000 450.768846 451.434543 452.039514 452.023312 452.639302 453.295645
18.340000 450.997015 451.709801 452.321770 452.311792 452.921295 453.577542
18.350000 451.314152 451.978297 452.589951 452.587293 453.183772 453.896949
18.360000 451.680198 452.261519 452.854239 452.860710 453.462035 454.115484
18.370000 451.939768 452.500072 453.104863 453.113264 453.709903 454.380440
18.380000 452.209178 452.775315 453.361760 453.376300 453.987623 454.612377
18.390000 452.499990 453.047962 453.620267 453.635785 454.217737 454.897386
18.400000 452.758730 453.298924 453.895486 453.901144 454.447677 455.229839
18.410000 453.031082 453.556792 454.126441 454.165884 454.754490 455.516730
18.420000 453.252540 453.817032 454.374587 454.427079 455.022121 455.893984
18.430000 453.482539 454.075982 454.615635 454.686738 455.296527 456.325976
18.440000 453.736685 454.379186 454.877236 454.966730 455.566135 456.740385
18.450000 454.085578 454.628029 455.151017 455.251832 455.857657 457.118720
18.460000 454.270239 454.881017 455.441877 455.534386 456.113749 457.485740
18.470000 454.594576 455.195352 455.728880 455.833473 456.411252 457.810691
18.480000 454.808589 455.449564 456.037464 456.133940 456.731390 458.319821
18.490000 455.195127 455.717725 456.351130 456.451677 457.109155 458.680061
18.500000 455.480582 456.026980 456.671899 456.786036 457.490788 459.030509
18.510000 455.801507 456.393625 457.028833 457.150525 457.867150 459.408339
18.520000 456.140775 456.778081 457.416784 457.544233 458.329898 459.772379
18.530000 456.492925 457.184914 457.804483 457.947924 458.736655 460.191391
18.540000 456.926768 457.570394 458.221598 458.370789 459.175218 460.677405
18.550000 457.316230 457.976404 458.696929 458.801337 459.651153 460.982596
18.560000 457.662339 458.429012 459.186078 459.259559 460.102905 461.396158
18.570000 458.085940 458.867809 459.635876 459.701722 460.532526 461.947737
18.580000 458.502064 459.316307 460.105067 460.154861 460.995015 462.310045
18.590000 458.870287 459.769039 460.572583 460.611621 461.422705 462.686773
18.600000 459.294062 460.279153 461.027393 461.076195 461.876639 463.148454
18.610000 459.788617 460.720374 461.508277 461.547983 462.360125 463.506888
18.620000 460.303157 461.251055 462.012903 462.058185 462.877114 464.052011
18.630000 460.930662 461.764080 462.513034 462.568182 463.373649 464.525615
18.640000 461.326590 462.248644 463.046467 463.079401 463.923989 465.048144
18.650000 461.909756 462.744808 463.581157 463.597510 464.425282 465.529911
18.660000 462.502100 463.293448 464.084787 464.100294 464.942493 466.076626
18.670000 462.926897 463.763100 464.546976 464.586194 465.406304 466.529793
18.680000 463.387477 464.298297 465.059023 465.077918 465.888287 466.991214
18.690000 463.792648 464.693113 465.505106 465.511199 466.342391 467.264685
18.700000 464.217119 465.174828 465.922408 465.952848 466.761596 467.624446
18.710000 464.714412 465.687736 466.417231 466.411417 467.196350 467.975657
18.720000 465.238069 466.077580 466.865580 466.861138 467.616028 468.405144
18.730000 465.582029 466.522898 467.274523 467.256971 468.025195 468.717294
18.740000 465.940090 466.920089 467.645575 467.634104 468.373954 469.090612
18.750000 466.466461 467.266747 467.973460 467.954861 468.673415 469.415291
18.760000 466.716914 467.559432 468.261055 468.264901 468.977375 469.707909
18.780000 467.937650 468.621630 469.244646 469.226784 469.821964 470.522019
18.790000 468.309460 468.954787 469.552071 469.535504 470.112694 470.795290
18.800000 468.631984 469.256122 469.837263 469.816275 470.346560 471.028081
18.810000 468.969576 469.544986 470.080122 470.078779 470.600850 471.213215
18.820000 469.198268 469.828151 470.317522 470.326476 470.842149 471.395538
18.830000 469.463204 470.076315 470.559960 470.566264 471.059407 471.684842
18.840000 469.756312 470.329790 470.788969 470.797315 471.255283 471.991965
18.850000 470.041164 470.563716 471.004552 471.018378 471.482679 472.237020
18.860000 470.243680 470.794019 471.231877 471.239662 471.681493 472.455061
18.870000 470.451988 471.006062 471.448119 471.454563 471.875923 472.623775
18.880000 470.698335 471.267371 471.683249 471.676042 472.088812 472.842732
18.890000 470.956923 471.461642 471.875535 471.886158 472.286358 473.105538
18.900000 471.161996 471.665405 472.080623 472.092105 472.507688 473.363277
18.910000 471.404536 471.877128 472.265652 472.301381 472.737937 473.528857
18.920000 471.554229 472.094064 472.463259 472.510799 472.958778 473.773569
18.930000 471.799490 472.275726 472.671468 472.728226 473.201706 473.987178
18.940000 471.965380 472.472139 472.867298 472.942018 473.446671 474.235778
18.950000 472.186028 472.662834 473.085884 473.146915 473.653879 474.401453
18.960000 472.390886 472.815698 473.322666 473.360346 473.895854 474.642451
18.970000 472.562037 473.009419 473.556505 473.562619 474.111412 474.884162
18.980000 472.762524 473.193552 473.764021 473.770841 474.321037 475.019409
18.990000 472.996124 473.406433 474.002888 473.988043 474.513960 475.253355
19.000000 473.156634 473.651308 474.249180 474.214437 474.757771 475.449539
19.010000 473.281928 473.871469 474.449353 474.429615 474.957418 475.669442
19.020000 473.422067 474.075858 474.696663 474.644364 475.179771 475.836729
19.030000 473.618128 474.296239 474.906143 474.861363 475.436829 476.052351
19.040000 473.799713 474.514318 475.106988 475.076704 475.650351 476.292468
19.050000 473.912773 474.697911 475.304731 475.293240 475.882328 476.567012
19.060000 474.055694 474.916852 475.522361 475.512133 476.132982 476.875394
19.080000 474.475918 475.385208 476.010861 476.006172 476.716459 477.400129
19.100000 474.906294 475.810539 476.494649 476.503438 477.274886 477.978485
19.120000 475.313366 476.271243 476.994726 476.975042 477.726657 478.386810
19.140000 475.724276 476.664830 477.454378 477.393305 478.123131 478.693809
19.160000 476.159942 477.099630 477.869489 477.790737 478.497543 478.917536
19.180000 476.611036 477.472263 478.234546 478.149153 478.829161 479.194111
19.200000 476.965996 477.864886 478.579652 478.484990 479.123818 479.499653
19.220000 477.285979 478.197017 478.891701 478.795119 479.384843 479.746747
19.260000 478.009806 478.793489 479.413649 479.315863 479.839676 480.105195
19.320000 478.986398 479.589362 480.089686 480.007055 480.418929 480.677703
19.350000 479.478806 480.004654 480.450151 480.376124 480.754756 480.970931
19.370000 479.745898 480.282366 480.686215 480.618758 480.959096 481.153116
19.380000 479.901147 480.421319 480.804786 480.742051 481.068819 481.262816
19.420000 480.444144 480.939603 481.251534 481.194360 481.467918 481.638993
19.430000 480.609680 481.077590 481.371117 481.320327 481.576326 481.741446
19.450000 480.894695 481.356184 481.598991 481.554504 481.785118 481.952561
19.460000 481.053232 481.492807 481.716392 481.679086 481.901333 482.062308
19.470000 481.205735 481.640208 481.840389 481.807326 482.020843 482.178319
19.480000 481.363030 481.769881 481.960201 481.926984 482.124407 482.283680
19.500000 481.647238 482.003623 482.179817 482.152196 482.341616 482.489050
19.510000 481.831967 482.123426 482.293026 482.269567 482.454743 482.589914
19.520000 481.983068 482.255551 482.415864 482.392501 482.571278 482.708195
19.530000 482.134560 482.374701 482.534690 482.514047 482.689591 482.828117
19.540000 482.261398 482.497447 482.653582 482.635880 482.812745 482.962711
19.550000 482.378796 482.623481 482.770595 482.758814 482.927833 483.073715
