depth(m) lower_95(kyr) lower_68(kyr) median(kyr) mean(kyr) upper_68(kyr) upper_95(kyr)
6.170000 296.075777 298.975192 302.030975 301.883709 304.923741 307.116041
6.220000 299.056919 301.514190 304.056933 304.046754 306.798940 308.735606
6.270000 300.956169 303.533108 306.295895 306.122698 308.614995 310.486753
6.320000 303.145580 305.195913 308.462573 308.081650 310.648743 312.505841
6.340000 303.786836 305.860299 309.279253 308.811990 311.400508 313.170972
6.390000 305.219004 307.376847 310.594184 310.328486 313.116125 314.855972
6.440000 306.774048 308.797548 312.211978 311.955547 314.859913 316.565231
6.490000 308.520117 310.616494 313.990485 313.710835 316.467972 317.958835
6.540000 310.398607 312.735629 316.163397 315.659838 318.104607 319.266964
6.590000 312.349614 315.218347 318.183724 317.622160 319.688230 320.614319
6.640000 315.098703 317.659905 319.896943 319.481923 321.137352 322.067440
6.690000 317.452951 319.785468 321.441085 321.125590 322.429471 323.250785
6.740000 319.947396 321.656628 322.811508 322.671144 323.693969 324.460601
6.790000 322.632965 323.452028 324.269997 324.280936 325.120966 326.076622
6.840000 324.016641 324.839964 325.611541 325.669555 326.520471 327.666608
6.890000 325.207875 326.027463 326.879557 326.913393 327.850760 328.743934
6.940000 326.371314 327.173109 328.049051 328.120770 329.065161 330.125781
6.990000 327.548428 328.413239 329.294621 329.327716 330.275903 331.340018
7.040000 328.652699 329.582824 330.499129 330.544501 331.517166 332.512866
7.090000 329.802084 330.783182 331.816711 331.852346 332.908644 333.928253
7.190000 332.355934 333.521109 334.690180 334.744606 336.035366 337.291351
7.290000 335.764579 337.056750 338.363689 338.425915 339.786981 341.245083
7.340000 337.763699 338.847601 340.416669 340.627811 342.509273 344.577246
7.390000 339.139777 340.317468 341.934032 342.282721 344.521879 346.949183
7.440000 340.480394 341.597562 343.360626 343.798791 346.157159 349.016505
7.490000 341.751224 342.993990 344.729870 345.226638 347.671326 350.769376
7.590000 344.077414 345.452551 347.446507 348.043659 350.882587 354.739006
7.640000 345.240632 346.748130 348.993293 349.708351 353.143680 356.689348
7.690000 346.628107 348.203119 350.866355 351.631027 355.676155 358.784122
7.740000 347.834759 349.746597 353.575950 353.748807 357.880125 360.445948
7.790000 349.209576 351.538624 356.565377 356.062538 359.815101 362.114432
7.840000 350.747850 353.959788 359.266664 358.409876 361.875205 363.845008
7.890000 352.266355 356.822950 361.652612 360.738737 364.094289 366.063460
7.940000 354.061424 359.562897 363.800356 363.044413 366.304431 368.166704
7.990000 356.090075 362.271274 366.005807 365.383919 368.570419 371.428710
8.040000 358.091377 364.572887 367.786621 367.549194 370.762210 374.404234
8.090000 361.167733 366.685060 369.894817 369.774796 373.115198 376.621159
8.190000 366.923458 371.150920 374.863515 374.691119 378.001149 382.388964
8.290000 373.580662 378.200151 381.741027 381.747967 385.659212 388.785521
8.390000 380.301516 384.184371 387.620867 387.290761 390.441443 392.975561
8.490000 385.858391 389.824891 392.824835 392.499286 395.086323 397.460957
8.590000 395.465064 397.854080 400.216767 400.392791 402.761616 406.890667
8.690000 401.053756 403.216341 405.548421 405.719220 408.384261 410.878531
8.790000 406.604215 408.715237 411.270667 410.986654 412.991588 414.992669
8.890000 412.514593 414.569555 416.263653 416.480061 418.527637 421.248336
8.990000 417.786833 419.846582 422.155844 422.157529 424.455902 426.425235
9.090000 424.061160 426.379075 428.133400 428.036414 429.730812 431.414596
9.190000 428.779404 430.527832 432.239089 432.242233 434.011816 435.852423
9.290000 432.293737 433.934240 435.776088 435.723342 437.481406 439.339086
9.390000 435.490209 437.469956 439.266146 439.305563 441.167984 443.035222
9.440000 437.982448 439.676822 441.556487 441.631836 443.463219 445.800630
9.540000 442.345216 444.136874 446.251247 446.605032 449.131322 453.130309
9.640000 445.546444 447.830380 450.790239 451.187182 454.689379 458.859504
9.740000 448.951147 451.647433 455.386369 455.630457 459.712997 463.771386
9.840000 453.116017 456.192608 460.205985 460.331334 464.352334 468.366227
9.940000 457.171043 461.563458 465.498901 465.513511 469.576423 473.903488
10.040000 462.848562 467.142727 471.159795 471.266348 475.833490 478.371048
10.140000 469.060938 473.448449 478.080230 477.553437 481.303600 483.581193
10.240000 475.814600 480.512038 484.007867 483.594885 486.518846 489.033864
10.340000 481.369323 485.265128 488.447733 488.198545 490.960740 493.757461
10.440000 485.806705 488.700880 492.091833 491.875385 495.040003 497.220386
10.540000 489.541187 492.118408 495.428385 495.336413 498.421439 500.752711
10.640000 493.129993 496.020297 499.157518 498.984301 501.810698 504.115541
10.740000 497.675225 500.508521 503.291380 503.171156 505.626584 507.839336
10.840000 503.495711 505.886904 508.268584 508.380295 510.784194 514.065711
10.940000 508.069832 510.365133 512.694798 512.889089 515.617513 518.520618
11.040000 512.107349 514.901003 517.285394 517.461159 520.238581 523.503551
11.140000 517.184748 519.998217 522.696359 522.681640 525.355819 528.163883
11.240000 520.721720 524.492244 527.443800 527.370561 530.205800 532.846869
11.340000 526.159765 529.322088 532.112089 532.031723 534.747937 538.571260
11.440000 532.087173 534.648053 537.189401 537.856232 541.249368 546.674021
11.540000 537.398662 539.783717 544.170041 544.217806 548.644390 551.801756
11.640000 542.131417 546.442673 551.164225 550.390878 553.702436 555.930110
11.740000 549.586023 554.067245 556.521362 556.348620 558.861337 561.235653
11.840000 555.228801 558.263145 560.494811 560.561900 563.052660 565.587478
11.940000 560.544649 562.587229 564.933653 564.917620 567.216555 569.403859
12.040000 564.392262 566.611429 569.089495 568.929508 571.099466 572.940771
12.140000 568.294938 570.887905 572.958408 572.880610 574.898063 577.100659
12.240000 572.249131 574.832486 576.808912 576.792496 578.770932 581.059210
12.340000 576.991394 579.047720 580.885557 581.187202 582.964414 588.260592
12.440000 581.350631 583.250091 585.664519 586.185052 589.135283 593.329997
12.540000 585.207448 587.694993 590.608847 590.960555 593.798248 600.236156
12.640000 588.855411 591.848758 594.584690 595.143466 598.057635 606.773916
12.740000 592.610544 595.560819 598.125578 598.926806 601.759613 611.599605
12.820000 596.019529 598.765099 601.238950 602.093314 604.677762 615.179818
12.840000 597.197322 599.739008 602.286174 603.097513 605.730150 616.071677
12.920000 601.190112 603.962009 607.005384 608.191711 614.268866 618.429942
12.940000 602.399818 605.225454 608.845337 609.621891 615.328904 619.064707
13.020000 607.070263 613.115730 617.645085 616.774020 620.359460 622.139347
13.040000 608.320626 614.332021 618.936453 617.997876 621.316136 623.009719
13.120000 620.212156 622.135314 623.981377 624.058987 625.782098 628.421501
13.140000 621.618092 623.363326 625.075839 625.165312 626.779863 629.800992
13.220000 625.414255 627.529875 629.426688 629.569470 631.494331 634.320189
13.320000 629.019894 631.417461 634.152198 634.309087 637.358946 640.586195
13.420000 632.606210 635.068230 637.939345 638.286472 641.544990 644.819191
13.520000 636.079703 638.447888 641.647453 641.844007 645.265313 649.130076
13.620000 639.457968 641.866005 645.037918 645.311529 648.783528 652.588256
13.720000 642.460103 645.207147 648.495097 648.777799 652.319174 656.722761
13.820000 645.527514 648.380105 652.168085 652.235409 655.869098 659.896901
13.920000 648.604692 651.900554 655.863177 655.893294 659.909662 663.786894
14.020000 652.100276 655.279192 659.756967 659.562732 663.663397 667.648307
14.120000 655.727990 659.487795 663.745044 663.737320 667.892254 671.615472
14.220000 659.749266 664.229164 668.645887 668.507200 672.788194 676.960739
14.320000 665.406831 670.821670 674.905823 674.837764 679.018411 683.597140
14.420000 674.184147 678.546586 683.344652 682.803729 686.592625 689.747626
14.520000 683.883851 689.407572 692.570997 692.606795 696.158570 700.129529
14.620000 690.074878 694.655238 698.658399 698.686045 702.726079 706.990859
14.720000 694.870297 699.548149 704.797828 704.791192 709.643848 715.834587
