depth(m) lower_95(kyr) lower_68(kyr) median(kyr) mean(kyr) upper_68(kyr) upper_95(kyr)
25.060000 294.301464 298.443533 301.511453 301.452360 304.537390 308.393914
25.202857 296.879350 300.324096 303.373184 303.415648 306.591891 310.396269
25.345714 298.602892 302.114008 305.264796 305.268620 308.477626 312.372353
25.488571 300.029175 303.849717 306.969229 307.076185 310.332235 314.445143
25.631429 302.326217 305.609441 308.767520 308.925320 312.334691 316.183406
25.774286 305.207303 307.597746 310.552068 310.832704 314.220498 318.025101
25.917143 306.646351 309.419514 312.511600 312.737582 316.205863 320.212751
26.060000 308.517204 311.340357 314.303861 314.710526 318.485811 322.135527
26.200000 310.369687 313.100987 316.064969 316.668711 320.967920 325.345966
26.340000 312.148798 314.768269 317.758219 318.676421 323.403397 328.635568
26.480000 314.120103 316.667148 319.520366 320.733360 326.203368 331.049094
26.620000 315.781425 318.497360 321.266336 322.784738 329.034695 333.449978
26.760000 317.894638 320.521640 322.951837 324.977504 332.094289 336.283174
26.903750 319.670835 322.682425 325.744092 327.557917 334.514119 339.318882
27.047500 321.673274 324.988506 328.569175 330.252223 337.158387 342.719789
27.191250 323.670072 327.264426 331.836422 333.056754 340.040348 346.224500
27.335000 325.734192 329.620132 335.342902 335.972417 343.026939 349.322090
27.478750 328.057171 332.547927 338.544244 338.898951 345.812412 351.847390
27.622500 330.319506 334.993416 341.430968 341.859779 348.856113 355.217715
27.766250 332.948875 337.742602 344.539499 344.883305 351.786371 358.160835
27.910000 335.619061 341.185426 347.813111 347.897046 354.652338 360.639910
28.053750 338.315444 344.550281 351.310093 351.101441 357.523915 363.609308
28.197500 341.056131 347.600910 354.839297 354.420820 361.160759 366.667247
28.341250 343.772035 350.786529 357.788487 357.654295 364.721319 370.207435
28.485000 346.741878 354.188340 360.779234 360.759454 367.524916 373.581734
28.628750 349.942858 357.780673 364.005366 363.906581 370.197425 376.443365
28.772500 353.513187 361.516906 367.329922 367.219866 373.122443 379.072763
28.916250 358.818941 365.130475 370.743258 370.587776 376.221665 381.784119
29.060000 363.011306 368.690617 374.272609 374.012539 379.383676 384.240685
29.200000 366.328578 372.577537 378.004089 377.920955 383.696702 387.974458
29.340000 370.709259 376.510086 382.183471 381.837694 387.481527 391.285011
29.480000 374.785951 380.778550 386.258795 385.844206 391.032975 394.350276
29.620000 379.386960 385.352900 390.755601 389.993608 394.199782 396.852504
29.760000 384.329193 390.355852 394.550345 393.924052 397.355743 399.895199
29.897500 388.993604 393.932083 397.738275 397.310548 400.571796 403.784171
30.035000 392.483524 397.130358 400.844005 400.626046 404.065677 407.525143
30.172500 397.029341 400.883469 404.342405 404.224154 407.756397 410.831104
30.310000 401.814115 404.710548 408.112444 407.964033 411.016271 413.600268
30.435000 405.467814 409.456136 412.659432 412.562192 415.531609 419.081147
30.560000 412.273814 414.518741 417.084971 417.146998 419.592695 422.566632
30.697500 414.871542 417.773081 420.881947 421.496305 424.933810 431.707014
30.835000 417.934829 420.800760 424.391464 425.321279 430.785449 437.461908
30.972500 420.700940 424.002269 427.127338 429.029582 436.020779 441.983302
31.110000 424.308296 427.042090 430.009812 432.567430 440.472149 445.787969
31.250000 426.914227 430.014597 434.158885 435.917789 443.131526 448.132068
31.390000 429.569927 433.335522 438.478899 439.129483 445.303742 450.539409
31.530000 432.586675 437.083285 442.322143 442.289885 447.499115 452.600621
31.670000 435.357743 440.445030 445.217819 445.129909 449.529137 454.825645
31.810000 437.983647 443.755938 447.830560 447.699572 451.589620 456.436210
31.943333 440.485438 445.966372 449.887167 449.729132 453.477865 458.187462
32.076667 442.409842 447.926276 451.733550 451.617320 455.524246 459.679166
32.210000 444.409043 449.609998 453.463484 453.392425 457.288027 461.223106
32.343333 446.060909 451.316211 455.156648 455.145554 458.912263 463.489117
32.476667 448.133297 453.317637 456.960489 456.942216 460.816653 465.433362
32.610000 450.116988 455.102672 458.706697 458.678091 462.542095 467.315020
32.750000 451.685863 456.803768 460.417139 460.429031 464.073255 469.196805
32.890000 453.373436 458.686495 462.143489 462.202938 465.950830 470.896524
33.030000 455.220358 460.238248 463.792840 463.968758 467.632559 472.744575
33.170000 457.166869 462.069769 465.426692 465.759757 469.445948 475.302102
33.310000 459.173287 463.912256 467.166574 467.539933 471.189658 477.690742
33.443333 461.352591 465.502013 468.914232 469.446111 472.699084 481.885764
33.576667 462.918719 467.272023 470.628452 471.400696 474.387424 489.547986
33.710000 465.013565 469.025179 472.310852 473.347635 476.303633 494.766196
33.843333 466.693460 470.830223 473.979971 475.335010 477.857029 500.429819
33.976667 469.046274 472.805574 475.766644 477.407450 479.787161 505.756914
34.110000 470.736760 474.793513 477.528315 479.654074 481.785709 510.315340
34.250000 473.142692 477.287365 480.599423 482.844701 486.313529 513.095030
34.390000 475.301996 479.785806 483.873867 486.176479 490.992010 516.166024
34.530000 478.372622 482.476413 487.642671 489.583904 494.604277 518.384120
34.670000 482.075450 485.643390 491.704921 493.297920 498.438834 521.000413
34.810000 485.167743 488.820798 495.624765 496.868419 501.944439 523.368383
34.943333 487.703290 492.596426 498.969124 500.407430 506.488380 524.935187
35.076667 490.339969 495.869094 502.575120 503.948885 510.676495 526.207147
35.210000 493.206279 499.831178 506.446015 507.775833 516.312458 528.059731
35.343333 497.384241 503.627152 510.463940 511.691241 521.319232 529.634796
35.476667 502.166044 507.648137 514.081745 515.416473 525.224100 531.433728
35.610000 507.005197 511.393851 517.682793 519.127533 528.538875 533.521940
35.750000 510.917949 515.926371 522.608469 523.189487 531.388097 535.075028
35.890000 514.415028 520.250518 527.723043 527.123952 533.750518 537.239117
36.030000 519.283418 525.597286 531.826084 530.982820 535.976620 538.986629
36.170000 523.926864 530.896412 535.161585 534.531831 538.131421 540.839087
36.310000 530.556818 535.407745 537.839073 537.690534 540.256565 542.792029
36.410000 532.606246 536.729809 539.277896 539.142419 541.729616 544.175690
36.543333 534.869106 538.482174 540.948305 540.841074 543.369009 546.080022
36.676667 536.640910 540.110954 542.545324 542.481967 544.935402 547.668854
36.810000 538.571825 541.665338 544.171345 544.096937 546.506742 549.123090
36.943333 540.418848 543.224626 545.664808 545.645757 547.926765 550.805668
37.076667 541.940467 544.891675 547.203073 547.186480 549.523740 552.251704
37.210000 543.726829 546.515049 548.626253 548.708691 550.955974 553.476442
37.350000 545.531216 548.099117 550.210512 550.386152 552.509713 555.736564
37.490000 547.316850 549.675271 551.787072 552.091807 554.200787 558.460427
37.630000 549.085291 551.234474 553.286934 553.760240 555.882629 561.776439
37.770000 550.948954 552.749245 554.874343 555.494517 557.502676 563.801771
37.910000 552.607341 554.380394 556.510118 557.292076 559.375994 567.012391
38.043333 553.957553 555.916722 558.201814 559.172278 561.647132 571.508424
38.176667 555.502735 557.361491 559.760376 561.000029 563.913085 574.648195
38.310000 556.885170 558.801849 561.420160 562.864631 566.080646 577.007675
38.443333 558.305708 560.317336 563.138603 564.694626 568.260004 580.430394
38.576667 559.522628 561.786915 564.902958 566.578078 570.392713 584.636491
38.710000 561.072809 563.320910 566.965005 568.629748 573.078182 587.842141
38.850000 562.506556 564.868274 569.208219 570.814730 576.313585 589.431648
38.990000 563.750731 566.375212 571.627398 573.019664 579.783059 591.775772
39.130000 565.079143 567.805775 574.319963 575.296702 583.468708 594.018407
39.270000 566.308691 569.213584 577.488989 577.524204 586.595847 595.397692
39.410000 567.735268 570.681885 579.989646 579.686667 590.062412 597.109642
39.543333 569.475524 572.633253 581.936116 581.863556 591.953781 598.444134
39.676667 571.182611 574.614614 584.215364 584.194742 593.911126 599.958247
39.810000 573.135186 576.611952 586.608941 586.338024 595.963719 601.282519
39.943333 574.672777 578.698250 588.898174 588.499484 597.952081 602.389948
40.076667 576.915274 580.914937 591.365963 590.689452 599.546689 603.640256
40.210000 578.811968 583.031480 593.440846 592.835264 601.111517 604.955506
40.354444 581.132789 586.204964 595.500130 594.993839 602.986337 606.298989
40.498889 583.173707 589.470664 597.806582 597.129924 604.458236 607.874331
40.643333 585.969412 592.525755 599.880131 599.368918 605.943584 609.082647
40.787778 588.550925 595.442392 602.156607 601.510034 607.395367 610.312016
40.932222 591.772200 598.423114 604.160862 603.618487 608.938831 611.570503
41.076667 595.064402 601.254506 606.210827 605.702556 610.474299 612.944417
41.221111 598.779110 604.093784 608.224910 607.788243 611.722243 614.259009
41.365556 602.121307 606.817086 610.035546 609.784232 613.183365 615.466080
41.510000 606.113984 609.246064 611.769330 611.749616 614.561721 616.944126
41.610000 607.810365 610.626315 613.105606 613.056634 615.662260 617.861849
41.710000 609.362473 611.848948 614.447369 614.348597 616.968517 619.153781
41.830000 611.081181 613.621645 616.072975 616.040128 618.664037 621.120063
41.950000 612.606082 615.261542 617.836270 617.723636 620.328912 622.797226
42.070000 614.584265 616.896186 619.691073 619.514546 621.901916 624.721299
42.190000 616.263869 618.961792 621.309256 621.188128 623.420122 625.735554
42.310000 617.945707 620.667820 622.953220 622.820613 625.020295 627.449321
42.450000 619.652190 622.198034 624.530810 624.484091 626.805085 629.943330
42.590000 621.118805 623.725368 625.994137 626.108106 628.507866 632.475007
42.730000 622.667173 625.099720 627.456953 627.698405 630.252289 634.632054
42.870000 624.316532 626.608953 628.831874 629.252571 632.035184 636.368566
43.010000 625.574466 628.056615 630.340362 630.818488 633.648187 638.299773
43.143333 626.807626 629.355811 631.924354 632.486515 635.781035 640.950162
43.276667 628.026463 630.611514 633.568830 634.157364 637.807372 642.887188
43.410000 629.231975 631.919166 635.414183 635.822684 639.874125 645.131868
43.543333 630.520938 633.082896 637.142421 637.519694 641.827282 646.746768
43.676667 631.557693 634.362354 638.961437 639.189014 643.713986 649.214045
43.810000 632.821798 635.532179 640.754708 640.780702 645.736937 651.189125
43.950000 633.890424 636.993240 642.489397 642.396211 647.429034 652.641717
44.090000 635.132311 638.462489 644.167474 643.945074 649.296143 654.445711
44.230000 636.373237 639.748382 645.731582 645.503023 650.837816 655.956353
44.370000 637.473542 640.956705 647.480974 647.036432 652.430215 657.551090
44.510000 638.483767 642.314618 648.919873 648.569991 653.992327 659.304539
44.643333 639.830415 643.844849 650.628009 650.138229 655.700931 660.917374
44.776667 641.156099 645.112266 652.142968 651.686754 657.381824 663.098133
44.910000 642.673032 646.682301 653.601242 653.258105 659.069392 665.254395
45.043333 644.154675 648.221518 655.263561 654.902850 660.712820 666.937030
45.176667 645.430039 650.063186 656.787138 656.503583 662.386209 668.366992
45.310000 646.780756 651.315682 658.390932 658.011344 663.723618 670.489504
45.451176 647.881142 652.988783 659.751673 659.528640 665.228147 672.211710
45.592353 649.214214 654.320035 661.248907 661.000136 666.571834 674.297422
45.733529 650.988789 655.901670 662.603763 662.476029 668.128225 676.235779
45.874706 652.176593 657.561661 663.918768 663.913931 669.553940 677.587959
46.015882 653.747335 659.107267 665.282875 665.325801 670.882095 679.179688
46.157059 655.039720 660.754280 666.698134 666.767683 672.270805 681.152913
46.298235 656.304483 662.228009 668.156191 668.211097 673.654167 682.849282
46.439412 657.630370 663.789089 669.587008 669.673345 674.995446 684.809540
46.580588 659.052969 665.456815 670.988501 671.127934 676.321199 686.756149
46.721765 660.828234 666.772532 672.385601 672.568417 677.672174 688.465413
46.862941 662.125744 668.379264 673.688951 674.025907 678.950187 690.286429
47.004118 663.381419 669.898768 675.145749 675.463967 680.049735 694.655261
47.145294 664.844649 671.496371 676.721397 676.941021 681.416955 696.226162
47.286471 667.212011 673.197423 678.304842 678.500589 682.896707 699.307886
47.427647 668.648979 674.732657 679.792041 680.032313 684.295733 701.064516
47.568824 670.282236 676.228897 681.108730 681.602739 685.787019 702.855703
47.710000 672.419770 678.093396 682.708558 683.333966 687.284955 705.540258
