depth(m) lower_95(kyr) lower_68(kyr) median(kyr) mean(kyr) upper_68(kyr) upper_95(kyr)
88.017000 296.663506 299.609274 301.894026 301.999202 304.701266 306.403781
88.146667 297.135737 300.073110 302.257251 302.379773 305.106320 306.777202
88.276333 297.592223 300.472538 302.592805 302.759190 305.472561 307.118038
88.406000 297.920534 300.814308 302.941368 303.120602 305.781633 307.526311
88.542364 298.360659 301.211278 303.262787 303.484527 306.097765 307.870881
88.678727 298.833442 301.609853 303.580821 303.845850 306.418961 308.186811
88.815091 299.342542 301.984423 303.998277 304.200281 306.703510 308.482678
88.951455 299.738025 302.383846 304.358294 304.547335 306.975371 308.710543
89.087818 300.171663 302.731388 304.739668 304.896462 307.295667 309.015960
89.224182 300.682517 303.026196 305.073183 305.240372 307.637496 309.331274
89.360545 301.013082 303.367581 305.418480 305.582321 307.921194 309.644131
89.496909 301.416755 303.766232 305.726393 305.928496 308.278572 310.159172
89.633273 301.856266 304.149735 306.070565 306.272306 308.580505 310.664789
89.769636 302.026707 304.467779 306.419464 306.614720 308.909435 311.072804
89.906000 302.408753 304.763576 306.763190 306.939190 309.275767 311.355401
90.033714 302.741065 305.063972 307.034826 307.235422 309.523626 311.658165
90.161429 302.954018 305.422518 307.307277 307.538567 309.777348 311.952416
90.289143 303.286410 305.653299 307.636780 307.832264 310.089679 312.305881
90.416857 303.619949 305.998399 307.984196 308.136626 310.442627 312.606163
90.544571 304.009739 306.273063 308.305779 308.432010 310.672202 312.934165
90.672286 304.260606 306.536112 308.591938 308.717580 310.966580 313.216005
90.800000 304.450495 306.820171 308.957959 309.013241 311.243759 313.578069
90.940250 304.876496 307.164950 309.252726 309.343417 311.635644 313.839592
91.080500 305.155604 307.474001 309.583652 309.659663 311.912500 314.093648
91.220750 305.416513 307.771327 309.892137 309.977239 312.182369 314.399586
91.361000 305.739439 308.098392 310.221753 310.294049 312.493738 314.616954
91.501250 306.000839 308.436719 310.628025 310.618445 312.795618 314.918133
91.641500 306.301762 308.776004 311.000417 310.935631 313.098344 315.142500
91.781750 306.587377 309.031998 311.376078 311.255048 313.403331 315.338195
91.922000 306.828233 309.351064 311.725288 311.590049 313.697901 315.679247
92.062250 307.103521 309.674627 312.117512 311.919226 314.008977 316.009145
92.202500 307.421253 310.000396 312.456469 312.252963 314.372678 316.336832
92.342750 307.689157 310.341120 312.790690 312.581008 314.746223 316.639591
92.483000 307.958849 310.656369 313.117373 312.911173 315.052220 316.933780
92.623250 308.248612 310.967841 313.485293 313.244810 315.423841 317.215196
92.763500 308.482788 311.391823 313.842147 313.582991 315.704511 317.583671
92.903750 308.751431 311.696346 314.195395 313.923486 316.029944 317.940860
93.044000 309.137224 312.032902 314.522428 314.259559 316.375031 318.268559
93.184250 309.399454 312.428973 314.901999 314.608209 316.717576 318.527912
93.324500 309.747835 312.799566 315.287829 314.961271 317.098818 318.885368
93.464750 310.131688 313.111894 315.639894 315.325142 317.440863 319.270698
93.605000 310.596261 313.553753 316.002157 315.700835 317.818381 319.567345
93.697500 310.880927 313.850166 316.246940 315.983114 318.077671 319.764681
93.790000 311.313375 314.090775 316.551107 316.266925 318.352658 320.011069
93.922000 311.793347 314.527413 316.914852 316.688444 318.683609 320.430767
94.054000 312.284079 315.142979 317.371410 317.139816 319.056691 320.723016
94.186000 312.785353 315.715021 317.825418 317.614298 319.521279 321.067039
94.317286 313.341453 316.187375 318.344828 318.099833 319.949880 321.599285
94.448571 313.861332 316.753541 318.873080 318.608773 320.433780 321.995676
94.579857 314.430819 317.400579 319.451868 319.158459 320.924712 322.385331
94.711143 314.916111 317.990068 319.965432 319.694000 321.411124 322.764612
94.842429 315.540241 318.537571 320.530548 320.227735 321.911784 323.340995
94.973714 316.017122 319.075514 321.015540 320.769537 322.442684 323.770950
95.105000 316.514449 319.588320 321.599838 321.316308 323.003233 324.187070
95.207000 317.086109 320.012297 321.994217 321.766386 323.463490 324.667380
95.309000 317.505875 320.410242 322.506386 322.229222 323.910444 325.358949
95.411000 317.725266 320.918393 323.031668 322.703249 324.388677 325.847806
95.545200 318.479901 321.507123 323.642301 323.340190 325.094621 326.681332
95.679400 319.254346 322.031322 324.140024 323.979435 325.831891 327.641078
95.813600 319.889611 322.603639 324.776478 324.624507 326.576145 328.559255
95.947800 320.618322 323.156353 325.385084 325.285416 327.303120 329.194270
96.082000 321.163223 323.794543 326.057227 325.958513 328.148545 329.986345
96.216200 321.781481 324.427992 326.727847 326.645779 328.882030 330.978047
96.350400 322.647690 324.974011 327.342711 327.309054 329.650209 331.581700
96.484600 323.390238 325.679708 328.067916 328.011616 330.413815 332.431870
96.618800 323.950317 326.331612 328.762574 328.721357 331.112690 333.180556
96.753000 324.624878 326.978488 329.543989 329.447170 331.836693 333.780884
96.890667 325.485730 327.874777 330.273818 330.248312 332.642678 334.635540
97.028333 326.217950 328.817356 331.081242 331.063580 333.368140 335.541980
97.166000 327.233006 329.751901 331.950846 331.919752 334.163841 336.311791
97.303667 328.188916 330.615285 332.886879 332.792707 334.939473 337.052156
97.441333 329.115898 331.621759 333.717380 333.643838 335.630741 337.823511
97.579000 330.196736 332.491986 334.570113 334.494586 336.431105 338.563269
97.716667 331.051888 333.368363 335.386882 335.318772 337.150691 339.103794
97.854333 332.245105 334.463471 336.237687 336.202471 337.953545 339.790934
97.992000 333.244240 335.329722 337.118748 337.086213 338.779960 340.710254
98.129667 334.557643 336.334661 337.970863 337.972690 339.479223 341.339553
98.267333 335.677208 337.189514 338.850917 338.811064 340.155467 342.179650
98.405000 336.841772 338.201116 339.638571 339.636295 340.869071 343.125912
98.519333 337.449441 338.786701 340.250840 340.261863 341.585772 343.704644
98.633667 337.930557 339.396692 340.871068 340.862988 342.143485 344.326388
98.748000 338.475895 340.011241 341.425790 341.427844 342.678560 344.801044
98.870600 339.059938 340.514691 341.935503 341.968867 343.220727 345.442481
98.993200 339.488111 341.020130 342.364868 342.468097 343.785649 346.088146
99.115800 339.972945 341.530967 342.884659 342.975945 344.326852 346.775158
99.238400 340.462917 342.006589 343.362391 343.471671 344.898231 347.495403
99.361000 340.927612 342.445421 343.801440 343.944411 345.333523 348.069197
99.478250 341.484380 342.852977 344.212780 344.396256 345.900662 348.382592
99.595500 341.701462 343.256300 344.645962 344.824787 346.395739 349.014932
99.712750 342.190926 343.666764 345.019468 345.234103 346.791525 349.446383
99.830000 342.585439 343.984214 345.448542 345.653065 347.275077 349.743959
99.967273 342.959997 344.389363 345.940176 346.138121 347.823525 350.187771
100.104545 343.418929 344.768401 346.446604 346.601205 348.394692 350.694199
100.241818 343.758574 345.205692 346.930380 347.083276 349.015468 351.343457
100.379091 344.061922 345.552163 347.485347 347.576791 349.605218 351.761517
100.516364 344.397732 345.987618 348.008562 348.070160 350.171358 352.319839
100.653636 344.719170 346.338979 348.512702 348.566315 350.753101 353.001188
100.790909 345.018795 346.697552 349.023464 349.060423 351.309869 353.611665
100.928182 345.360349 347.102239 349.605535 349.557409 351.841053 354.139920
101.065455 345.730927 347.478212 350.054126 350.054207 352.454373 354.657484
101.202727 346.137221 347.825331 350.559965 350.517946 352.976677 355.218498
101.340000 346.437014 348.225451 351.138206 350.996612 353.458080 356.042870
101.484000 346.733570 348.519918 351.670850 351.476989 353.957845 356.472918
101.628000 347.045460 348.887287 352.207417 351.966450 354.502456 356.883022
101.772000 347.348353 349.285218 352.743288 352.461941 355.020761 357.504068
101.916000 347.622973 349.713313 353.194457 352.941520 355.505395 357.898538
102.060000 347.877554 350.115524 353.708918 353.430587 356.172916 358.454318
102.204000 348.215521 350.541095 354.194667 353.933037 356.777758 358.939917
102.348000 348.531967 350.887461 354.726940 354.420164 357.345263 359.435304
102.492000 348.835548 351.206857 355.286638 354.914246 357.908167 359.786085
102.636000 349.075625 351.678113 355.821091 355.413438 358.441620 360.248608
102.780000 349.393752 352.037294 356.337085 355.889409 358.931099 360.638804
102.890500 349.692918 352.432832 356.703415 356.252393 359.256949 360.823505
103.001000 350.003843 352.770105 357.038689 356.612657 359.668042 361.210615
103.111000 350.232730 353.148330 357.359108 356.971167 360.010751 361.505305
103.220667 350.503128 353.470107 357.710351 357.337592 360.406566 361.784923
103.330333 350.783569 353.896469 358.089414 357.697316 360.721102 362.149877
103.440000 351.064226 354.372258 358.399101 358.059050 361.040381 362.532008
103.545333 351.632984 354.707957 358.782098 358.409958 361.336942 362.894571
103.650667 352.057340 355.186665 359.093986 358.754597 361.648973 363.179587
103.756000 352.418207 355.593749 359.466331 359.087839 361.961608 363.453169
103.889545 352.944192 356.181717 359.836071 359.506624 362.316787 363.900657
104.023091 353.543231 356.906875 360.264196 359.929177 362.641812 364.380727
104.156636 354.060427 357.607654 360.716396 360.357259 362.932740 364.878976
104.290182 354.441449 358.085840 361.270805 360.791676 363.294015 365.246239
104.423727 355.026988 358.640133 361.673876 361.206886 363.609340 365.655622
104.557273 355.480570 359.143363 362.089872 361.609429 363.955435 366.159610
104.690818 355.823097 359.636826 362.577749 362.028551 364.271057 366.518231
104.824364 356.264876 360.147877 362.915808 362.440473 364.649554 366.845279
104.957909 356.651193 360.532976 363.268316 362.863147 365.001217 367.330720
105.091455 357.208765 360.902464 363.670709 363.261976 365.428870 367.721499
105.225000 357.858227 361.316533 363.996188 363.654491 365.847347 368.196317
105.256000 357.936440 361.435076 364.098458 363.745241 365.919514 368.308750
105.398000 358.293949 361.860438 364.462892 364.152134 366.355772 368.689675
105.540000 358.883328 362.325412 364.827808 364.554623 366.719356 369.073667
105.682000 359.486473 362.683750 365.209089 364.950763 367.109967 369.568182
105.824000 359.881846 363.059075 365.605929 365.365959 367.581208 369.872214
105.966000 360.308780 363.442995 365.977466 365.764508 367.956367 370.317799
106.108000 360.580511 363.850735 366.381099 366.149744 368.357920 370.630447
106.250000 361.352282 364.232797 366.799290 366.538283 368.871534 370.935520
106.392000 361.824405 364.583502 367.127008 366.926311 369.272194 371.326351
106.534000 362.169832 364.909524 367.478176 367.306499 369.664764 371.663130
106.676000 362.507527 365.279939 367.841330 367.672966 370.122315 372.260172
106.820833 362.855264 365.601170 368.205078 368.042340 370.481774 372.623831
106.965667 363.199181 365.933619 368.516814 368.405433 370.926532 373.000898
107.110500 363.593693 366.273133 368.816815 368.751125 371.342875 373.338479
107.255333 363.784005 366.617290 369.160513 369.089720 371.713514 373.679332
107.400167 364.365172 366.952004 369.483969 369.435926 372.066050 374.103358
107.545000 364.665951 367.250222 369.824259 369.759528 372.372262 374.434935
107.689833 365.003167 367.553929 370.103948 370.095618 372.769555 374.880830
107.834667 365.298457 367.855986 370.408144 370.430811 373.205713 375.125740
107.979500 365.617410 368.115089 370.688392 370.759660 373.628807 375.403145
108.124333 365.986911 368.465109 371.006573 371.085151 374.037865 375.792944
108.269167 366.417373 368.778267 371.284335 371.403936 374.342865 376.139381
108.414000 366.724604 369.058483 371.574150 371.720016 374.701448 376.441444
108.558833 367.000441 369.348155 371.853743 372.037196 375.040431 376.804288
108.703667 367.323371 369.687644 372.137594 372.362093 375.465149 377.149182
108.848500 367.610293 370.042100 372.433097 372.679045 375.819111 377.416015
108.993333 368.057023 370.297605 372.735997 372.998507 376.185667 377.720629
109.138167 368.313897 370.620583 373.079655 373.318956 376.528227 378.005936
109.283000 368.630517 370.919259 373.405094 373.637630 376.829162 378.416260
109.424421 368.938657 371.180616 373.732273 373.948769 377.147893 378.820683
109.565842 369.210997 371.467801 374.001803 374.257249 377.469737 379.128356
109.707263 369.465739 371.743679 374.326142 374.561902 377.759994 379.461729
109.848684 369.812427 372.052171 374.604497 374.867888 378.077837 379.831575
109.990105 370.077461 372.350328 374.918797 375.176576 378.349737 380.118155
110.131526 370.327974 372.593310 375.238892 375.489330 378.692540 380.476031
110.272947 370.585884 372.938595 375.555257 375.795796 378.968236 380.755136
110.414368 370.909714 373.225339 375.854289 376.103042 379.247621 381.045757
110.555789 371.148046 373.531015 376.182522 376.409608 379.554754 381.399192
110.697211 371.359005 373.858981 376.535578 376.723248 379.872407 381.681466
110.838632 371.563450 374.137700 376.846477 377.033339 380.203805 381.892254
110.980053 371.848256 374.460175 377.212082 377.348112 380.496008 382.196576
111.121474 372.167221 374.760580 377.528977 377.667420 380.847942 382.538910
111.262895 372.354174 375.097368 377.923772 377.983015 381.134104 382.796014
111.404316 372.669244 375.373041 378.252170 378.293022 381.438119 383.061861
111.545737 372.946147 375.680319 378.588451 378.609892 381.789457 383.398634
111.687158 373.283594 375.983476 378.883381 378.924667 382.102475 383.689683
111.828579 373.482027 376.300470 379.222687 379.253275 382.429312 383.995496
111.970000 373.785353 376.661570 379.592129 379.570523 382.687927 384.370758
112.115111 374.019133 376.981811 379.925048 379.916449 383.000267 384.692035
112.260222 374.346714 377.294925 380.277377 380.260625 383.346831 385.036169
112.405333 374.774079 377.616153 380.690267 380.614562 383.717382 385.354775
112.550444 375.097460 377.927696 381.106532 380.967390 384.063013 385.618189
112.695556 375.561611 378.242982 381.563881 381.324425 384.392591 385.969116
112.840667 375.893534 378.657376 381.948907 381.687671 384.720963 386.341848
112.985778 376.242560 379.050045 382.298594 382.051871 385.031203 386.770964
113.130889 376.626271 379.412921 382.670057 382.436091 385.404147 387.140769
113.276000 377.081331 379.762376 383.103866 382.823042 385.787737 387.445962
113.412364 377.556945 380.092598 383.483788 383.185245 386.121120 387.763008
113.548727 377.993704 380.378554 383.885147 383.565480 386.475387 388.032445
113.685091 378.232517 380.692195 384.301772 383.931407 386.834519 388.502649
113.821455 378.633256 381.086645 384.677182 384.308699 387.168737 388.869863
113.957818 379.118954 381.626363 385.053382 384.701124 387.538216 389.083332
114.094182 379.391887 381.949735 385.466626 385.091010 387.900659 389.498963
114.230545 379.757678 382.276832 385.903546 385.497764 388.270845 389.844977
114.366909 380.129489 382.702495 386.297124 385.895082 388.703053 390.284129
114.503273 380.571603 383.126752 386.737939 386.303396 389.099107 390.664743
114.639636 380.853774 383.545500 387.163792 386.713404 389.460930 391.187580
114.776000 381.255852 384.032570 387.669068 387.125591 389.880753 391.460949
114.918400 381.633596 384.467033 388.105469 387.537981 390.353907 391.837119
115.060800 382.056861 384.911856 388.568619 387.971879 390.746488 392.281525
115.203200 382.375900 385.381870 388.948259 388.414949 391.202423 392.765076
115.345600 382.732438 385.810731 389.353627 388.851511 391.590277 393.145460
115.488000 383.021444 386.263175 389.777745 389.305775 392.040430 393.566861
115.597333 383.337909 386.664948 390.086014 389.672975 392.387732 394.007635
115.706667 383.629378 387.142390 390.348364 390.030277 392.755477 394.304947
115.816000 383.843067 387.616277 390.614239 390.399808 393.090221 394.708700
115.932500 384.446655 387.997296 390.922409 390.777642 393.457006 395.083667
116.049000 384.971717 388.461352 391.284281 391.149544 393.801129 395.296487
116.165500 385.389311 388.916935 391.603592 391.511521 394.180057 395.594307
116.282000 385.863801 389.340696 391.950493 391.899081 394.500486 395.966153
116.417818 386.361952 389.891482 392.408636 392.339106 394.875822 396.402352
116.553636 386.994338 390.332796 392.903344 392.778928 395.259995 396.853998
116.689455 387.476863 390.745520 393.459061 393.230458 395.648787 397.331825
116.825273 388.113781 391.314437 393.931604 393.704925 396.070589 397.887445
116.961091 388.524593 391.800004 394.372942 394.176892 396.494325 398.546199
117.096909 389.278316 392.273064 394.754818 394.650879 396.973992 399.198068
117.232727 390.092883 392.939824 395.253339 395.153086 397.443239 399.699488
117.368545 390.587598 393.489827 395.756219 395.667031 397.931216 400.089134
117.504364 391.678649 394.001490 396.245087 396.216769 398.428907 400.592921
117.640182 392.120591 394.573451 396.737786 396.804495 399.077592 401.177193
117.776000 392.848068 395.017064 397.231623 397.399713 399.645936 401.855573
117.912364 393.377136 395.627230 397.831223 398.119334 400.492221 403.009922
118.048727 394.110907 396.353911 398.524689 398.901272 401.391122 404.110529
118.185091 394.832632 396.993511 399.363100 399.719818 402.536520 405.327001
118.321455 395.345582 397.564479 400.355130 400.586777 403.642634 406.378159
118.457818 396.071192 398.137920 401.499797 401.483610 404.552106 407.368398
118.594182 396.706722 398.763552 402.606848 402.411509 405.660667 408.239292
118.730545 397.505235 399.559187 403.634389 403.421754 406.914143 409.398828
118.866909 398.438913 400.384619 404.878871 404.473684 408.097627 410.369471
119.003273 399.360028 401.273572 406.089412 405.576557 409.202273 411.500692
119.139636 400.160697 402.328752 407.491816 406.814616 410.443807 412.498234
119.276000 401.305258 403.436475 408.977538 408.054327 411.598188 413.897889
119.356000 401.855767 403.936867 409.564190 408.647730 412.272657 414.393533
119.487111 403.370146 405.807407 410.760584 410.039289 413.417736 415.873309
119.618222 405.156212 407.487698 411.960465 411.487329 414.802307 417.392821
119.749333 406.820263 409.260192 413.222482 412.915452 416.157200 418.269456
119.880444 408.685988 410.970492 414.626035 414.354655 417.438476 419.629674
120.011556 410.507715 412.674702 416.043807 415.821768 418.704963 420.787046
120.142667 412.189924 414.527771 417.429972 417.303686 420.060863 422.053963
120.273778 414.344781 416.277774 418.768698 418.779820 421.178344 423.207033
120.404889 416.274340 417.989010 420.228611 420.237351 422.376871 424.247613
120.536000 417.910183 419.660021 421.581696 421.595287 423.513819 425.084720
120.659500 419.273091 420.948852 422.662850 422.725930 424.577787 426.139328
120.783000 420.507541 422.081628 423.677936 423.755313 425.528700 427.221121
120.906500 421.661942 423.100861 424.736121 424.744312 426.375694 427.940023
121.030000 422.723380 424.134074 425.747452 425.712842 427.215925 428.737459
121.164250 423.767607 425.286263 426.816221 426.786861 428.342626 429.813758
121.298500 424.736018 426.311545 427.795958 427.796246 429.350723 430.692396
121.432750 425.583311 427.202112 428.596724 428.675929 430.176332 431.598360
121.567000 426.862638 428.082508 429.517192 429.515789 430.949436 432.392158
121.704500 427.529110 428.676207 430.205419 430.195011 431.668555 432.871207
121.842000 428.150730 429.278389 430.836977 430.804806 432.332616 433.564130
121.981737 428.574219 429.701813 431.397195 431.343242 432.880249 434.264472
122.121474 428.950839 430.145015 431.840204 431.826903 433.416478 434.888459
122.261211 429.441740 430.592286 432.256795 432.297781 433.956189 435.553479
122.400947 429.841669 431.005035 432.685933 432.743266 434.397122 436.301823
122.540684 430.203590 431.376570 433.082215 433.172106 434.908539 436.827372
