depth(m) lower_95(kyr) lower_68(kyr) median(kyr) mean(kyr) upper_68(kyr) upper_95(kyr)
72.600000 694.069188 699.474464 703.817870 703.245733 707.113158 708.783033
72.725000 695.794220 701.136467 705.196225 704.539692 708.156321 709.649475
72.850000 697.539606 702.476667 706.468768 705.836104 709.148433 710.528886
72.975000 699.000862 704.219499 707.783074 707.143940 709.978520 711.360724
73.100000 701.393870 705.735520 708.997339 708.406828 710.989432 712.240495
73.225000 703.528320 707.347907 710.287686 709.692286 711.923891 713.108535
73.350000 705.390174 708.957079 711.371146 710.917366 712.799682 714.041396
73.475000 707.384209 710.451002 712.374166 712.056895 713.703084 714.812113
73.600000 709.288161 711.857979 713.385087 713.173601 714.512139 715.629318
73.725000 711.030731 713.166557 714.392145 714.293592 715.515685 716.537121
73.850000 712.906163 714.363515 715.387293 715.342464 716.424217 717.479636
73.975000 713.915904 715.180951 716.155884 716.208434 717.331431 718.277042
74.100000 714.837818 716.063665 716.926312 717.017791 718.139421 719.075896
74.225000 715.640360 716.736529 717.659786 717.760487 718.904829 719.932493
74.350000 716.469969 717.481210 718.380853 718.487281 719.589095 720.774029
74.475000 717.128501 718.162681 719.122375 719.202832 720.362479 721.517304
74.600000 717.892239 718.873842 719.852328 719.918039 721.061261 722.189044
74.725000 718.596259 719.584914 720.577040 720.652791 721.805682 722.927381
74.850000 719.296984 720.238189 721.342715 721.408637 722.630753 723.807133
74.970000 719.988190 720.942621 722.048873 722.164028 723.401361 724.815198
75.090000 720.747229 721.677342 722.782652 722.911662 724.136235 725.738430
75.210000 721.522312 722.385841 723.554163 723.686062 724.961617 726.658641
75.335000 722.226263 723.182010 724.353361 724.568116 725.963495 728.181093
75.460000 723.034771 724.005210 725.251803 725.471056 727.009567 729.272542
75.585000 723.856024 724.865527 726.261348 726.578647 728.315542 731.170374
75.710000 724.660020 725.797295 727.413857 727.753125 729.894797 732.576054
75.835000 725.427389 726.746362 728.739695 729.052632 731.502971 734.060476
75.960000 726.295804 727.812751 730.170255 730.366056 733.021878 735.204878
76.085000 727.105059 728.923531 731.689380 731.686972 734.319905 736.333318
76.210000 728.053452 730.199190 733.416266 733.037823 735.638157 737.223983
76.335000 728.873883 731.294546 734.921096 734.402903 736.943832 738.280375
76.460000 729.574152 732.655389 736.431613 735.717159 738.146586 739.407423
76.555000 730.274187 733.468955 737.403834 736.658353 738.999404 740.194717
76.650000 731.024662 734.460337 738.423573 737.610734 739.812213 741.096418
76.670000 731.146199 734.676107 738.609941 737.796572 739.968326 741.256078
76.795000 732.409954 736.284134 739.577219 738.847577 740.914041 742.254565
76.920000 733.740554 737.836913 740.505001 739.885949 741.815707 743.023686
77.045000 735.155365 739.075776 741.385113 740.960118 742.670863 744.068637
77.170000 736.744810 740.497999 742.354061 742.048709 743.621670 745.076207
77.295000 738.380044 741.775889 743.291064 743.101218 744.528576 746.209436
77.420000 740.417263 742.879169 744.191228 744.146282 745.595364 747.246188
77.545000 741.786436 743.836266 745.026592 745.093693 746.643495 748.052232
77.670000 743.353720 744.750962 745.870219 746.022190 747.596665 749.145066
77.795000 744.172104 745.587513 746.749433 746.929610 748.533963 750.040005
77.920000 745.109517 746.400561 747.591544 747.801165 749.415385 751.150559
78.045000 745.964800 747.254862 748.448293 748.687211 750.407743 752.075636
78.170000 746.941845 748.050467 749.299276 749.553663 751.288965 753.003113
78.295000 747.845211 748.950024 750.234283 750.488435 752.229137 754.078582
78.420000 748.678809 749.822996 751.173107 751.381413 753.136528 754.948140
78.545000 749.460858 750.727336 752.109427 752.283435 753.979456 755.870531
78.670000 750.183558 751.597340 753.009890 753.196899 754.892620 756.791895
78.795000 751.111399 752.508139 754.006444 754.181654 755.919372 758.062604
78.920000 751.922786 753.433559 755.015759 755.192168 757.021322 759.222359
79.045000 752.768244 754.319268 755.997593 756.193032 758.127849 760.424340
79.170000 753.812939 755.253205 757.142430 757.272658 759.315614 761.503261
79.295000 754.736137 756.240621 758.137658 758.380198 760.535012 762.984113
79.420000 755.634194 757.199071 759.245617 759.474020 761.809122 764.490455
79.545000 756.595319 758.155234 760.410671 760.619136 763.151457 766.151193
79.670000 757.539279 759.134107 761.594440 761.842947 764.553591 767.684682
79.795000 758.405935 760.109529 762.790605 762.991450 765.875697 768.673228
79.920000 759.412950 761.207295 764.026806 764.227513 767.256547 769.997456
80.045000 760.423979 762.372620 765.354220 765.497998 768.630715 771.312802
80.170000 761.316769 763.452815 766.706491 766.755637 770.009820 772.588480
80.295000 762.316484 764.596317 768.000591 768.014826 771.228406 774.184902
80.420000 763.451341 765.822482 769.280696 769.333872 772.620816 775.721171
80.545000 764.663433 767.267210 770.633083 770.695659 774.035969 777.596452
80.670000 765.831487 768.623876 771.952705 772.095673 775.635866 778.977119
80.795000 767.291911 770.043514 773.271799 773.505451 777.201761 780.954304
80.920000 769.111626 771.626407 774.722726 774.986878 778.570708 782.198034
81.045000 771.172595 773.789841 776.696576 776.875666 780.111951 783.547687
81.170000 773.338447 775.904434 778.694517 778.812477 781.779256 784.673783
81.295000 774.966595 777.649600 780.460908 780.480806 783.273326 786.231731
81.420000 776.900552 779.619440 782.264288 782.189268 784.709444 787.506813
81.545000 778.922702 781.536057 783.848290 783.878322 786.205741 788.483793
81.670000 781.221153 783.581783 785.707210 785.663054 787.763833 789.740402
81.795000 783.545565 786.127123 788.170019 788.029553 790.081373 791.506520
81.920000 786.998140 788.964906 790.443821 790.355571 791.698594 792.974100
82.045000 788.962671 790.562537 791.928186 791.876746 793.172526 794.762972
82.170000 790.907345 792.051533 793.212402 793.298710 794.410246 796.600673
82.295000 792.131001 793.313953 794.530130 794.672912 796.041318 798.032479
82.420000 793.445365 794.529082 795.887733 796.012079 797.561726 799.293376
82.545000 794.429566 795.603622 797.123148 797.243806 798.939293 800.845671
82.670000 795.589023 796.805206 798.398511 798.488771 800.150031 802.090008
82.795000 796.775785 798.078800 799.751696 799.816806 801.500074 803.222585
82.920000 798.027440 799.510296 801.169896 801.193754 802.946300 804.424695
83.045000 799.163118 800.841362 802.529492 802.518142 804.211709 805.561326
83.170000 800.497808 802.155005 803.925998 803.816055 805.429867 806.711332
83.295000 801.745373 803.547813 805.152355 805.052170 806.503146 807.855933
83.420000 803.178413 804.845959 806.344475 806.269649 807.645551 808.914894
83.545000 804.639608 806.164672 807.457670 807.435234 808.720404 810.000903
83.670000 806.120884 807.415257 808.540203 808.574586 809.748409 811.025252
83.720000 806.512773 807.885479 809.019860 809.043485 810.228899 811.455135
83.820000 807.547812 808.839574 809.970076 810.006764 811.224796 812.465222
83.920000 808.606263 809.703743 810.833623 810.893828 812.133305 813.452008
83.970000 809.074144 810.115865 811.262777 811.337099 812.597287 813.915570
84.095000 810.105994 811.082522 812.231512 812.381911 813.629632 815.430147
84.220000 810.974763 812.006516 813.195276 813.418047 814.650850 817.200150
84.345000 811.958866 812.914253 814.188703 814.460358 815.705811 818.829730
84.470000 812.893754 813.827520 815.166053 815.536058 816.860487 821.464865
84.595000 813.705711 814.713288 816.093951 816.592571 818.043250 824.062557
84.720000 814.594451 815.649429 817.092257 817.667136 819.235934 825.760951
84.815000 815.356779 816.500727 817.947594 818.569982 820.241394 827.469280
84.910000 816.187096 817.357747 818.932206 819.507534 821.181253 828.694573
85.000000 816.918429 818.168358 819.915100 820.433780 822.228192 829.448001
85.110000 817.794951 819.175779 821.081119 821.612185 823.523057 830.576249
85.220000 818.781780 820.317447 822.173620 822.744428 824.737672 831.517928
85.345000 819.911853 821.741843 823.653264 824.223997 826.565728 832.546553
85.470000 821.094133 823.255743 825.378637 825.826847 828.245372 833.386688
85.595000 822.298172 824.566773 826.932655 827.323109 829.980541 834.523370
85.720000 823.449988 825.860465 828.368254 828.773017 831.745087 835.626438
85.845000 824.911861 827.178613 829.978626 830.256393 833.425227 836.783549
85.970000 826.411141 828.554056 831.533434 831.684121 834.990431 837.794434
86.095000 828.121553 830.130910 833.046062 833.179903 836.314529 838.858965
86.220000 829.412760 831.731135 834.735447 834.714811 837.755691 839.781861
86.360000 830.810238 833.662143 836.603385 836.444150 839.187897 840.966806
86.410000 831.433624 834.207418 837.243131 837.014728 839.783771 841.379597
86.485000 832.260075 835.110226 838.166005 837.889423 840.589885 841.995422
86.560000 833.246675 836.181739 838.962350 838.767287 841.343991 842.606200
86.670000 835.000912 837.890005 840.194744 840.098440 842.385292 843.582227
86.765000 836.836089 839.182399 841.554495 841.302175 843.384434 844.434349
86.860000 838.652568 840.483895 842.861776 842.462520 844.391060 845.409653
86.870000 838.752653 840.599302 842.975653 842.572525 844.481415 845.580620
86.965000 840.028150 841.496048 843.830462 843.559314 845.300514 847.000073
87.060000 841.303946 842.243168 844.741027 844.508958 846.067265 848.631053
87.070000 841.403756 842.349750 844.840895 844.609887 846.152707 848.727779
87.165000 842.251089 843.247825 845.673286 845.523841 846.979015 849.849822
87.260000 842.983854 844.184270 846.691823 846.446724 847.727496 851.728123
87.270000 843.075283 844.270736 846.795189 846.554908 847.829591 851.859791
87.365000 843.798835 845.009127 847.814446 847.549708 848.790597 852.966289
87.460000 844.476353 845.891767 848.728300 848.556793 849.923969 853.927854
87.470000 844.576067 845.999944 848.837299 848.667081 850.049043 854.014377
87.565000 845.637498 847.687810 849.877097 849.849264 851.482657 854.904157
87.660000 846.688122 849.120336 851.024429 851.120325 853.013188 855.898862
87.670000 846.807272 849.209853 851.147362 851.238815 853.246529 855.946384
87.765000 848.263870 850.407851 852.250875 852.444751 854.688635 856.787081
87.860000 849.886847 851.692864 853.490552 853.666328 856.089034 857.564160
87.870000 850.057197 851.816062 853.628315 853.786237 856.196352 857.621890
87.965000 851.343972 853.193303 855.085300 855.147136 857.282975 858.684591
88.060000 852.518781 854.538819 856.547474 856.465049 858.366697 859.781956
88.130000 853.654838 855.474749 857.499992 857.369511 859.047092 860.637723
88.245000 855.367436 857.078478 858.874201 858.773276 860.378180 862.013287
88.360000 856.882815 858.572514 860.252136 860.145168 861.712756 863.215396
88.460000 858.016989 859.768652 861.378282 861.312415 862.883059 864.162801
88.560000 859.362226 860.999195 862.502301 862.481575 864.029529 865.173477
88.660000 860.720010 862.433053 863.888888 863.844539 865.173640 866.481044
88.760000 862.445732 864.107687 865.304312 865.267298 866.454152 867.680601
88.830000 863.968804 865.325162 866.572958 866.450622 867.517459 868.634568
88.960000 866.652827 867.785191 868.833137 868.916295 870.100597 871.587112
89.045000 867.930675 869.040761 870.131982 870.245282 871.473458 873.081058
89.130000 869.254195 870.211061 871.409190 871.521067 872.796485 874.780279
89.160000 869.539632 870.569366 871.800709 871.891680 873.106682 875.129818
89.245000 870.313213 871.502616 872.745112 872.846992 874.031531 876.212782
89.330000 871.108215 872.316774 873.694146 873.749378 874.974553 877.172720
89.360000 871.396209 872.593323 874.017196 874.056229 875.336973 877.392220
89.460000 872.040758 873.547333 874.951375 874.964538 876.337869 878.270091
89.560000 872.855083 874.426357 875.880561 875.888317 877.367583 879.228158
89.660000 873.644555 875.206915 876.691153 876.764851 878.296028 880.215167
89.760000 874.398166 876.048000 877.513527 877.637750 879.262483 881.114342
89.860000 875.171616 876.882293 878.495284 878.535943 880.147544 882.319576
89.960000 875.855114 877.701249 879.279456 879.374900 881.085187 883.313222
90.060000 876.557079 878.426893 880.152030 880.228986 882.103093 884.210643
90.160000 877.407165 879.178579 880.912059 881.032586 883.027812 885.112783
90.260000 878.322396 879.932290 881.774540 881.866310 883.866520 886.044974
90.360000 879.094443 880.749456 882.673742 882.772768 884.800937 887.228063
90.460000 879.821344 881.601655 883.536715 883.654910 885.691384 888.086755
90.560000 880.643233 882.475517 884.540360 884.564730 886.539745 888.900496
90.660000 881.476912 883.444374 885.424967 885.452062 887.552203 889.796847
90.760000 882.327628 884.308500 886.348145 886.397832 888.408873 890.599137
90.860000 883.265473 885.268645 887.298239 887.375809 889.377292 891.624156
90.960000 884.267131 886.319527 888.324296 888.370920 890.378317 892.715750
91.060000 885.352633 887.278126 889.326210 889.350760 891.439691 893.751781
91.160000 886.219385 888.235033 890.363033 890.441650 892.636965 895.271251
91.260000 887.426415 889.300359 891.562336 891.589324 893.729109 896.951427
91.360000 888.427047 890.454465 892.617913 892.804978 895.059639 898.687551
91.460000 889.968842 891.834670 893.918984 894.217875 896.521666 900.327696
91.560000 891.117940 893.362753 895.364602 895.737189 898.292241 902.158486
91.660000 892.282369 894.573742 896.901730 897.343254 900.239087 904.276219
91.760000 893.998557 895.986133 898.523119 899.025867 902.325140 905.882398
91.840000 895.113524 897.027480 899.834889 900.226514 903.592720 907.033387
91.960000 896.647761 898.771678 902.252158 902.389683 905.866665 909.145441
92.060000 898.084318 900.443132 904.215158 904.174196 907.728102 910.866491
92.160000 899.526454 902.242941 906.018910 905.890007 909.232772 912.090107
92.260000 901.184970 904.289009 907.905923 907.669719 911.038619 913.249134
92.360000 903.091883 906.037228 909.803621 909.455577 912.624551 914.215143
92.440000 904.566050 907.774935 911.356374 910.861734 913.813985 915.293696
92.540000 907.048357 909.792293 913.129348 912.560836 915.027504 916.148594
92.640000 909.692771 912.417357 914.683401 914.316758 916.096797 917.033039
92.740000 912.123601 914.490177 915.983195 915.785979 917.181162 917.939993
92.840000 915.005102 915.978527 917.326211 917.160232 918.216851 918.868771
92.860000 915.197198 916.193387 917.552443 917.367402 918.394449 919.148121
92.950000 915.991604 916.956900 918.301694 918.098214 919.104282 919.749500
93.040000 916.719296 917.607341 918.985980 918.788650 919.752883 920.448865
93.060000 916.871257 917.772886 919.135595 918.952651 919.924261 920.671595
93.150000 917.535172 918.411712 919.791094 919.606180 920.554820 921.289107
93.240000 918.209782 919.060413 920.438186 920.270868 921.197528 922.116056
93.260000 918.396455 919.237433 920.596661 920.443689 921.368594 922.279245
93.360000 919.140768 920.125250 921.326216 921.215029 922.150321 923.120220
93.460000 919.799866 920.981957 922.079875 921.980118 922.906466 923.747243
93.540000 920.435413 921.600745 922.662010 922.588191 923.513341 924.462234
93.660000 921.294418 922.526613 923.516777 923.494336 924.469548 925.353399
93.740000 921.939561 923.172340 924.139894 924.151552 925.168502 925.968139
93.860000 923.043832 924.169081 925.207675 925.186046 926.210013 927.098519
93.940000 923.672818 924.923218 925.926191 925.897499 926.929863 927.848738
94.060000 924.944359 925.986487 927.005877 926.972467 927.926787 928.857138
94.190000 926.040488 927.152705 928.068437 928.033152 928.948799 929.852164
94.320000 927.244601 928.261221 929.129872 929.093325 929.968026 930.710641
94.360000 927.617572 928.570131 929.477185 929.433572 930.278315 931.014229
94.450000 928.489279 929.322142 930.124165 930.128472 930.970143 931.827239
94.540000 929.153792 930.042773 930.826009 930.812995 931.601271 932.466719
94.560000 929.286153 930.196129 930.998977 930.976701 931.757677 932.573291
94.650000 929.916635 930.811038 931.642094 931.600754 932.399269 933.160942
94.740000 930.549392 931.383186 932.247411 932.201233 933.006434 933.882112
94.850000 931.113178 932.046503 932.955911 932.932225 933.753482 934.627935
94.960000 931.848593 932.786529 933.692396 933.668076 934.503582 935.418486
95.040000 932.381502 933.324664 934.244893 934.217642 935.081188 935.956923
95.160000 933.184905 934.052215 934.997929 934.986628 935.877116 936.826544
95.280000 933.927485 934.802711 935.779572 935.761503 936.685146 937.644627
95.400000 934.678180 935.663926 936.573711 936.560771 937.462919 938.487527
95.520000 935.311983 936.462731 937.387855 937.368831 938.314564 939.360683
95.640000 936.058995 937.248600 938.175460 938.185543 939.102071 940.147558
95.760000 936.830968 938.007576 939.027242 938.990390 939.902406 941.076399
95.880000 937.768369 938.804179 939.805847 939.808024 940.784497 941.909361
95.960000 938.295131 939.416308 940.425801 940.423333 941.434364 942.550987
96.040000 938.852964 939.987453 941.027815 941.038289 942.071276 943.220415
96.140000 939.611948 940.820477 941.894428 941.877105 942.931759 944.155173
96.240000 940.445715 941.632609 942.723547 942.729728 943.842760 945.060748
96.375000 941.377437 942.661923 943.791362 943.795565 944.884125 946.136297
96.510000 942.327818 943.651777 944.848732 944.832018 945.974045 947.291470
96.645000 943.508182 944.757317 945.885362 945.899837 947.031992 948.340710
96.780000 944.619403 945.806778 946.949702 946.966729 948.044966 949.435639
96.860000 945.263896 946.497577 947.641236 947.636102 948.713359 950.370151
96.940000 946.057991 947.182400 948.315562 948.318435 949.329816 951.079200
97.030000 946.887241 948.029703 949.081753 949.115789 950.137837 951.912001
97.120000 947.753683 948.838876 949.862153 949.905616 950.988309 952.796116
97.140000 947.946273 949.021329 950.028101 950.093643 951.161646 952.962611
97.230000 948.685111 949.821477 950.835588 950.910855 951.984932 953.692303
97.320000 949.544922 950.656626 951.598379 951.713717 952.858776 954.390029
97.380000 950.140424 951.152874 952.098970 952.237793 953.466720 954.844612
97.520000 951.307515 952.233297 953.224557 953.341423 954.531176 955.874745
97.630000 952.167501 953.160235 954.207785 954.255211 955.408502 956.560034
97.740000 953.154145 954.081772 955.162307 955.200113 956.350860 957.525477
97.820000 953.784836 954.895893 955.982507 955.976738 957.060187 958.222566
97.920000 954.790528 955.967086 957.123703 957.121831 958.206316 959.492728
98.020000 956.088210 957.274405 958.357614 958.385156 959.444573 960.784681
98.120000 957.415941 958.594590 959.822204 959.953385 961.331286 963.276344
98.220000 959.005349 959.983558 961.333351 961.562711 963.272968 965.249465
98.320000 959.947833 961.069091 962.710991 962.938270 964.823339 966.894389
98.420000 960.999593 962.289037 964.133563 964.237335 966.245214 968.165439
98.520000 961.973386 963.407048 965.473967 965.469893 967.426412 969.329561
98.620000 962.821162 964.649694 966.718601 966.680601 968.587181 970.543042
98.720000 963.875178 965.885184 968.043992 967.902031 969.895967 971.549535
98.820000 964.998350 967.159568 969.237950 969.101162 971.054119 972.672656
98.945000 966.260487 968.595670 970.606985 970.529025 972.520702 974.115475
99.070000 967.821968 969.895484 971.867901 971.905083 973.909111 975.655180
99.195000 969.321779 971.266089 973.298706 973.286511 975.211317 977.035272
99.320000 970.752744 972.775811 974.735024 974.666174 976.494090 978.198777
99.420000 971.952902 974.097078 975.841677 975.779209 977.548052 979.075548
99.520000 973.072917 975.325192 976.940688 976.904402 978.557213 979.898294
99.620000 974.442975 976.476420 978.087909 977.981746 979.573579 980.910730
99.720000 975.803590 977.586296 979.123152 979.045296 980.567841 981.851827
99.820000 976.933415 978.586437 980.200787 980.175783 981.677547 983.247550
99.920000 978.171488 979.884220 981.332620 981.377419 982.871416 984.523606
