depth(m) lower_95(kyr) lower_68(kyr) median(kyr) mean(kyr) upper_68(kyr) upper_95(kyr)
50.710000 689.911943 696.700717 701.265409 704.044143 711.445767 730.881313
50.843333 692.511444 698.600562 703.057132 705.923432 714.150324 732.639715
50.976667 694.544801 700.398321 704.746632 707.758131 716.974789 734.761235
51.110000 696.791666 702.238908 706.540794 709.644815 719.618059 736.929080
51.243333 699.049902 703.843699 708.029158 711.520777 723.691216 739.225333
51.376667 701.568355 705.666107 709.916909 713.416481 726.579622 740.795631
51.510000 704.110969 707.482441 711.554284 715.327408 730.311659 742.377632
51.647500 706.155612 709.539288 713.665246 717.609785 733.868456 746.218591
51.785000 708.637618 711.701027 715.835955 719.938771 736.834580 748.584847
51.922500 710.968099 713.748410 718.201124 722.375053 739.266496 751.444557
52.060000 712.946954 715.719884 720.704466 724.697100 742.271900 753.875405
52.135000 713.919123 716.725851 722.036680 725.964000 743.695770 755.201491
52.210000 715.027677 717.973814 723.273942 727.256893 744.913910 756.610423
52.340000 716.629736 720.391248 725.318313 729.596727 747.184256 762.717572
52.470000 718.516182 722.578316 727.178852 731.821226 750.269111 767.059614
52.600000 720.712499 725.060511 729.204598 734.210710 753.855230 773.402078
52.730000 723.325032 727.302302 731.241923 736.682119 756.474697 777.679461
52.860000 726.248812 729.620888 733.474329 739.145276 759.170900 783.577636
52.935000 727.294750 730.857425 734.856503 740.510491 760.044834 785.777264
53.010000 728.171152 731.879754 736.372223 741.838217 760.810710 786.893326
53.147500 729.878867 734.170610 739.382946 744.561933 762.358842 788.660357
53.285000 731.680530 736.339759 742.397147 747.107555 763.920717 789.893949
53.422500 733.444838 738.573785 745.559387 749.797897 765.202798 791.332188
53.560000 734.506228 741.217131 748.693917 752.398089 767.156684 792.750219
53.703750 735.639115 743.583507 752.084653 755.070307 768.910808 794.196768
53.847500 737.055940 746.106515 755.131269 757.764491 770.903816 795.398567
53.991250 738.278173 748.477755 758.446637 760.515632 772.579130 796.315280
54.135000 739.605921 751.614508 761.570754 763.166312 774.280557 797.434835
54.278750 741.027172 754.772607 764.712856 765.827308 776.345711 798.546960
54.422500 742.371663 757.795776 767.881892 768.441653 778.168801 799.541059
54.566250 743.372401 760.984714 771.102422 771.158239 780.951894 800.978228
54.710000 744.846385 764.320850 774.188668 773.855739 783.608100 801.925390
54.853750 746.173686 767.253375 777.291183 776.508311 786.564671 803.190127
54.997500 747.332270 771.063219 780.430810 779.309541 789.095842 804.402617
55.141250 748.672897 774.216869 783.263589 782.002431 792.312901 805.735406
55.285000 750.306933 777.486444 786.740859 784.749841 794.830666 807.336595
55.428750 751.384085 780.954598 789.789564 787.479910 797.621511 810.065119
55.572500 752.490716 784.537773 793.029035 790.375886 800.529208 810.881044
55.716250 753.771822 788.605393 795.998101 793.039574 803.019984 812.018248
55.860000 755.423771 792.221161 799.321488 795.674044 805.439410 813.992865
56.000000 756.940579 794.122738 801.603389 798.093023 808.036636 817.416543
56.140000 758.549044 796.409419 803.760640 800.454452 810.159076 820.221106
56.280000 760.138990 799.140458 805.913021 802.896819 812.326356 823.218225
56.420000 762.494924 801.986799 808.156526 805.183935 813.935417 825.864088
56.560000 764.493973 804.808219 810.216023 807.450147 815.720905 827.963877
56.701667 767.276752 806.678397 812.361919 809.948764 819.002818 830.592627
56.843333 769.983578 808.505096 814.849497 812.355974 821.810347 833.705027
56.985000 774.390684 810.682017 816.991079 814.823758 824.147371 835.371870
57.126667 777.491690 812.707632 819.328338 817.345037 826.927085 837.786793
57.268333 781.696506 814.659756 821.494977 819.828035 829.952450 839.687048
57.410000 785.541717 816.456814 823.970030 822.253422 832.388341 841.811755
57.551667 789.262185 818.547296 826.237034 824.835589 834.664449 844.173314
57.693333 794.789286 820.641737 828.450779 827.364672 837.129517 845.636051
57.835000 799.601677 822.938307 830.935199 829.907429 839.803682 847.870328
57.976667 803.609631 825.274349 833.383968 832.473501 842.135043 850.081607
58.118333 807.507181 827.496399 835.867446 835.024502 844.728849 851.772263
58.260000 811.231265 829.766429 838.185658 837.432102 846.916733 854.031173
58.401667 815.420307 832.353281 840.461943 839.882803 848.992894 856.005967
58.543333 820.138810 834.772910 842.849416 842.363882 851.271397 857.482621
58.685000 822.954353 837.336669 845.177269 844.731703 853.295877 859.496322
58.826667 827.606640 839.844668 847.608679 847.145418 855.560476 861.026786
58.968333 830.207777 842.216598 849.892643 849.410241 857.727875 862.613896
59.110000 832.930423 844.621611 852.329985 851.667830 859.766071 864.131065
59.246364 835.873084 846.885519 854.594882 854.004721 861.949998 866.097723
59.382727 839.761228 849.624694 856.901441 856.314827 863.925834 868.196612
59.519091 843.925488 852.180407 859.087127 858.530140 865.933077 869.888799
59.655455 847.341528 854.433889 861.471391 860.917498 867.633514 871.602549
59.791818 849.989594 857.243496 863.559543 863.184026 869.335781 873.073047
59.928182 853.251735 859.726904 865.847980 865.468462 871.108927 874.600172
60.064545 855.987220 862.319972 868.139995 867.651235 872.839959 876.457450
60.200909 859.687189 864.890428 870.391231 869.877012 874.748454 878.301775
60.337273 862.903929 867.317825 872.616829 872.059498 876.464779 879.732189
60.473636 865.488597 869.742840 874.588030 874.130627 878.106426 881.206898
60.610000 867.998216 872.042697 876.540065 876.072369 879.674741 882.486104
60.743333 869.580848 873.749825 878.301579 877.822281 881.278057 884.430270
60.876667 870.909502 875.761429 879.981543 879.496062 882.935296 885.424039
61.010000 872.302723 877.662244 881.703183 881.112862 884.404900 886.851371
61.110000 873.523887 878.805752 882.864687 882.266095 885.474433 888.241480
61.210000 874.699669 879.973126 884.070542 883.393207 886.524657 889.731305
61.310000 875.804882 881.074767 885.148185 884.529580 887.816429 890.875717
61.435000 877.448855 882.631505 886.403482 885.941991 889.135777 892.152570
61.560000 879.113043 884.216077 887.658725 887.366322 890.543823 893.457591
61.685000 880.859585 885.804761 888.894043 888.723915 891.714212 894.882059
61.810000 882.588141 887.145293 890.190417 890.076513 892.892986 896.337911
61.910000 883.953462 888.196996 891.199837 891.101632 893.878931 897.697120
62.010000 885.119832 889.228474 892.073120 892.065454 894.780479 898.630478
62.110000 886.160422 890.263496 893.055332 893.056390 895.710683 899.761129
62.243333 887.638717 891.503391 894.142302 894.274535 897.010261 901.186292
62.376667 889.505398 892.662191 895.315153 895.533266 898.374431 902.741285
62.510000 890.665935 893.945323 896.439866 896.784709 899.634132 904.119897
62.643333 892.198781 895.162777 897.762253 898.038008 900.894420 904.879688
62.776667 893.631108 896.425206 899.010452 899.298476 902.041408 906.174814
62.910000 895.155600 897.735248 900.342476 900.607236 903.305817 907.243612
63.043333 896.700968 899.175603 901.611105 901.911384 904.723995 908.555162
63.176667 897.996823 900.361233 902.915896 903.195484 906.032719 909.572285
63.310000 899.385056 901.802231 904.220809 904.546479 907.351539 911.483905
63.450000 900.935745 903.151028 905.572855 905.905113 908.735520 912.391479
63.590000 902.069119 904.463335 906.890980 907.266612 910.048922 913.616528
63.730000 903.641705 905.922309 908.369799 908.658712 911.200849 915.101305
63.870000 904.936906 907.280086 909.773237 910.052645 912.632048 916.652386
64.010000 906.209967 908.786072 911.225485 911.498233 914.117796 917.965156
64.143333 907.541381 910.362437 912.780320 913.025387 915.658615 919.596314
64.276667 908.995805 911.796737 914.405273 914.645491 917.284269 921.793338
64.410000 910.436808 913.337110 916.020048 916.331501 919.189731 923.505902
64.543333 912.285146 914.923150 917.740158 918.012972 921.057844 925.708538
64.676667 914.145518 916.446719 919.536578 919.750449 922.755881 927.318214
64.810000 916.067032 918.199633 921.453885 921.540966 924.620688 928.805650
64.950000 917.694238 920.074883 923.467170 923.698586 926.936916 931.498551
65.090000 919.414651 921.913484 925.484699 925.929442 930.096212 935.470187
65.230000 920.892631 923.560107 927.540985 927.940647 932.238686 937.664815
65.370000 922.465420 925.424973 929.560913 929.955528 934.169257 941.623546
65.510000 923.776828 927.310319 931.377093 931.871552 936.096695 944.264047
65.651111 924.991592 928.754573 932.950181 933.531636 937.803511 945.983905
65.792222 926.348781 930.258583 934.738504 935.142304 939.451916 947.704537
65.933333 927.655270 931.509456 936.466118 936.709535 941.163046 949.256583
66.074444 929.047857 932.835057 937.909895 938.185462 942.702512 950.953681
66.215556 930.379723 934.316603 939.309685 939.659258 944.264827 952.079081
66.356667 931.612054 935.464422 940.819574 941.118224 946.070164 953.270229
66.497778 933.114182 936.936507 942.192432 942.506589 947.506023 954.518994
66.638889 934.406053 938.281529 943.604497 943.908119 949.009078 955.844783
66.780000 935.838494 939.622043 944.999947 945.355279 950.319880 957.266130
66.895000 936.952011 940.789699 946.144049 946.480683 951.250911 958.741409
67.010000 938.021582 941.809683 947.132025 947.591986 952.547928 959.970322
67.143333 939.321422 943.072322 948.442434 949.003608 953.858871 962.723890
67.276667 940.674364 944.438800 949.644047 950.430381 954.979745 965.763949
67.410000 942.014084 945.852701 950.924184 951.896956 956.246409 969.072837
67.543333 943.388084 947.223476 952.121846 953.331817 957.751257 972.056364
67.676667 944.803576 948.653494 953.430971 954.874726 959.452733 974.843208
67.810000 946.124557 950.093968 954.751254 956.390685 961.086256 977.231254
67.927500 946.992311 951.439663 956.037249 957.930494 964.596346 978.736193
68.045000 948.149252 952.794171 957.252651 959.686055 968.551448 981.096435
68.162500 949.394255 954.697415 958.560513 961.414259 971.604976 982.529620
68.280000 950.426028 956.197256 960.029451 963.324855 974.143280 984.068752
68.413333 951.780310 957.948230 962.655968 965.826038 977.082730 987.261026
68.546667 953.294565 959.742486 966.025832 968.637565 980.014595 990.882107
68.680000 954.628043 962.144167 969.328997 971.423714 983.546159 993.281830
68.813333 955.671357 964.552034 972.807196 974.325695 987.044443 995.688079
68.946667 956.849796 967.402833 976.070564 977.446340 992.011810 998.285386
69.080000 957.924188 970.442062 979.057968 980.364049 995.877717 1000.537795
69.220000 959.886080 973.013097 982.439761 983.693305 998.334073 1003.657766
69.360000 961.518175 976.050934 986.276550 987.010850 1001.032142 1007.129174
69.500000 963.089044 979.322978 990.846656 990.357353 1003.317882 1010.022686
69.640000 965.641518 982.674852 996.574589 993.800524 1006.074041 1011.986199
69.780000 968.013104 985.684057 1002.080860 997.233871 1009.114459 1014.279643
69.913333 970.543061 988.408878 1004.669264 1000.458201 1012.281330 1018.649960
70.046667 971.906613 990.677638 1007.670659 1003.766356 1015.191790 1021.519125
70.180000 974.033446 992.846565 1010.740838 1006.995076 1018.164846 1023.769909
70.313333 975.712548 995.061227 1014.281374 1010.299995 1021.278821 1026.399346
70.446667 977.590294 997.383488 1017.988847 1013.608369 1023.885428 1028.168133
70.580000 980.279587 999.829567 1021.539207 1017.054341 1026.950727 1030.395589
70.720000 984.461972 1003.881824 1025.028277 1020.631563 1030.289092 1034.645933
70.860000 988.839168 1010.594738 1028.216526 1024.306411 1033.471195 1038.579656
71.000000 993.745493 1018.276911 1031.641446 1027.908021 1037.155630 1042.014948
71.140000 999.548381 1023.965276 1035.041025 1031.422118 1040.325030 1044.888811
71.280000 1003.878099 1032.851282 1038.484807 1035.099809 1043.357645 1047.359628
71.413333 1006.472976 1035.235135 1041.283856 1038.216023 1046.441684 1050.420963
71.546667 1008.962684 1037.777954 1044.046283 1041.186572 1049.203109 1053.296953
71.680000 1012.348433 1040.735688 1046.969094 1044.182726 1051.803191 1055.984397
71.813333 1015.118808 1043.607154 1050.066046 1047.243438 1054.329664 1058.660952
71.946667 1018.992820 1046.748377 1052.557342 1050.153118 1056.604303 1060.848389
72.080000 1024.043927 1050.335775 1055.260575 1053.134177 1059.086028 1063.286190
72.220000 1031.789530 1053.249656 1058.264270 1056.427996 1062.315174 1067.120152
72.360000 1037.199952 1056.215945 1061.075473 1059.748472 1065.362365 1070.491364
72.500000 1043.656027 1059.085515 1064.036943 1062.934237 1068.458818 1073.191514
72.640000 1052.075303 1062.216108 1066.883264 1066.189100 1071.379491 1075.816915
72.780000 1059.534785 1065.560267 1070.040003 1069.528904 1074.451515 1079.294140
72.913333 1062.572412 1068.355850 1073.227495 1072.847552 1077.989444 1083.822349
73.046667 1065.233455 1071.259248 1076.559932 1076.221946 1081.861677 1087.802780
73.180000 1067.855980 1073.933183 1079.746403 1079.498374 1086.020172 1092.174574
73.313333 1069.898990 1076.645547 1083.092809 1082.649189 1089.034209 1095.346044
73.446667 1072.520480 1079.432851 1086.267554 1085.708800 1092.004409 1098.228247
73.580000 1076.190182 1082.661554 1089.047883 1088.569109 1094.568061 1101.245509
73.696667 1078.225247 1085.122404 1091.199082 1090.783228 1096.688672 1103.902899
73.813333 1079.904506 1086.985296 1093.175235 1092.820997 1099.082198 1105.678638
73.930000 1081.224979 1089.002515 1094.906007 1094.758146 1101.447483 1108.412600
74.063333 1082.668724 1090.879160 1097.030050 1096.823872 1103.830494 1110.703981
74.196667 1084.120909 1092.262947 1099.161147 1098.807026 1105.955702 1112.884648
74.330000 1085.830399 1094.188604 1101.187407 1100.715676 1107.895518 1114.388066
74.463333 1088.171861 1095.602072 1103.392004 1102.674460 1109.785652 1116.108279
74.596667 1089.788096 1097.439188 1105.668973 1104.585967 1111.744437 1117.988707
74.730000 1091.257661 1098.934671 1107.667033 1106.433578 1113.494605 1119.675457
74.870000 1092.502563 1100.710445 1109.861675 1108.407719 1115.630617 1121.681665
75.010000 1094.101044 1102.376629 1111.645170 1110.305048 1117.442057 1123.329670
75.150000 1095.556260 1103.923605 1113.468697 1112.067227 1119.216715 1125.110069
75.290000 1097.623764 1105.288612 1115.715997 1113.886696 1121.030517 1126.590802
75.430000 1099.272965 1106.859749 1117.454194 1115.637738 1122.888960 1128.538446
75.563333 1100.665347 1108.749009 1119.192855 1117.280843 1124.497078 1129.994432
75.696667 1101.996329 1110.432424 1120.664281 1118.903422 1125.998845 1131.554088
75.830000 1103.573741 1112.147506 1122.136097 1120.511497 1127.521045 1133.272129
75.963333 1104.857970 1113.995220 1123.638641 1122.125211 1129.192935 1134.308105
76.096667 1106.718835 1115.590068 1125.073632 1123.727480 1130.638643 1136.001273
76.230000 1108.437864 1117.088311 1126.656624 1125.310434 1132.060134 1137.456744
76.366364 1110.442275 1118.652498 1128.151148 1126.957430 1133.426542 1139.033513
76.502727 1112.286525 1120.452553 1129.705557 1128.539388 1134.920399 1140.293015
76.639091 1114.107073 1121.984438 1131.248947 1130.170726 1136.456250 1141.960788
76.775455 1116.057198 1123.981996 1132.960977 1131.810699 1137.847535 1143.345709
76.911818 1118.044960 1125.876183 1134.291115 1133.455295 1139.441065 1145.075552
77.048182 1120.653640 1127.975261 1135.900155 1135.184068 1140.933117 1146.997312
77.184545 1122.804089 1129.809078 1137.498618 1136.930349 1142.560698 1148.355364
77.320909 1125.046933 1131.596765 1139.188705 1138.659329 1144.111256 1149.923628
77.457273 1127.991967 1133.839100 1140.859473 1140.472201 1145.641652 1151.866556
77.593636 1130.293050 1136.048940 1142.591159 1142.338571 1147.271110 1153.738609
77.730000 1133.100476 1138.494190 1144.653728 1144.460864 1149.109428 1155.400989
77.846667 1135.563121 1141.212956 1146.563838 1146.595052 1150.972990 1159.138542
77.963333 1138.000397 1144.063605 1148.539815 1148.851492 1152.890548 1162.210620
78.080000 1140.837135 1146.533332 1150.793426 1151.338913 1155.687220 1165.471789
78.213333 1144.058996 1149.691309 1154.403094 1155.061733 1160.561506 1168.870779
78.346667 1147.474493 1152.915102 1158.320919 1158.936073 1164.912209 1173.196079
78.480000 1150.705053 1156.181539 1162.557423 1162.987993 1169.786212 1178.021986
78.613333 1155.031665 1160.106715 1166.972728 1167.162096 1173.914410 1181.357857
78.746667 1158.825709 1164.661432 1171.856334 1171.623260 1178.646201 1184.407093
78.880000 1162.891969 1169.680884 1176.634134 1176.155994 1182.507496 1187.178598
78.996667 1166.063217 1174.232322 1180.376207 1179.962807 1185.950801 1189.299152
79.113333 1171.432264 1178.772657 1184.728806 1183.885557 1189.175368 1191.577977
79.230000 1175.655238 1182.869584 1189.339383 1187.744889 1191.686152 1193.837475
79.346667 1181.643358 1187.280603 1192.078377 1191.237365 1194.739667 1198.193465
79.463333 1186.289008 1191.615465 1194.534218 1194.458897 1197.785717 1201.596729
79.580000 1192.147303 1194.704699 1197.270588 1197.531571 1200.748605 1204.931573
79.713333 1194.177307 1196.915684 1199.992021 1200.208900 1203.876038 1207.947711
79.846667 1195.995673 1198.932549 1202.393981 1202.595564 1206.308314 1211.049879
79.980000 1197.751524 1200.855667 1204.638353 1204.866285 1208.792268 1213.606909
80.113333 1199.658926 1202.946767 1206.649319 1207.091624 1211.352706 1216.783288
80.246667 1201.188199 1205.144748 1208.930910 1209.338724 1213.788482 1218.921652
80.380000 1203.354387 1207.446013 1210.934112 1211.604487 1216.351117 1220.887259
80.516364 1205.321658 1209.575280 1213.613854 1213.998123 1218.850321 1223.264085
80.652727 1206.649212 1211.705824 1216.278109 1216.432723 1221.343086 1225.557060
80.789091 1208.551364 1213.740368 1218.544126 1218.714141 1223.903492 1227.654285
80.925455 1210.751508 1215.952789 1221.188955 1221.088116 1226.280556 1230.178084
81.061818 1212.751167 1218.508128 1223.606932 1223.483384 1228.681714 1232.449033
81.198182 1215.039136 1220.944710 1226.147859 1225.853938 1230.959418 1234.493310
81.334545 1217.206217 1223.121598 1228.599739 1228.220540 1233.275526 1236.637790
81.470909 1218.921302 1225.558797 1230.908734 1230.454986 1235.301370 1238.347617
81.607273 1222.474839 1228.046467 1233.442888 1232.840316 1237.423115 1240.036513
81.743636 1225.386957 1231.072603 1236.020505 1235.340123 1239.659531 1241.904313
81.880000 1228.485288 1234.052885 1238.646141 1237.908588 1241.854251 1244.033119
82.005000 1231.221223 1236.603321 1240.951655 1240.621038 1244.552408 1249.522753
82.130000 1233.869514 1239.645334 1243.045726 1243.367147 1247.997172 1253.813979
82.255000 1237.374498 1242.550663 1245.196139 1246.091650 1251.632176 1257.103348
82.380000 1242.139397 1245.270505 1247.327146 1248.746046 1254.984633 1259.874867
82.508571 1243.847361 1247.258753 1250.033159 1251.179258 1257.380115 1262.179967
82.637143 1245.720354 1249.432727 1253.057259 1253.681260 1259.602643 1264.391013
82.765714 1248.081551 1251.479786 1255.738980 1255.979694 1261.637478 1265.919767
82.894286 1249.937645 1253.881813 1258.490978 1258.283619 1263.573803 1267.515231
83.022857 1251.978498 1256.093793 1260.941461 1260.544867 1265.448559 1269.568106
83.151429 1254.219770 1259.049831 1263.326530 1262.825617 1267.348609 1271.186305
83.280000 1256.032674 1261.677414 1265.687608 1265.079091 1269.326037 1272.786569
83.400000 1258.153664 1264.097339 1267.876578 1267.300918 1271.506418 1274.620045
83.520000 1261.103429 1266.571366 1270.180781 1269.424522 1273.459407 1275.967813
83.640000 1263.797718 1268.795135 1272.123854 1271.462135 1275.307439 1277.449610
83.760000 1266.659338 1270.885514 1274.104460 1273.389815 1276.906323 1278.899042
83.880000 1269.506175 1273.169801 1275.921187 1275.306328 1278.523280 1280.297361
83.980000 1271.359489 1274.681778 1277.504164 1276.746236 1279.733932 1281.493897
84.080000 1272.338471 1276.304777 1279.027629 1278.197924 1281.074826 1282.617118
