depth(m) lower_95(kyr) lower_68(kyr) median(kyr) mean(kyr) upper_68(kyr) upper_95(kyr)
13.060000 686.095729 693.314018 698.777501 698.290498 703.420168 707.269493
13.130000 690.540797 697.148789 702.075575 701.617087 706.009400 709.385097
13.260000 699.053147 704.126176 708.167519 707.898251 711.696914 714.414367
13.350000 704.215391 709.553754 715.239438 715.217635 721.490116 724.936918
13.460000 708.892955 713.978062 723.590507 721.693168 726.978280 729.361123
13.560000 713.093063 722.703993 727.113484 726.103120 730.047100 732.414621
13.660000 722.337206 727.340062 730.326847 729.972787 732.876039 735.189764
13.750000 726.325546 730.119803 733.003821 732.769003 735.528814 737.651219
13.860000 730.007976 733.203429 736.135083 735.920860 738.607987 740.697778
13.950000 733.223405 735.970375 739.081719 738.810178 741.332715 743.478423
14.050000 736.718037 739.801234 742.384253 742.242479 744.535406 746.812717
14.150000 741.164904 743.889941 745.719874 745.766465 747.663872 749.647888
14.260000 744.959906 747.149239 749.163882 749.233200 751.226815 753.301137
14.330000 747.754698 749.743072 751.870490 751.982097 754.100274 756.358581
14.460000 754.414139 756.881785 759.732752 760.339633 764.502142 767.817888
14.550000 759.890389 763.284145 767.058920 766.668736 769.730479 771.668461
14.660000 767.766002 771.006082 772.640993 772.591370 774.351497 776.257571
14.750000 771.236346 773.836674 775.505471 775.545629 777.318898 779.503339
14.820000 773.649635 775.869594 777.529625 777.648693 779.444104 782.063422
14.920000 776.401090 778.379099 780.217745 780.380909 782.222431 784.954490
15.020000 778.755112 780.901785 782.816604 783.082807 784.895224 787.906413
15.120000 781.560965 783.507072 785.331228 785.662914 787.352914 790.046029
15.220000 784.645748 786.160785 787.847833 788.267416 789.766371 792.118899
15.320000 788.623399 790.042715 791.390571 791.875695 792.998487 795.815287
15.390000 793.246235 794.658291 796.278523 796.818099 798.275087 802.205622
15.520000 804.992814 808.977454 812.354825 813.471211 817.913903 828.664795
15.630000 812.149158 816.225158 821.571169 822.092652 828.047021 834.554335
15.720000 817.436906 824.845536 828.023581 828.624581 833.823282 838.277082
15.810000 824.517186 830.614920 835.620170 835.164973 839.951955 842.821641
15.920000 833.464286 839.091718 843.343139 843.164126 847.333931 851.525453
16.010000 839.839461 844.014750 848.578594 848.206945 852.439011 855.622556
16.120000 845.248043 849.319814 854.793185 854.052625 857.739022 860.886606
16.150000 846.103005 851.110499 856.441372 855.685539 859.437156 862.238642
16.220000 848.977924 856.476318 860.060658 859.485485 863.047318 865.583059
16.342500 853.237174 862.042829 866.446150 866.498483 871.371767 876.738264
16.465000 861.047494 867.694323 873.701208 873.379941 878.944545 882.930392
16.587500 868.267959 875.193504 880.547245 879.808212 884.471874 887.047311
16.710000 878.643901 882.738043 886.444609 886.035907 889.329113 891.433163
16.750000 880.547953 884.994475 888.317858 887.878969 890.816210 892.678868
16.830000 885.584499 888.575341 891.055824 890.876541 893.240934 894.991698
16.940000 890.007883 892.412389 894.388974 894.340470 896.294957 898.253397
17.010000 892.493176 894.647336 896.570701 896.534653 898.322170 900.093307
17.090000 895.063765 897.046270 899.004962 898.933981 900.755106 902.518490
17.215000 898.454117 900.521354 902.492293 902.432126 904.373545 906.109570
17.340000 901.970788 904.079813 905.960922 905.914392 907.853266 909.504063
17.450000 904.812935 907.180806 909.031066 908.972889 910.861960 912.437594
17.560000 908.648004 910.416839 912.308409 912.215653 913.924984 915.535574
17.650000 911.622840 913.551058 915.215193 915.318450 916.903042 919.402470
17.740000 915.901343 917.544000 919.321742 919.542704 921.450164 924.336731
17.850000 921.985971 923.746069 926.014401 926.098204 928.351863 931.084923
17.940000 928.779470 931.235804 933.809087 933.878704 936.584072 938.983419
18.050000 936.347621 939.004472 941.736677 941.781882 944.497724 948.013173
18.140000 943.166078 945.393026 947.831685 947.903014 950.438506 952.500925
18.250000 947.869482 950.561180 952.969693 952.670636 954.805773 956.081975
18.320000 950.396962 953.265155 955.790058 955.387475 957.447173 958.441847
18.420000 954.489547 957.849992 960.135657 960.129242 962.479395 965.372273
18.520000 961.091250 963.122499 965.479378 965.555878 968.019359 970.381575
18.650000 966.703648 971.521836 975.218489 974.832228 978.392304 980.864937
18.740000 969.888769 976.602019 980.597339 979.879564 983.164396 985.604246
18.830000 971.974114 982.371942 985.373192 984.596663 987.641975 989.873105
18.965000 976.635800 987.286796 990.668704 989.852419 993.048724 995.483983
19.100000 979.806899 992.013433 995.272427 994.544169 997.702102 1000.219979
19.235000 983.317319 997.523190 999.904746 999.273464 1002.026328 1004.671106
19.370000 986.938717 1002.920924 1004.310234 1003.897757 1006.049125 1008.323607
19.470000 990.573602 1005.566043 1007.359672 1006.968977 1009.350160 1011.599498
19.560000 997.889605 1008.274615 1010.230532 1010.048122 1012.715656 1014.985097
19.670000 1005.984198 1011.258496 1013.532883 1013.611627 1016.408391 1019.149303
19.760000 1011.412385 1014.336509 1016.947919 1016.926247 1019.779633 1022.010778
19.870000 1015.847807 1018.522683 1021.528558 1021.360527 1024.173889 1026.088403
19.960000 1019.511004 1022.371868 1025.269230 1024.972010 1027.356269 1029.255829
20.070000 1024.024838 1027.689669 1029.553924 1029.321379 1031.127485 1032.525884
20.160000 1029.303579 1031.387960 1032.792231 1032.875877 1034.421187 1036.549687
20.270000 1033.708606 1035.170980 1036.798972 1036.975476 1038.681428 1041.330938
20.360000 1036.474404 1038.028391 1039.847960 1040.119868 1042.217138 1045.310148
20.470000 1039.950087 1041.766346 1044.207814 1044.479264 1047.188083 1051.009294
20.560000 1043.668025 1046.221448 1049.278512 1049.449270 1052.778737 1056.006785
20.670000 1051.395255 1054.473530 1057.530821 1058.602750 1062.144688 1075.367795
20.740000 1055.300004 1058.646581 1062.250272 1063.471054 1068.401675 1078.294114
20.855000 1060.694456 1065.185102 1071.015470 1071.181290 1077.427286 1082.716883
20.970000 1066.373031 1073.656567 1078.520298 1078.262910 1083.088738 1087.034910
21.110000 1076.616403 1081.166836 1085.376301 1085.195880 1088.932695 1092.370711
21.150000 1078.755114 1083.380285 1087.309006 1087.143321 1091.096043 1094.049344
21.280000 1085.545386 1089.107648 1092.411851 1092.625841 1096.040587 1100.367017
21.350000 1089.816759 1092.730486 1095.719041 1095.970186 1099.034972 1103.500166
21.480000 1095.644285 1098.286443 1101.452171 1101.767625 1104.615925 1110.005153
21.550000 1099.190512 1101.984929 1105.170074 1105.389119 1108.167806 1113.651850
21.680000 1106.065487 1110.111208 1113.560010 1113.741667 1117.189747 1121.165322
21.750000 1109.267352 1113.984908 1118.014401 1118.015522 1121.658298 1126.132536
21.880000 1116.640382 1121.655547 1125.203834 1126.052710 1130.968914 1138.911074
21.930000 1119.185086 1124.336260 1128.382250 1129.187668 1135.244721 1141.682678
22.073333 1126.031080 1130.914757 1137.327451 1137.291366 1143.399059 1149.056872
22.216667 1132.714353 1138.514579 1145.324969 1144.806347 1150.402733 1155.390241
22.360000 1141.697391 1147.923984 1152.166375 1152.307502 1156.809016 1162.596498
22.460000 1147.659451 1152.429339 1156.113814 1156.661978 1160.949509 1167.287954
22.550000 1151.834350 1155.603580 1159.769933 1160.189530 1164.757889 1170.952788
22.660000 1156.044842 1159.539902 1163.536036 1164.106529 1168.967441 1174.574601
22.750000 1159.074082 1162.756394 1166.866968 1167.431574 1172.681609 1177.597555
22.850000 1162.708450 1166.496818 1170.585500 1171.208474 1176.481148 1181.190726
22.950000 1166.192832 1170.396774 1175.281709 1175.518930 1180.791640 1184.775865
23.050000 1170.509311 1175.707627 1180.681016 1180.444106 1185.465364 1188.164401
23.120000 1174.606503 1179.906954 1185.249950 1184.439012 1188.555439 1190.646511
23.260000 1189.965703 1192.036787 1193.797168 1193.913688 1195.731220 1198.675852
23.350000 1194.641608 1196.681321 1198.715751 1198.846926 1201.092856 1203.505679
23.460000 1198.655702 1201.007890 1203.482698 1203.343347 1205.625423 1207.347259
23.530000 1201.447658 1203.906630 1206.280427 1206.056821 1208.201460 1209.733602
23.650000 1205.848495 1208.238670 1210.343826 1210.167327 1212.119390 1213.647753
23.730000 1208.650281 1210.942632 1212.771343 1212.705683 1214.500835 1216.163700
23.810000 1211.298071 1213.448677 1215.206837 1215.152946 1216.864265 1218.410926
23.910000 1214.382613 1216.650597 1218.385392 1218.242895 1219.797202 1221.132341
23.980000 1217.248271 1219.150854 1220.727518 1220.562735 1222.000245 1223.100286
24.050000 1219.981665 1221.854474 1223.421595 1223.460293 1225.008899 1226.770405
24.130000 1222.799533 1224.423905 1225.937655 1226.015793 1227.642187 1229.538956
24.230000 1225.766647 1227.292288 1228.898731 1229.038426 1230.756028 1233.104631
24.330000 1228.631248 1230.190757 1231.820824 1232.016114 1233.813608 1236.108938
24.440000 1231.588787 1233.172503 1235.056992 1235.188102 1237.257171 1239.315475
24.530000 1234.191133 1235.821967 1237.872670 1237.905674 1239.907759 1241.942263
24.630000 1237.301353 1239.459250 1241.470144 1241.421319 1243.229981 1244.916091
24.730000 1245.781635 1247.031663 1249.277620 1250.551283 1255.166223 1259.323331
24.830000 1250.093496 1253.481195 1258.414834 1258.118488 1262.623255 1265.914738
24.930000 1256.745072 1260.812279 1264.585527 1264.210741 1267.290405 1269.793538
25.040000 1262.575845 1265.851627 1268.776805 1268.477662 1271.132796 1273.281876
25.185000 1268.086024 1271.240111 1273.785825 1273.576055 1275.962942 1277.855053
25.330000 1274.004046 1276.744526 1278.827472 1278.637666 1280.504242 1281.765668
25.440000 1278.891857 1281.631080 1283.214975 1283.115754 1284.686527 1286.364987
25.540000 1284.052011 1285.776636 1287.388673 1287.636217 1289.558770 1292.398342
25.640000 1287.736486 1289.504238 1291.756872 1292.134574 1294.926465 1297.763606
25.730000 1291.476299 1294.062805 1297.797719 1297.920193 1301.869518 1305.150319
25.840000 1301.180865 1306.282051 1310.363988 1310.135943 1314.075944 1317.233626
25.930000 1308.483477 1313.249397 1316.788579 1316.680513 1320.252614 1323.411733
26.040000 1321.046768 1324.206301 1327.747704 1327.955161 1331.953345 1335.200496
26.130000 1327.047365 1330.027334 1333.438256 1333.289111 1336.435331 1338.693745
26.240000 1333.382476 1336.595317 1339.023937 1338.696211 1340.737386 1342.232197
26.330000 1340.713743 1341.976966 1343.171875 1343.177553 1344.385020 1345.586356
26.440000 1344.179709 1345.438893 1346.880758 1347.099774 1348.797567 1351.236783
26.530000 1347.606066 1348.589270 1350.350700 1350.542043 1352.454077 1354.805609
26.640000 1351.118520 1352.721835 1354.987444 1354.818348 1356.787502 1358.233983
26.730000 1354.692883 1357.046090 1358.921188 1358.691368 1360.319805 1361.417331
26.840000 1360.135699 1361.849415 1363.276656 1363.302290 1364.826080 1366.507487
26.910000 1363.266134 1364.552693 1366.023165 1366.065334 1367.614093 1369.221760
27.010000 1366.570023 1368.074197 1369.661071 1369.708236 1371.383262 1373.036081
27.050000 1368.185123 1369.518601 1371.209812 1371.206061 1372.839160 1374.587955
27.150000 1371.300610 1373.139541 1374.896838 1374.828081 1376.390939 1378.069122
27.240000 1374.962591 1376.578495 1378.272311 1378.168562 1379.506131 1381.079145
27.350000 1379.734157 1381.427463 1383.382287 1384.563916 1387.563716 1397.721315
27.440000 1382.807631 1384.344960 1386.880668 1388.537138 1392.282397 1406.709240
27.550000 1385.920910 1387.611324 1390.455193 1393.702097 1403.694904 1412.478070
27.640000 1388.813678 1390.487870 1393.937145 1397.942319 1409.648794 1417.692768
