depth(m) lower_95(kyr) lower_68(kyr) median(kyr) mean(kyr) upper_68(kyr) upper_95(kyr)
27.100000 697.142731 702.269177 705.884314 705.244869 708.074061 709.442655
27.200000 700.850745 705.155885 708.186369 707.547224 709.726558 710.947561
27.300000 704.293944 707.932657 710.165527 709.692544 711.383592 712.335834
27.400000 707.755117 710.303393 711.850536 711.551542 712.821604 713.699240
27.500000 710.849146 712.414273 713.499172 713.359117 714.338533 715.093051
27.600000 713.430364 714.361706 715.230734 715.211615 716.044302 717.051214
27.700000 715.171050 715.999061 716.834019 716.860156 717.736549 718.822918
27.800000 716.577329 717.453206 718.342588 718.366674 719.238118 720.504715
27.900000 717.995441 718.887777 719.881177 719.868321 720.818877 721.988343
28.000000 719.427011 720.477038 721.466612 721.498984 722.491805 723.837831
28.100000 721.338222 722.339939 723.465199 723.584562 724.672438 726.790520
28.140000 722.199401 723.230949 724.413803 724.589030 725.810618 728.163669
28.200000 723.438470 724.517633 725.781369 726.103666 727.549960 730.930237
28.240000 724.254143 725.414495 726.709148 727.131870 728.803811 732.268483
28.300000 725.377233 726.522973 728.175641 728.765099 731.313691 734.289737
28.340000 726.240114 727.338680 729.276294 729.833275 732.745310 735.501496
28.400000 727.495686 728.613327 731.090809 731.456013 734.519116 736.853274
28.410000 727.660761 728.831918 731.392564 731.706372 734.796909 737.127915
28.530000 729.523886 731.179963 734.342005 734.299608 737.349799 738.856035
28.650000 731.797420 733.947813 737.275275 736.934139 739.558822 740.872040
28.770000 734.506384 737.404689 740.071493 739.584042 741.665385 742.958995
28.850000 736.655331 739.493411 741.754878 741.363283 743.081454 744.250662
28.950000 739.749633 742.307706 743.856754 743.660064 745.050599 746.397601
29.050000 742.884183 744.367496 745.545274 745.561774 746.826846 748.165308
29.120000 744.230034 745.581763 746.722954 746.738717 747.964354 749.258935
29.250000 746.306802 747.343618 748.672086 748.676648 749.896508 751.414475
29.350000 747.753273 748.878497 750.217701 750.232542 751.564469 753.027536
29.460000 749.382371 750.577499 751.940860 751.962931 753.318091 754.814512
29.550000 750.729104 752.000392 753.522584 753.505988 754.852016 756.605400
29.650000 752.052708 753.673710 755.246428 755.324337 756.949193 759.115938
29.750000 753.638442 755.232427 756.936628 757.183674 759.047127 762.389500
29.850000 755.317742 756.922880 758.813777 759.202497 761.522922 765.419159
29.940000 756.672400 758.657291 761.289127 761.729883 765.096589 768.262435
30.050000 759.517088 762.325212 766.558547 766.082428 769.443873 771.280017
30.160000 765.063129 769.447028 771.941863 771.738929 774.159547 777.145896
30.240000 770.545962 772.903503 775.055192 775.074788 777.262134 780.077515
30.310000 772.989949 775.140722 777.234202 777.366552 779.740014 782.243663
30.430000 776.030036 778.208855 780.619276 780.563899 782.948987 784.582138
30.550000 778.529828 781.209437 783.769925 783.518378 785.663521 787.118612
30.650000 781.114087 784.408493 786.494660 786.181756 788.008982 789.440528
30.740000 784.672415 787.481905 788.989651 788.841703 790.403568 791.627017
30.850000 789.723377 790.978360 792.416526 792.424899 793.823998 795.346986
30.950000 791.711352 793.010580 794.373723 794.454592 795.996324 797.497844
31.050000 793.353286 794.742263 796.241336 796.272718 797.827186 799.325248
31.150000 794.862245 796.385560 797.959572 797.958771 799.552439 800.914813
31.250000 796.549386 798.065215 799.571995 799.585867 801.087166 802.640805
31.350000 798.218344 799.761018 801.151744 801.217494 802.743066 804.218231
31.450000 799.872979 801.443391 802.909988 802.926765 804.491108 806.194976
31.520000 801.544015 802.928099 804.417754 804.509233 806.119240 808.009674
31.620000 803.983107 805.627072 807.568386 807.651251 809.582636 811.875780
31.740000 808.633037 810.721304 812.848680 813.031708 815.227080 818.298912
31.840000 811.798075 813.620503 815.779720 816.015521 818.215162 822.241457
31.930000 814.375030 816.338259 818.300703 818.639390 820.997576 824.649279
32.040000 816.950120 818.786817 821.304029 821.489120 824.101940 828.629220
32.150000 819.078378 821.166400 824.245664 824.457103 827.701020 831.649131
32.250000 820.968422 823.474140 826.880319 827.040829 830.633444 834.196771
32.350000 823.338601 825.812410 829.338679 829.457489 833.154858 836.234126
32.450000 825.206212 828.202185 832.002281 831.827211 835.378298 838.120945
32.550000 827.615091 830.701149 834.336260 834.132354 837.373189 839.994587
32.650000 829.944105 833.256106 836.624891 836.466747 839.454097 841.645944
32.750000 832.681126 836.255264 838.884592 838.722054 841.384210 843.531715
32.850000 835.472032 838.960156 841.208424 841.164910 843.317901 845.613511
32.950000 838.863729 841.420910 843.453356 843.502924 845.579538 848.337209
33.050000 841.390516 843.611597 845.562547 845.706750 847.998913 850.490908
33.150000 843.539814 845.569848 847.553760 847.806516 850.116272 853.007149
33.250000 845.550542 847.745156 849.656829 849.962559 852.404046 855.157052
33.340000 847.649663 849.812678 851.923402 852.056250 854.441039 856.937698
33.430000 849.858770 852.111750 854.306929 854.271510 856.515214 858.816594
33.550000 853.018314 855.161044 857.412326 857.323468 859.487032 861.254540
33.650000 855.568164 857.738711 859.968863 859.780888 861.662116 863.062318
33.750000 857.995813 860.007377 862.272438 861.998820 863.805938 864.923651
33.850000 860.280231 862.567665 864.341642 864.062535 865.549340 866.526597
33.950000 863.882102 865.449648 866.588226 866.485433 867.556807 868.467878
34.050000 866.489694 867.682916 868.634379 868.617233 869.554535 870.615558
34.150000 868.558229 869.453354 870.411570 870.413377 871.413787 872.234912
34.250000 870.093235 871.132774 872.082761 872.090682 873.084868 874.181609
34.350000 871.536623 872.747062 873.707805 873.711523 874.714287 875.935962
34.450000 873.272700 874.319608 875.266370 875.299975 876.298198 877.606774
34.550000 874.863993 875.909949 876.950593 877.000567 878.055066 879.706208
34.670000 876.954448 877.987588 879.152270 879.285810 880.586059 882.540469
34.700000 877.642968 878.625355 879.806057 879.998463 881.412850 883.468661
34.750000 878.469399 879.584441 880.802027 881.059671 882.661695 884.577734
34.800000 879.339865 880.445274 881.915182 882.120276 883.857639 885.706011
34.850000 880.359361 881.486690 883.027804 883.232791 885.100628 886.991275
34.900000 881.264225 882.505587 884.125397 884.352190 886.364272 888.054960
34.930000 881.891145 883.166792 884.818282 885.020012 887.036761 888.644099
35.030000 883.832846 885.291273 887.298110 887.272499 889.171995 890.581574
35.050000 884.202614 885.765750 887.808712 887.770593 889.715790 891.099574
35.100000 885.289038 887.113670 889.137388 889.026689 890.876863 892.278059
35.150000 886.673286 888.691510 890.520850 890.463456 892.201100 893.772402
35.200000 888.420737 890.191551 892.002835 891.957821 893.714640 895.124088
35.250000 890.322564 891.924362 893.631999 893.627579 895.231535 896.854913
35.300000 891.782863 893.604676 895.209645 895.233045 896.810666 898.875760
35.350000 893.608326 895.273167 896.862402 896.969080 898.676111 900.861309
35.360000 893.938896 895.548162 897.226895 897.303628 899.023764 901.202413
35.450000 896.453429 898.045584 900.054326 900.404293 902.853560 906.137996
35.500000 897.650384 899.370153 901.600302 902.026038 904.955927 907.978795
35.550000 898.954685 900.879625 903.209548 903.634368 906.863147 909.528057
35.600000 900.080614 902.185535 904.972247 905.204390 908.448581 911.066843
35.650000 901.453162 903.681922 906.685987 906.832273 910.388118 912.317493
35.730000 903.422643 906.297599 909.931871 909.580090 912.559462 913.942440
35.750000 903.974596 906.953918 910.644416 910.214349 913.089310 914.402651
35.800000 905.466315 908.960452 912.738330 912.004325 914.515615 915.545269
35.850000 907.117620 911.388254 914.435437 913.722629 915.784894 916.875611
35.880000 908.203778 912.672388 915.189801 914.599199 916.481318 917.747524
36.000000 915.270854 916.679840 917.971236 917.963897 919.341268 920.470639
36.050000 916.437416 917.785849 919.165818 919.128006 920.461098 921.698338
36.100000 917.555859 918.914461 920.278558 920.251615 921.622290 922.708043
36.150000 918.647505 920.066494 921.405625 921.355914 922.639528 923.782177
36.200000 919.800081 921.275974 922.585625 922.541324 923.781633 924.862534
36.250000 921.014064 922.404270 923.728726 923.682551 924.963475 926.141282
36.300000 922.183041 923.451617 924.797066 924.749665 926.073349 927.136431
36.350000 923.488172 924.564741 925.880339 925.868772 927.137091 928.254954
36.410000 924.857767 926.106691 927.320162 927.334297 928.581489 929.841094
36.430000 925.276834 926.594434 927.789606 927.817406 929.074902 930.431783
36.500000 926.733929 927.951114 929.141759 929.239143 930.578351 932.099183
36.550000 927.693140 928.908486 930.200447 930.288198 931.765050 933.350062
36.600000 928.808880 929.948989 931.305444 931.373061 932.851586 934.440976
36.650000 929.866622 930.956244 932.423200 932.474500 933.951054 935.485206
36.700000 930.695826 932.115651 933.570078 933.639575 935.194203 936.791312
36.750000 931.676960 933.170053 934.729156 934.756171 936.395872 937.957337
36.800000 932.691430 934.346296 936.005553 936.008223 937.693459 939.350322
36.850000 933.677032 935.361901 937.194047 937.147603 938.929437 940.277095
36.920000 935.560958 937.131028 938.939457 938.892256 940.579187 941.964096
37.000000 937.622676 939.224186 941.072545 940.982807 942.656216 944.454903
37.050000 938.810517 940.523918 942.348374 942.350225 944.066204 945.966036
37.100000 940.643160 942.326832 943.914590 944.018134 945.709761 947.824578
37.150000 942.421398 943.944858 945.568557 945.666923 947.468050 949.255591
37.230000 944.649026 946.148529 948.135011 948.081230 949.954785 951.296547
37.250000 945.177505 946.812631 948.724523 948.668710 950.472869 951.748089
37.300000 946.590494 948.367545 950.373441 950.118244 951.760421 952.956307
37.360000 947.936061 949.694337 951.686451 951.439644 953.051422 953.993278
37.410000 948.858345 950.800927 952.705611 952.459166 954.026363 954.938343
37.450000 949.806592 951.789740 953.543555 953.294207 954.757107 955.619889
37.500000 951.055709 952.856959 954.524803 954.298529 955.682519 956.447709
37.550000 952.160534 954.047759 955.546358 955.337550 956.645898 957.330626
37.600000 953.307137 955.332818 956.640224 956.408243 957.520642 958.193553
37.650000 955.103152 956.915177 957.884003 957.730924 958.600895 959.340680
37.750000 958.763961 959.465999 960.221582 960.341128 961.181978 962.704352
37.850000 960.803949 961.622624 962.803730 963.091749 964.615707 966.499825
37.950000 962.749455 963.889497 965.552456 965.602165 967.338618 968.637252
38.020000 963.987230 965.589943 967.593414 967.491682 969.291628 971.030340
38.150000 966.503820 968.404227 970.413351 970.608758 972.507809 976.136526
38.250000 968.618645 970.386171 972.396573 972.929882 975.378763 981.458517
38.330000 970.368604 972.193636 974.463131 975.053933 977.856026 983.536217
38.430000 972.079496 974.230375 977.063647 977.644872 981.088736 986.013052
38.550000 974.027848 976.664973 980.819475 981.027915 985.342803 989.172750
38.650000 976.008677 979.096823 983.618828 983.808221 988.761528 991.617222
38.750000 978.640058 981.499891 986.448626 986.365925 990.964724 993.794598
38.860000 981.708909 985.722765 989.846030 989.555149 992.999312 995.761449
38.950000 984.483150 989.645375 992.479461 992.310655 994.907910 997.668097
39.050000 990.148730 993.033958 995.294265 995.210975 997.428565 999.657929
39.150000 994.100935 996.170040 998.161549 998.125969 1000.176574 1001.845094
39.250000 996.496860 999.041999 1001.557852 1001.666104 1004.268274 1007.287037
39.350000 998.644832 1002.387332 1005.386303 1005.214591 1008.276688 1010.855243
39.460000 1001.205795 1005.402050 1008.833255 1008.541520 1011.647210 1015.107280
39.570000 1004.389877 1008.683474 1011.352918 1011.324001 1014.166302 1017.935096
39.650000 1007.996666 1010.876044 1013.213318 1013.505583 1016.556550 1019.450554
39.750000 1011.575499 1013.739846 1015.983812 1016.322053 1019.235100 1022.037832
39.830000 1013.780356 1015.782195 1018.270014 1018.469015 1021.332695 1023.909968
39.920000 1015.948972 1018.035972 1020.736081 1020.681758 1023.444029 1025.595543
40.050000 1019.259805 1021.618286 1024.074659 1023.917050 1026.259318 1027.998869
40.150000 1021.558140 1024.194104 1026.472202 1026.240698 1028.276346 1029.641856
40.250000 1024.076649 1026.890092 1028.761434 1028.508377 1030.167028 1031.363194
40.350000 1027.386609 1029.416447 1030.947695 1030.783759 1032.118028 1033.270603
40.450000 1030.833201 1032.256039 1033.408220 1033.569331 1034.913531 1037.248408
40.550000 1033.134190 1034.328726 1035.809473 1036.027841 1037.820585 1039.949571
40.630000 1034.695828 1035.971046 1037.664100 1037.891234 1039.823719 1041.972628
40.750000 1036.694069 1038.192763 1040.195475 1040.322480 1042.498883 1044.538082
40.850000 1038.498031 1040.155702 1042.316200 1042.331219 1044.627579 1046.401218
40.950000 1040.123182 1042.161386 1044.385183 1044.377211 1046.651749 1048.500404
41.010000 1041.227248 1043.297833 1045.550901 1045.508402 1047.665026 1049.778418
41.150000 1043.378855 1045.653758 1047.773490 1047.744347 1049.885385 1051.755541
41.250000 1044.995064 1047.202396 1049.393258 1049.348382 1051.522664 1053.411970
41.330000 1046.412772 1048.584675 1050.879227 1050.773220 1052.959419 1055.214179
41.420000 1048.161675 1050.459586 1052.614495 1052.639624 1054.949529 1057.455865
41.550000 1051.262060 1053.403779 1055.841197 1056.049278 1058.811924 1061.517542
41.650000 1055.113375 1057.555746 1060.406690 1060.419312 1063.224727 1066.225606
41.750000 1058.857821 1061.191925 1063.625441 1063.709578 1066.284602 1068.988924
41.850000 1061.415431 1063.959455 1066.308914 1066.315099 1068.773059 1071.179020
41.950000 1063.883833 1066.122427 1068.585573 1068.510386 1070.848590 1072.887984
42.050000 1066.156929 1068.417955 1070.674563 1070.671907 1072.947338 1074.900952
42.150000 1068.422721 1070.716770 1072.945817 1072.924581 1075.140785 1077.661465
42.250000 1070.930455 1073.211983 1075.589702 1075.738196 1078.280836 1081.827393
42.350000 1074.144168 1076.280011 1078.835648 1079.157012 1082.319572 1085.989488
42.450000 1076.962911 1079.628094 1082.910082 1083.065797 1086.667857 1089.771332
42.520000 1079.376657 1081.941425 1085.688148 1085.596192 1089.179786 1092.074788
42.650000 1083.261055 1086.847996 1090.036332 1089.903902 1092.942079 1096.371965
42.750000 1086.440943 1090.015876 1092.804338 1092.827129 1095.737408 1099.268893
42.830000 1089.513731 1092.188771 1094.920525 1095.046476 1098.000434 1101.439422
42.920000 1091.719119 1094.333737 1097.019248 1097.155432 1100.188685 1103.495477
43.050000 1094.399958 1097.095639 1099.980757 1100.139511 1103.368469 1106.171265
43.150000 1097.002296 1099.537310 1102.423893 1102.456154 1105.400191 1108.104466
43.250000 1099.504600 1101.980541 1105.052907 1104.902033 1107.584880 1110.436631
43.350000 1101.777014 1104.810545 1107.700499 1107.543158 1110.118615 1112.875689
43.450000 1105.221038 1107.865784 1110.323922 1110.331542 1112.808757 1115.474508
43.550000 1108.929552 1110.811403 1113.024620 1113.033620 1115.225945 1117.488821
43.650000 1111.463240 1113.272143 1115.524525 1115.446269 1117.498147 1119.508336
43.750000 1113.606010 1115.736354 1118.044138 1117.896481 1119.945596 1121.661730
43.850000 1115.797633 1118.255491 1120.446106 1120.374316 1122.477031 1124.151226
43.950000 1118.659389 1120.798095 1122.720028 1122.618213 1124.485262 1125.821470
44.010000 1119.973742 1122.158786 1124.023202 1123.846207 1125.574570 1126.767390
44.150000 1122.812186 1124.645606 1126.240567 1126.149515 1127.611567 1128.869079
44.200000 1123.866203 1125.683557 1127.110243 1127.046350 1128.404447 1129.698899
44.250000 1124.980355 1126.718288 1128.022865 1127.981319 1129.279826 1130.530527
44.300000 1125.727652 1127.658709 1128.892986 1128.860182 1130.080921 1131.385538
44.330000 1126.578323 1128.205981 1129.479467 1129.403974 1130.603716 1131.860050
44.380000 1127.417047 1129.154735 1130.329576 1130.270407 1131.466963 1132.698767
44.420000 1128.357523 1129.811189 1130.986008 1130.952833 1132.115197 1133.439694
44.530000 1130.057637 1131.436300 1132.594211 1132.594446 1133.788884 1135.077061
44.550000 1130.426316 1131.769450 1132.936361 1132.933236 1134.128098 1135.399911
44.600000 1131.283439 1132.555084 1133.820827 1133.780900 1134.964610 1136.301088
44.650000 1132.027257 1133.474583 1134.652457 1134.653581 1135.842310 1137.176813
44.700000 1132.844380 1134.256746 1135.477693 1135.520658 1136.813320 1138.564364
44.750000 1133.696560 1135.033822 1136.250142 1136.301567 1137.569557 1139.440059
44.800000 1134.495833 1135.834049 1136.969840 1137.083673 1138.382079 1140.424066
44.850000 1135.402920 1136.613886 1137.792094 1137.939691 1139.204523 1141.546808
44.910000 1136.478808 1137.665971 1138.876627 1139.060774 1140.518504 1142.623826
44.950000 1137.160350 1138.517986 1139.688574 1139.912357 1141.541741 1143.393215
45.020000 1138.559721 1139.763778 1141.154260 1141.356540 1143.131581 1144.927432
45.050000 1139.196387 1140.295032 1141.807634 1141.973827 1143.756123 1145.547552
45.100000 1140.048770 1141.225796 1142.813189 1142.973838 1144.797480 1146.669588
45.150000 1140.861680 1142.079915 1143.733400 1143.887493 1145.755967 1147.490477
45.230000 1141.991982 1143.386880 1145.228175 1145.240998 1147.127974 1148.735633
45.300000 1143.010277 1144.495295 1146.521125 1146.427524 1148.270210 1149.805148
45.410000 1144.747145 1146.371306 1148.335632 1148.197534 1149.969560 1151.432784
45.510000 1146.230323 1148.025191 1149.861687 1149.774994 1151.518901 1152.919712
45.600000 1147.647634 1149.385668 1151.318653 1151.220152 1152.907488 1154.494181
45.700000 1149.111441 1150.934081 1152.836805 1152.780236 1154.441521 1156.459022
45.800000 1150.551117 1152.418787 1154.352483 1154.406338 1156.214403 1158.743665
45.910000 1152.363044 1154.183130 1156.183611 1156.222147 1158.144223 1160.542807
46.000000 1153.806741 1155.725714 1157.681054 1157.782885 1159.762672 1162.322023
46.100000 1155.575062 1157.722143 1159.598963 1159.706553 1161.593242 1164.944047
46.200000 1157.445379 1159.533775 1161.371838 1161.638591 1163.730873 1167.132142
46.300000 1159.279878 1161.412216 1163.272239 1163.520323 1165.919550 1169.249771
46.350000 1160.255290 1162.383693 1164.151893 1164.481731 1166.834482 1170.184307
46.410000 1161.452175 1163.453260 1165.270457 1165.669072 1168.167702 1171.544844
46.450000 1162.169196 1164.239760 1166.102816 1166.482079 1168.949828 1172.335546
46.510000 1163.521131 1165.400517 1167.234231 1167.728421 1170.158185 1173.829922
46.550000 1164.335263 1166.188844 1168.087801 1168.602351 1171.240132 1174.880815
46.600000 1165.476397 1167.212040 1169.224486 1169.757234 1172.697934 1175.917968
46.650000 1166.797667 1168.281786 1170.576119 1171.030197 1174.133785 1177.181653
46.730000 1168.420961 1170.060520 1173.014721 1173.231886 1176.444735 1178.821428
46.750000 1168.782961 1170.511983 1173.554153 1173.712877 1176.862880 1179.227815
46.800000 1169.648206 1171.725582 1174.847257 1174.887967 1178.143723 1180.237290
46.870000 1170.950043 1173.315974 1176.514710 1176.484684 1179.883363 1181.550912
46.910000 1171.620178 1174.205607 1177.470676 1177.377949 1180.693239 1182.304755
46.950000 1172.367921 1175.024918 1178.315449 1178.235305 1181.421221 1183.048525
47.000000 1173.278937 1176.296987 1179.425062 1179.282630 1182.288213 1183.793672
47.030000 1173.823250 1176.893573 1180.034771 1179.890927 1182.820877 1184.367222
47.100000 1175.247065 1178.324411 1181.472349 1181.197867 1184.074866 1185.336915
47.150000 1176.134611 1179.227535 1182.512188 1182.150570 1184.916110 1186.165096
47.250000 1178.539382 1180.964868 1184.502135 1183.865737 1186.349541 1187.548141
47.350000 1180.325233 1183.160172 1185.998978 1185.522006 1187.747664 1188.772026
