depth(m) lower_95(kyr) lower_68(kyr) median(kyr) mean(kyr) upper_68(kyr) upper_95(kyr)
11.130000 696.270763 703.292059 706.929778 706.229709 709.138638 710.979344
11.230000 707.494210 710.314172 711.938739 711.971987 713.403002 714.797846
11.330000 714.018345 715.304986 716.446289 716.840418 717.865527 720.557798
11.430000 717.829046 719.309483 720.859067 721.215600 722.487443 724.872729
11.530000 722.078005 723.810172 725.886981 726.667466 728.859129 736.706709
11.630000 726.049356 728.436735 731.882713 732.600425 736.031169 747.616249
11.730000 731.038811 735.180817 739.307903 739.715405 742.797662 756.545320
11.830000 738.811547 745.036094 751.469856 750.846816 755.475309 760.757990
11.930000 756.500976 759.401098 762.001763 762.026521 765.044793 768.021328
12.030000 763.229137 766.488368 768.960679 768.795563 771.178819 773.776108
12.130000 770.508383 774.287268 778.033411 778.018863 782.086846 785.315657
12.230000 776.113409 780.470582 784.081517 783.891332 787.525683 790.970472
12.330000 782.878107 786.224669 788.989140 789.015904 792.128959 795.397988
12.430000 789.356935 791.204997 793.536873 793.768285 796.732181 799.631674
12.530000 791.976260 793.459513 796.048864 796.778243 800.632383 804.405838
12.630000 795.577062 797.086853 799.190531 800.193010 803.806612 807.262236
12.730000 799.691538 801.778886 804.443378 805.068946 808.519579 811.921655
12.830000 809.179414 811.734291 814.440243 815.490037 818.241006 828.982475
12.930000 814.517682 818.557964 823.319151 823.811080 829.732919 835.333643
13.030000 821.200224 826.183817 831.751831 831.567125 836.776927 840.860589
13.130000 828.426657 835.508997 840.242844 839.844208 843.677978 851.626763
13.230000 842.856900 845.857181 848.361644 849.146964 854.047894 857.870205
13.330000 847.408611 850.506257 855.710658 855.204623 859.335265 861.916168
13.430000 851.932174 855.911026 860.708997 859.921075 863.447558 865.010737
13.530000 857.966886 863.502904 865.644599 865.214919 867.062009 868.615704
13.630000 868.569214 870.603890 872.639102 872.746240 874.865519 877.738743
13.730000 872.461047 876.042614 879.541497 879.354267 882.532650 885.880612
13.830000 877.173231 881.409553 886.529920 885.784488 889.697054 892.422437
13.930000 886.245062 892.559786 897.727442 897.178175 901.473844 905.388103
14.030000 893.575057 899.209327 904.122114 903.707186 907.846067 911.503991
14.130000 900.318609 906.389456 910.160165 909.824419 913.344766 916.568604
14.230000 906.167751 913.295369 916.663252 916.639286 920.973098 924.260264
14.330000 912.879166 920.256651 924.522967 923.663230 927.443207 929.988687
14.430000 922.568555 927.977030 931.516573 931.186389 934.498361 938.266332
14.530000 942.583197 946.288364 949.112836 948.999907 952.053925 954.318022
14.630000 950.201718 953.657389 955.554797 955.390320 957.369477 958.537850
14.730000 957.762611 958.929125 959.886558 960.024785 961.094545 962.422476
14.830000 961.206065 962.597016 964.000958 964.061586 965.330116 967.008056
14.930000 964.949748 966.521920 967.948859 968.007842 969.348081 970.714651
15.030000 969.591166 971.016264 972.679900 972.798770 974.424885 976.649635
15.130000 973.219660 975.250111 977.692330 977.777915 979.990097 982.572384
15.230000 976.545205 980.268458 983.142357 983.349836 986.373279 990.156586
15.330000 980.292892 983.931981 988.397113 988.101296 991.711744 994.765223
15.430000 983.537698 988.482600 992.860775 992.483300 995.582323 1001.018500
15.530000 987.233620 992.545486 998.133914 997.443183 1000.752594 1007.793244
15.630000 990.734597 995.398026 1004.855449 1004.089312 1009.938775 1013.678694
15.730000 994.208975 999.316491 1012.174128 1010.185103 1015.612337 1020.014368
15.830000 998.502707 1001.816931 1016.649759 1014.871119 1020.950708 1026.032243
15.930000 1003.389586 1010.693812 1020.896182 1019.539672 1025.444400 1031.811593
16.030000 1010.112467 1020.348769 1025.972802 1024.883173 1029.572895 1034.729262
16.130000 1015.903930 1026.974788 1030.700973 1030.175137 1033.784287 1040.004850
16.230000 1027.773955 1033.082843 1036.060653 1036.600868 1041.225918 1045.606711
16.330000 1034.068262 1038.623598 1042.790452 1042.748946 1047.322087 1050.221474
16.430000 1041.908142 1045.778341 1048.740521 1048.698974 1051.993937 1054.380697
16.530000 1049.530175 1052.588713 1055.045734 1054.997978 1057.469188 1060.213161
16.630000 1057.100871 1059.977603 1062.675300 1062.721951 1065.468726 1068.859610
16.730000 1064.372858 1067.717224 1070.501285 1070.382789 1073.015986 1075.484889
16.830000 1073.923038 1078.316171 1082.587015 1083.226542 1088.496921 1094.617924
16.930000 1082.732750 1088.210737 1092.948306 1093.664650 1098.178840 1114.404760
17.030000 1092.134070 1097.424182 1101.618999 1102.961757 1106.985381 1127.405352
17.130000 1097.968320 1104.574831 1109.213467 1111.029176 1116.392457 1137.078239
17.200000 1103.886341 1110.095993 1115.517273 1117.077358 1122.082788 1141.980246
17.210000 1104.402119 1111.133424 1116.347718 1117.956484 1123.006856 1142.573969
17.310000 1111.276581 1121.100990 1128.778659 1130.034069 1140.283040 1147.079974
17.410000 1118.944345 1135.831888 1142.508685 1141.162478 1148.068343 1152.583039
17.510000 1138.387667 1145.488787 1149.648107 1149.202063 1153.478186 1158.421092
17.610000 1147.941725 1152.606539 1155.833295 1156.091398 1159.976162 1165.483057
17.710000 1153.951151 1157.313867 1161.223452 1161.522925 1166.118047 1171.013800
17.720000 1154.640506 1157.924104 1161.835256 1162.142265 1166.853267 1171.541903
17.820000 1159.495863 1162.673317 1166.907555 1167.344543 1172.537413 1177.040155
17.920000 1164.403880 1167.715964 1172.268603 1172.737938 1178.206506 1182.125955
18.020000 1169.864547 1173.610940 1179.340807 1179.009947 1183.923442 1186.798550
18.120000 1176.181522 1181.976343 1187.225212 1186.069304 1189.623126 1191.047527
18.220000 1192.263777 1193.488715 1195.084698 1195.270292 1197.056404 1199.747388
18.320000 1196.963376 1198.587295 1200.346443 1200.523821 1202.358560 1205.544142
18.420000 1200.953129 1203.235410 1205.302235 1205.539939 1207.608544 1211.398434
18.520000 1207.444381 1209.135645 1211.123088 1211.828466 1215.229403 1218.708514
18.620000 1212.564673 1214.923072 1219.027556 1219.027737 1222.825458 1226.126500
18.720000 1220.234326 1223.940996 1227.471460 1228.010456 1232.863634 1236.941756
18.820000 1226.951126 1231.502077 1237.223442 1236.403063 1240.817141 1242.752457
18.920000 1242.275837 1243.373496 1244.321228 1244.296660 1245.191122 1246.456285
19.020000 1246.272974 1247.884520 1249.715785 1250.161883 1252.537941 1256.336103
19.120000 1250.481198 1252.953363 1255.190143 1255.511865 1258.302316 1261.285135
19.220000 1257.349899 1259.638979 1262.551845 1262.393434 1265.017167 1267.187586
19.320000 1265.201578 1267.377601 1269.980449 1269.854954 1272.205853 1274.708167
19.420000 1270.147672 1272.548159 1275.039557 1274.999177 1277.420735 1279.652401
19.520000 1275.197397 1277.707488 1279.813793 1279.755201 1281.873017 1283.898274
19.620000 1280.306979 1282.507227 1284.448667 1284.538942 1286.746950 1288.709110
19.720000 1285.008967 1286.467472 1288.250898 1288.676929 1291.290174 1293.441022
19.820000 1288.926619 1290.583592 1292.751998 1292.921310 1295.321589 1297.479211
19.920000 1293.574352 1295.304586 1297.829265 1297.941671 1300.331176 1303.107452
20.020000 1299.527083 1301.921638 1305.429385 1305.635808 1309.042857 1315.593609
20.120000 1306.010926 1309.640674 1314.911404 1314.583715 1319.070152 1322.278809
20.220000 1318.278773 1321.256968 1323.786447 1323.817921 1326.726515 1330.020336
20.320000 1325.078787 1327.551396 1330.511075 1330.468452 1333.452367 1336.048968
20.420000 1330.251723 1333.356918 1336.304612 1336.183823 1338.971358 1341.006862
20.520000 1337.739774 1340.857087 1342.731375 1342.603583 1344.648218 1346.233076
20.620000 1346.228140 1348.557607 1351.398491 1351.559885 1354.612322 1357.701128
20.720000 1355.435378 1359.112193 1360.797894 1360.657166 1362.427237 1364.602529
20.820000 1364.657856 1367.908666 1371.285979 1371.643562 1375.743439 1379.581989
20.920000 1368.774817 1373.574561 1379.537249 1378.365661 1382.537424 1385.035327
21.020000 1374.435690 1380.531743 1384.206016 1383.814782 1387.105487 1390.365197
21.120000 1382.177813 1386.056681 1390.745466 1391.356316 1396.917493 1404.085461
21.220000 1386.041439 1389.871001 1397.203003 1397.599094 1405.642981 1409.714136
21.320000 1389.496750 1393.763967 1405.262790 1403.304683 1411.528746 1414.343281
21.420000 1394.472741 1399.222749 1410.719141 1408.938705 1417.406808 1419.574478
