depth(m) lower_95(kyr) lower_68(kyr) median(kyr) mean(kyr) upper_68(kyr) upper_95(kyr)
83.290000 692.244020 696.005113 699.013964 699.017549 702.447562 704.968050
83.340000 693.013164 696.914206 699.824589 699.805957 703.135910 705.673267
83.390000 693.846862 697.698330 700.711190 700.610695 703.975358 706.423791
83.440000 694.752048 698.428572 701.465860 701.396438 704.781137 706.902769
83.490000 695.330911 699.436760 702.258651 702.166307 705.429100 707.533978
83.540000 696.085182 700.084265 703.032606 702.965322 706.140471 708.230862
83.590000 697.222274 700.866838 703.983591 703.766811 706.824923 708.800333
83.723333 699.481193 703.077651 705.999933 705.791766 708.597475 710.236841
83.856667 702.414755 705.385706 708.000845 707.743424 710.125669 711.524682
83.990000 705.336058 707.763139 710.050067 709.744189 711.708992 712.916456
84.090000 707.634460 709.789139 711.530343 711.391095 713.006081 714.180677
84.190000 710.496630 711.922371 713.253184 713.135723 714.348439 715.391351
84.240000 711.836282 712.973279 714.155343 714.086960 715.197752 716.177813
84.290000 713.077883 714.281023 715.191858 715.202778 716.126857 717.359402
84.340000 714.443278 715.341946 716.233567 716.314207 717.314644 718.535491
84.380000 715.390562 716.224662 717.152108 717.240128 718.272745 719.459575
84.430000 716.188119 717.181641 718.170794 718.224367 719.384212 720.442196
84.480000 717.046411 718.070972 719.139896 719.190674 720.333826 721.376634
84.530000 717.871630 719.010219 720.200579 720.177652 721.328624 722.361496
84.580000 718.853587 719.967893 721.209998 721.189049 722.358476 723.480480
84.630000 720.032084 721.268775 722.351431 722.382530 723.555742 724.703520
84.680000 720.854518 722.265770 723.467162 723.493868 724.745905 726.089396
84.730000 722.064745 723.308873 724.657205 724.748896 726.170320 728.087166
84.780000 723.390623 724.645876 726.212242 726.261352 727.844749 729.900940
84.830000 724.291037 726.012456 727.974594 727.973538 729.951834 731.888775
84.880000 724.991254 726.948240 729.357096 729.323302 731.638103 733.665305
84.930000 725.595786 727.765014 730.746556 730.642706 733.437637 735.658459
84.980000 726.249570 728.699492 732.107824 731.856274 734.749426 736.761949
85.030000 726.995308 729.807602 733.501016 733.091786 736.079544 737.843277
85.080000 727.727866 730.840183 734.734522 734.263450 737.164995 738.732633
85.130000 728.666394 732.387171 735.882871 735.386350 738.143477 739.649980
85.180000 730.054665 733.770084 737.022659 736.485465 739.075573 740.631006
85.230000 731.143136 734.818560 737.950798 737.462878 739.966594 741.483169
85.280000 732.424602 736.019123 738.972017 738.523576 740.942790 742.292324
85.330000 734.063593 737.353419 740.016079 739.631487 741.866406 743.200786
85.430000 738.814805 740.846031 742.304117 742.187109 743.530807 744.742541
85.480000 740.660519 742.371577 743.563784 743.466178 744.600938 745.672804
85.530000 742.416564 743.585899 744.609597 744.581186 745.581734 746.559123
85.580000 743.342763 744.423870 745.412682 745.408683 746.362523 747.458496
85.630000 744.261248 745.126827 746.100683 746.112938 747.099391 748.079803
85.680000 744.804089 745.746918 746.729811 746.772100 747.802868 748.785374
85.730000 745.451162 746.385935 747.416164 747.471675 748.552091 749.826135
85.780000 746.024238 747.016940 748.118319 748.193450 749.380862 750.792255
85.830000 746.513561 747.626014 748.903811 748.944626 750.213199 751.784391
85.880000 747.077515 748.292649 749.626582 749.691352 751.096463 752.741490
85.930000 747.733611 748.961305 750.393177 750.443936 751.953948 753.474713
85.980000 748.280929 749.649586 751.264563 751.238171 752.811982 754.283320
86.030000 749.057428 750.442900 752.182045 752.120010 753.701679 755.078699
86.080000 749.824225 751.389446 753.224082 753.146811 754.775653 756.062947
86.180000 752.122184 753.858493 755.366650 755.363025 756.829016 758.315765
86.230000 752.845801 754.873374 756.383126 756.317067 757.805720 759.338279
86.330000 755.169858 756.626022 757.989713 758.049835 759.453772 761.143824
86.380000 756.176345 757.479243 758.831369 758.911609 760.351618 762.074184
86.430000 757.239050 758.422844 759.774249 759.815192 761.218026 762.861070
86.480000 758.141219 759.359304 760.700633 760.753857 762.108461 763.661632
86.530000 759.143056 760.343615 761.683989 761.675546 763.007938 764.279679
86.580000 759.968132 761.120074 762.512386 762.485721 763.933653 765.094788
86.630000 760.605128 761.840796 763.233180 763.212117 764.617044 765.845472
86.680000 761.374862 762.517939 763.927642 763.915388 765.310982 766.516942
86.730000 762.044461 763.204626 764.601919 764.607618 765.915563 767.171032
86.780000 762.631386 763.913535 765.365921 765.315485 766.685557 767.719554
86.830000 763.341051 764.616503 766.086438 766.033001 767.340147 768.344519
86.880000 764.038972 765.377268 766.868962 766.750296 768.031921 769.072148
86.930000 764.678726 766.112994 767.571903 767.469538 768.732534 769.794531
86.980000 765.395963 766.923950 768.298834 768.179785 769.385075 770.404211
87.030000 766.131860 767.706946 769.034106 768.899727 770.057208 770.980700
87.080000 766.883025 768.466777 769.746310 769.626465 770.786339 771.610234
87.130000 767.768186 769.304092 770.404861 770.333123 771.394906 772.211121
87.180000 768.723327 770.050157 771.036191 770.992190 771.964515 772.788200
87.230000 769.594988 770.700456 771.691432 771.654922 772.584180 773.470229
87.280000 770.172535 771.362876 772.280462 772.284315 773.216918 774.166361
87.330000 770.978943 772.010144 772.904182 772.909432 773.823557 774.879738
87.380000 771.494341 772.635225 773.541843 773.535351 774.478318 775.602270
87.430000 772.135521 773.152274 774.101864 774.115872 775.062359 776.218124
87.480000 772.749761 773.736708 774.658504 774.681298 775.695628 776.710119
87.530000 773.303095 774.294063 775.208932 775.225388 776.241077 777.270056
87.580000 773.780355 774.765445 775.738083 775.759742 776.766400 777.822907
87.630000 774.338939 775.305916 776.260953 776.292764 777.350804 778.332348
87.680000 774.908678 775.872627 776.861590 776.855898 777.920267 778.919412
87.730000 775.518335 776.407247 777.387586 777.418490 778.511017 779.446026
87.780000 776.059669 776.984304 777.988430 777.993434 779.063994 779.939272
87.830000 776.614993 777.576826 778.533973 778.557989 779.593048 780.415518
87.880000 777.091923 778.091784 779.065550 779.092721 780.127796 780.958757
87.930000 777.711509 778.646003 779.631654 779.625375 780.654671 781.428556
87.980000 778.121769 779.161045 780.202116 780.156197 781.147661 781.938234
88.030000 778.688749 779.688816 780.753466 780.693506 781.666651 782.467932
88.080000 779.154933 780.203876 781.262196 781.218619 782.174175 782.984096
88.130000 779.615477 780.803913 781.856124 781.761667 782.672283 783.456665
88.180000 780.183469 781.303789 782.400168 782.292228 783.243763 783.954072
88.230000 780.733483 781.810319 782.916463 782.816568 783.777421 784.445349
88.280000 781.178162 782.331874 783.449948 783.328009 784.262379 784.916372
88.330000 781.676312 782.864332 783.962637 783.845415 784.787700 785.450098
88.380000 782.163161 783.400012 784.470921 784.342082 785.253946 785.924734
88.430000 782.776931 783.950417 784.976724 784.854846 785.753757 786.392024
88.480000 783.418003 784.508530 785.477669 785.377936 786.270378 786.885071
88.530000 784.043008 785.013953 786.027669 785.913098 786.796865 787.390221
88.580000 784.596801 785.611059 786.572081 786.468499 787.316961 787.936844
88.630000 785.154131 786.175151 787.092041 787.034842 787.889444 788.556751
88.680000 785.804872 786.797966 787.734898 787.660665 788.503869 789.177185
88.730000 786.642812 787.504313 788.378557 788.335850 789.143973 789.925386
88.830000 788.184263 789.047572 789.894083 789.901710 790.760427 791.541991
88.880000 789.112156 790.050133 790.879673 790.893797 791.764532 792.580875
88.930000 790.083760 790.991163 791.849476 791.842174 792.684962 793.564523
88.980000 791.324701 792.238820 793.104077 793.098604 793.918150 794.865241
89.030000 792.743145 793.483045 794.336435 794.341448 795.212181 796.112769
89.080000 793.640031 794.393961 795.217019 795.248996 796.124208 796.980380
89.130000 794.363127 795.085438 796.004520 796.019807 796.928800 797.821120
89.180000 795.023270 795.806295 796.749126 796.752646 797.675697 798.584702
89.230000 795.701172 796.468556 797.460239 797.492220 798.505022 799.409517
89.280000 796.248866 797.207689 798.226592 798.263122 799.290236 800.476292
89.330000 797.016784 797.958037 799.085122 799.142608 800.382916 801.532349
89.380000 797.711488 798.724753 799.922614 800.027605 801.339940 802.778117
89.430000 798.439136 799.564187 800.947970 801.014637 802.481141 803.811673
89.480000 799.502592 800.629787 802.076316 802.104866 803.607276 804.818380
89.530000 800.373276 801.653539 803.228955 803.192975 804.682131 805.909806
89.580000 801.178143 802.703356 804.151554 804.159966 805.511781 806.778159
89.630000 802.386239 803.881640 805.298249 805.224923 806.474122 807.798865
89.680000 803.433116 804.904434 806.320786 806.283969 807.656922 808.988809
89.730000 804.579061 806.104340 807.470498 807.455179 808.854849 810.000186
89.780000 805.522327 807.097925 808.525458 808.465376 809.861806 810.941521
89.870000 808.052728 809.418664 810.732519 810.720570 812.008122 813.398418
89.920000 809.008246 810.270949 811.711001 811.673725 812.948371 814.345180
89.970000 810.145688 811.393454 812.691933 812.686088 813.971879 815.244003
90.020000 811.261659 812.421258 813.656596 813.707284 814.924283 816.527239
90.070000 812.366752 813.360986 814.690815 814.779209 816.115898 817.542958
90.120000 813.036287 814.267545 815.581345 815.652606 817.055752 818.636180
90.220000 814.695294 815.981435 817.423108 817.489911 819.018755 820.517276
90.270000 815.652800 816.962653 818.415065 818.432358 819.946845 821.397528
90.320000 816.465518 817.796200 819.343645 819.340429 820.892908 822.173788
90.370000 817.233994 818.730197 820.261580 820.246856 821.773804 822.928507
90.420000 818.058622 819.686207 821.211539 821.144929 822.627829 823.613689
90.470000 819.089389 820.804224 822.218551 822.105658 823.405894 824.446462
90.520000 820.226246 821.976292 823.246509 823.121466 824.324762 825.257577
90.570000 821.016691 822.960076 824.128264 824.026688 825.134231 826.040419
90.620000 821.974910 823.756354 824.892457 824.779549 825.855943 826.730387
90.720000 823.328532 824.870842 826.044312 825.980783 827.125877 828.183584
90.770000 823.808579 825.432652 826.632266 826.596046 827.761328 828.886838
90.820000 824.509124 826.017129 827.221212 827.204147 828.417469 829.606653
90.870000 825.037142 826.571838 827.807536 827.784257 829.052285 830.213691
90.920000 825.633378 827.081007 828.443334 828.400972 829.649990 830.861018
90.970000 826.089457 827.641446 829.052684 829.000609 830.325665 831.548101
91.020000 826.513098 828.157991 829.654454 829.596928 830.954371 832.159373
91.070000 826.965515 828.669675 830.253194 830.177661 831.591725 832.828811
91.170000 827.881299 829.670219 831.421123 831.289410 832.852445 833.969134
91.220000 828.541588 830.226815 831.982461 831.856987 833.478573 834.597768
91.295000 829.194989 830.997049 832.916073 832.729906 834.430554 835.518797
91.370000 829.888589 831.838507 833.758635 833.603296 835.336257 836.371449
91.445000 830.613697 832.631418 834.690934 834.468825 836.233889 837.257867
91.520000 831.338927 833.437023 835.627747 835.324967 837.027795 838.072904
91.570000 831.844334 834.001438 836.225407 835.917440 837.620905 838.685346
91.620000 832.434013 834.654504 836.818270 836.511114 838.173395 839.283986
91.720000 833.171024 835.659842 837.934724 837.582004 839.247644 840.442477
91.820000 834.250731 836.708018 838.959699 838.645853 840.383677 841.813426
91.920000 835.135418 837.717114 840.003297 839.679415 841.463440 842.989314
91.970000 835.639223 838.207146 840.505948 840.202583 841.998417 843.722545
92.070000 836.576581 839.273940 841.396653 841.185138 842.985026 844.785621
92.170000 837.462418 840.289027 842.342337 842.142598 843.935561 845.951263
92.270000 838.381377 841.293740 843.229090 843.089151 844.948787 847.027928
92.320000 838.855498 841.785767 843.704457 843.583371 845.465379 847.620137
92.420000 839.990556 842.575519 844.577681 844.475559 846.365309 848.475350
92.470000 840.454542 843.192063 845.035486 844.967785 846.937877 848.970890
92.520000 840.983115 843.701414 845.527319 845.483734 847.508704 849.549894
92.570000 841.614745 844.261894 846.047101 846.017077 848.053540 850.051236
92.645000 842.508688 845.055399 846.801010 846.811418 848.869421 850.705523
92.720000 843.172870 845.741940 847.523731 847.595685 849.741341 851.345979
92.795000 844.200731 846.657508 848.296411 848.400048 850.493360 851.971978
92.870000 845.123672 847.659831 849.061255 849.206425 851.237316 852.719385
92.910000 845.805462 848.141940 849.526277 849.677799 851.713932 853.103519
92.960000 846.348859 848.707607 850.134143 850.275787 852.248210 853.537800
93.060000 847.574053 849.846588 851.298745 851.374862 853.294289 854.278949
93.110000 848.420412 850.433665 851.892173 851.968240 853.821586 854.756355
93.160000 849.203642 851.062549 852.539802 852.578150 854.400561 855.181901
93.210000 850.009727 851.651320 853.142581 853.177609 854.898581 855.791576
93.260000 850.802652 852.316319 853.818590 853.797380 855.392105 856.298148
93.310000 851.496943 852.975603 854.436070 854.408692 855.929520 856.794152
93.360000 852.230232 853.669696 855.033868 855.017591 856.437320 857.307529
93.410000 853.058948 854.308021 855.665528 855.648977 856.990663 857.795724
93.460000 853.809312 854.923992 856.306758 856.252308 857.554660 858.417272
93.510000 854.495172 855.594010 856.914239 856.839447 858.066216 858.880507
93.560000 855.121580 856.245143 857.487248 857.437509 858.634350 859.542268
93.610000 855.805137 856.880830 858.078040 858.038305 859.169528 860.185591
93.660000 856.454681 857.447687 858.655361 858.604875 859.718053 860.723375
93.710000 857.031206 857.994053 859.192158 859.170129 860.315165 861.286270
93.760000 857.660267 858.621924 859.807431 859.767827 860.896447 861.860056
93.810000 858.362287 859.226965 860.400315 860.364949 861.440884 862.539489
93.860000 859.009950 859.802058 861.000699 860.951251 862.009107 863.024701
93.910000 859.466611 860.445265 861.559026 861.555817 862.666917 863.677172
93.960000 860.054008 861.069843 862.210721 862.194269 863.244926 864.290583
94.010000 860.641375 861.718209 862.886397 862.861101 863.888577 864.974572
94.110000 862.042594 863.223534 864.278136 864.231781 865.209655 866.230341
94.210000 863.410919 864.598663 865.599932 865.559241 866.478239 867.563432
94.310000 864.871134 866.000621 866.986988 867.030658 868.041730 869.462584
94.410000 866.254763 867.268885 868.344694 868.523535 869.729750 871.861627
94.510000 867.645321 868.946975 870.492593 871.048798 873.493131 876.804646
94.610000 869.231244 870.718384 873.381374 873.659617 876.852831 879.306890
94.710000 870.564349 872.637757 876.252082 876.111101 879.206740 881.801454
94.810000 871.895094 874.986303 878.880158 878.404647 881.394529 883.398271
94.910000 873.955875 877.536538 880.616612 880.280758 882.979586 884.791097
95.010000 876.510048 879.580415 882.365440 882.065226 884.427134 886.321762
95.110000 879.073726 881.492756 883.894899 883.724634 885.871945 887.449449
95.210000 880.716729 883.135473 885.453585 885.266105 887.314485 888.848109
95.260000 881.734474 883.888828 886.255836 886.045877 888.078138 889.609645
95.310000 882.708467 884.742515 887.042626 886.839096 888.702732 890.348201
95.360000 883.746513 885.695051 887.792907 887.623869 889.407146 890.967945
95.410000 884.590167 886.531381 888.563184 888.400594 890.070283 891.755870
95.460000 885.399077 887.374853 889.267670 889.110429 890.740286 892.466245
95.510000 886.271657 888.156704 889.908086 889.796262 891.302226 893.176541
95.560000 886.952296 888.836161 890.513107 890.420176 891.912484 893.897945
95.610000 887.518983 889.524531 891.084003 891.013414 892.435409 894.388077
95.660000 888.267758 890.160082 891.624877 891.586075 892.927607 894.765821
95.710000 888.993874 890.793271 892.199266 892.152874 893.470261 895.232492
95.760000 889.656003 891.408624 892.761511 892.733219 894.042394 895.861394
95.810000 890.402911 892.004974 893.315888 893.325464 894.557190 896.429549
95.860000 891.103273 892.626993 893.906920 893.939247 895.196860 897.045233
95.910000 891.715128 893.203226 894.491214 894.566403 895.845436 897.926724
95.960000 892.358333 893.872252 895.107276 895.206975 896.572146 898.735514
96.010000 893.042534 894.547546 895.820785 895.952783 897.517423 899.651038
96.060000 893.819443 895.152004 896.482168 896.680924 898.258873 900.914662
96.110000 894.564232 895.846122 897.154750 897.486308 899.218391 902.141521
96.210000 896.072896 897.323002 898.947060 899.479426 901.714844 905.165755
96.260000 896.905688 898.119986 900.063569 900.462017 902.962945 906.112909
96.310000 897.561531 898.990176 901.188065 901.462352 903.979045 907.024047
96.360000 898.271880 899.927297 902.343128 902.490430 905.054250 908.101945
96.410000 899.196116 900.791007 903.329663 903.481197 906.052167 908.855827
96.460000 900.096262 901.854593 904.439817 904.505329 907.027954 909.725472
96.560000 901.688583 903.970465 906.716277 906.631593 909.208380 911.184649
96.610000 902.706762 905.137407 907.843384 907.684007 910.078279 911.917300
96.710000 905.287142 907.743652 910.099913 909.928271 912.181582 913.621936
96.760000 906.495316 908.964500 911.358906 911.101026 913.122309 914.707357
96.810000 907.454521 910.253057 912.816822 912.447012 914.454581 915.920300
96.910000 914.430072 916.133120 917.412091 917.389317 918.708464 919.977529
96.960000 916.011481 917.234273 918.494920 918.484880 919.725160 920.932971
97.035000 917.260848 918.536504 919.758269 919.738521 920.923057 922.116491
97.110000 918.477397 919.717562 920.901472 920.907155 922.130238 923.266153
97.160000 919.342491 920.602869 921.841331 921.821604 923.066539 924.188855
97.210000 920.356877 921.669016 922.863898 922.899890 924.165914 925.620290
97.260000 921.572033 922.712151 923.986709 924.048665 925.431511 926.919423
97.310000 922.779536 924.009309 925.384894 925.423313 926.869653 928.249656
97.360000 924.001737 925.318896 926.803923 926.790796 928.254594 929.458973
97.410000 925.394766 926.646341 928.133873 928.110053 929.523372 930.838377
97.460000 926.484406 927.736182 929.182590 929.131511 930.459563 931.670711
97.510000 927.516737 928.838302 930.058569 930.065238 931.286305 932.596427
97.560000 928.403010 929.616693 930.791996 930.852253 932.096275 933.422045
97.610000 929.199924 930.384823 931.621358 931.638601 932.815500 934.189466
97.660000 929.947201 931.158294 932.443897 932.429447 933.649422 934.987872
97.710000 930.642957 931.931569 933.237946 933.242112 934.540552 935.915117
97.760000 931.510334 932.751106 934.079858 934.111245 935.397608 936.916097
97.810000 932.394381 933.547942 934.852401 934.900633 936.247518 937.643029
97.910000 933.962438 934.960015 936.262785 936.330372 937.738982 939.023065
97.960000 934.703818 935.735415 937.031078 937.120365 938.557326 939.805813
98.010000 935.423088 936.498018 937.805958 937.889137 939.389282 940.560007
98.060000 936.233092 937.246115 938.639862 938.657283 940.082933 941.264754
98.110000 936.956781 938.012922 939.414090 939.410306 940.769754 941.976574
98.160000 937.759819 938.869892 940.142318 940.194947 941.507593 942.705888
98.210000 938.621848 939.717423 941.051878 941.036084 942.335160 943.527589
98.260000 939.564360 940.670099 941.930422 941.990385 943.263419 944.787541
98.310000 940.575912 941.615823 942.972764 943.062770 944.464918 946.067804
98.360000 941.448980 942.560191 943.976203 944.096384 945.569571 947.478030
98.410000 942.507530 943.643037 945.181235 945.248846 946.802834 948.991578
98.460000 943.350950 944.761406 946.368612 946.428390 947.973068 950.091414
98.510000 944.360675 945.855785 947.427852 947.505678 949.076983 951.113040
98.560000 945.314775 946.921258 948.487849 948.564335 950.356494 952.282719
