depth(m) lower_95(kyr) lower_68(kyr) median(kyr) mean(kyr) upper_68(kyr) upper_95(kyr)
21.300000 695.540404 701.179350 707.042058 706.081911 710.257570 712.509293
21.400000 704.428389 708.992527 712.342680 711.899978 714.406824 717.329865
21.500000 714.911269 716.660681 718.566324 718.810116 720.594845 723.848046
21.600000 719.836726 721.939727 724.873944 725.609615 729.174292 734.544515
21.700000 725.065087 727.657675 731.601376 732.036246 736.327091 740.479499
21.800000 730.552741 734.913836 739.080029 738.890767 742.487811 747.063852
21.900000 738.554724 743.906334 746.797895 746.983318 750.378768 754.618888
22.000000 746.629978 750.999221 754.288347 754.652702 758.540658 765.351299
22.100000 758.077100 761.889778 766.305478 766.390606 771.137823 774.365903
22.200000 766.024701 770.893730 774.060586 774.005865 777.400078 780.283992
22.300000 773.015198 777.034835 779.915494 779.830100 782.789052 785.344087
22.400000 777.250030 781.748059 785.687059 785.476545 788.443898 790.884480
22.533333 783.560010 789.052326 794.965003 796.072527 803.139295 813.458594
22.666667 791.456606 799.060133 806.498473 807.111764 816.375972 823.189163
22.800000 808.395052 811.973395 816.793788 818.329800 826.146697 830.390967
22.900000 814.655119 818.499431 824.846586 824.966750 831.421391 835.014252
23.000000 819.571119 824.883838 831.519413 830.768175 836.052514 838.884074
23.100000 825.251326 831.798836 836.955246 836.188260 840.386939 842.792326
23.200000 832.029134 837.898214 841.913946 841.298601 844.525289 846.950002
23.300000 840.016417 843.992519 846.953761 846.659708 849.228033 852.431520
23.400000 845.260138 848.399210 850.955583 851.032625 854.061031 856.419318
23.500000 848.755053 852.654592 855.550495 855.237319 857.932292 859.674872
23.550000 850.920274 855.161368 857.789626 857.446118 859.838880 861.442819
23.600000 852.624172 857.705813 860.082931 859.721360 861.950887 863.252101
23.650000 855.193004 860.182716 862.438489 861.997228 864.024998 865.289576
23.700000 858.090291 862.494525 864.536497 864.091874 865.863832 866.980639
23.750000 861.148095 864.699485 866.518206 866.228555 867.857705 869.082065
23.800000 864.362858 866.716759 868.476280 868.291267 869.852298 871.328175
23.850000 868.259791 869.887412 871.422946 871.515931 873.133314 875.049977
23.900000 870.616122 872.365162 874.186151 874.302446 876.226756 878.691215
23.950000 872.851318 874.824030 877.035616 877.320844 879.799305 883.826269
24.050000 877.302610 880.475695 884.098639 884.457581 888.235311 892.879048
24.150000 884.542484 888.619967 892.342450 892.470702 895.953440 902.296078
24.200000 890.180826 893.874792 897.480016 897.705516 901.360876 906.949536
24.250000 894.044517 897.374339 901.337268 901.802378 906.592843 911.323155
24.300000 896.860103 900.366723 905.616605 905.793209 911.267167 915.512724
24.350000 899.149930 903.275927 910.677260 910.051541 915.351788 923.053077
24.400000 901.415699 906.220406 916.485562 915.240877 922.910864 926.119355
24.450000 903.817989 909.344603 923.274280 919.540627 926.501708 928.585297
24.500000 906.883636 912.853554 926.569184 923.218939 929.155857 930.853305
24.550000 909.416698 921.669871 928.939321 926.743946 931.178671 932.967418
24.600000 913.523590 927.912089 931.310143 930.154213 933.266968 935.007447
24.650000 925.991811 931.168189 933.698271 933.132636 935.466613 937.314194
24.700000 931.555315 934.409108 936.234777 936.190461 938.029196 939.979881
24.750000 934.809763 936.902169 938.552086 938.546870 940.295108 942.061513
24.800000 937.529202 939.011239 940.538958 940.567670 942.181425 943.769389
24.850000 939.748569 941.093519 942.570425 942.617517 944.200395 945.753663
24.900000 941.949034 943.166812 944.566868 944.635494 946.108113 947.697925
24.950000 943.614195 945.003095 946.468823 946.508422 947.936911 949.406582
25.000000 945.412190 946.818656 948.280222 948.287313 949.734813 951.466760
25.050000 947.103633 948.514355 950.023256 950.013993 951.500856 952.899737
25.100000 948.891516 950.308965 951.817032 951.769278 953.200622 954.668945
25.150000 950.662563 952.013127 953.511157 953.526084 955.034713 956.317091
25.200000 952.411224 953.897612 955.431124 955.379713 956.770329 958.153611
25.250000 954.803913 956.366537 957.668655 957.760004 959.059615 961.063162
25.300000 959.549518 961.297286 963.557663 963.626796 965.982968 968.185369
25.350000 962.365475 965.420536 968.366666 968.157942 970.742005 973.420801
25.400000 966.491445 969.780816 971.918268 972.143579 974.576292 978.280344
25.450000 970.500931 972.792200 975.780421 975.836712 978.866270 981.940323
25.500000 972.923210 975.611534 979.568511 979.310844 982.657161 985.418321
25.550000 974.992842 978.802474 982.976910 982.591560 986.016937 988.661297
25.600000 977.700862 982.161416 985.830043 985.500458 988.915331 990.789345
25.650000 982.110584 985.443737 988.520660 988.323320 991.237308 993.060970
25.700000 985.453503 988.574616 991.065009 990.969170 993.426450 995.119424
25.750000 989.277355 991.749266 993.970105 993.774522 995.783180 997.566219
25.800000 991.976749 994.362156 996.508226 996.288237 998.144867 999.687300
25.850000 994.284589 996.589741 998.781699 998.520447 1000.252405 1001.889326
25.900000 997.251501 999.591663 1001.118815 1000.991473 1002.306678 1004.298989
25.950000 1001.779555 1002.925917 1004.122135 1004.265212 1005.566603 1007.757270
26.000000 1004.083006 1005.387484 1006.922892 1007.063568 1008.648645 1011.122216
26.050000 1006.355290 1007.839454 1009.705038 1009.889143 1011.997895 1014.588912
26.100000 1008.312989 1009.993942 1011.994258 1012.237137 1014.533938 1017.021226
26.130000 1009.519758 1011.390018 1013.383474 1013.644302 1016.047175 1018.702624
26.180000 1012.156033 1013.691964 1015.862760 1016.046370 1018.580137 1020.808214
26.200000 1012.986799 1014.659470 1016.901882 1017.040349 1019.620877 1021.711093
26.250000 1015.149997 1016.708150 1019.358591 1019.337964 1021.911537 1023.760203
26.270000 1015.952203 1017.606061 1020.423850 1020.330650 1022.875621 1024.863676
26.300000 1017.221681 1019.067363 1021.814616 1021.709137 1024.249305 1026.173367
26.350000 1019.619188 1021.638369 1024.224408 1024.007748 1026.315588 1027.877046
26.400000 1022.158275 1024.225539 1026.538119 1026.369998 1028.458191 1029.940462
26.450000 1024.817309 1027.137053 1029.127844 1028.890540 1030.531030 1031.936721
26.500000 1028.152977 1030.191158 1031.692326 1031.579945 1032.856433 1034.583383
26.550000 1031.949536 1033.293982 1034.538082 1034.858699 1036.441629 1039.780722
26.600000 1034.274940 1035.658246 1037.251184 1037.595121 1039.547707 1042.700430
26.650000 1036.403815 1037.939733 1039.883818 1040.263597 1042.645658 1046.074723
26.700000 1038.712766 1040.513441 1042.956230 1043.307832 1046.294443 1049.882761
26.750000 1041.195574 1043.616599 1046.641127 1046.817639 1050.280585 1052.896937
26.850000 1048.635982 1052.252571 1055.109206 1054.912577 1057.455564 1060.085695
26.900000 1052.102367 1054.971931 1057.650094 1057.532332 1060.091214 1062.440946
26.950000 1054.904904 1057.500899 1060.056542 1060.049881 1062.458516 1065.356842
27.000000 1057.920441 1060.259885 1062.632246 1062.730295 1065.219815 1068.153883
27.050000 1060.297953 1062.582284 1065.115794 1065.220855 1067.787097 1070.586131
27.100000 1062.410608 1064.817336 1067.400118 1067.491034 1070.113346 1072.902110
27.150000 1064.968381 1067.186468 1069.716888 1069.806237 1072.292802 1075.342463
27.200000 1067.558280 1069.601037 1072.026851 1072.116170 1074.491568 1077.669956
27.250000 1069.611451 1071.889626 1074.465905 1074.499053 1076.936370 1080.124252
27.300000 1072.062320 1074.154517 1076.841184 1076.965544 1079.647271 1082.912550
27.350000 1074.397690 1076.626070 1079.402333 1079.625058 1082.720415 1085.620661
27.400000 1076.766912 1079.516019 1082.753733 1082.829128 1086.094015 1089.306380
27.450000 1079.766320 1082.821105 1086.549107 1086.462148 1089.724786 1093.197019
27.500000 1083.153762 1087.225068 1090.525331 1090.758034 1094.073345 1099.511692
27.550000 1087.190582 1091.298939 1094.714063 1095.256055 1099.051750 1108.298393
27.600000 1091.753390 1095.455397 1099.483468 1100.186481 1104.650882 1114.656330
27.700000 1098.861324 1101.794729 1108.634211 1111.578609 1123.566063 1129.179319
27.750000 1101.271973 1104.680875 1116.106270 1115.936311 1126.828071 1132.192554
27.800000 1104.132185 1108.531737 1121.545167 1120.041478 1129.458396 1135.085576
27.850000 1108.006072 1115.468662 1125.100392 1124.232606 1131.981355 1137.080524
27.900000 1113.929787 1123.512522 1128.901221 1128.732138 1134.715150 1139.496445
27.950000 1124.894620 1129.515281 1132.665712 1132.944860 1137.055328 1141.463583
28.000000 1129.700410 1134.024642 1136.709062 1136.924343 1140.376816 1143.780298
28.050000 1134.481488 1137.857853 1140.580993 1140.702234 1144.064251 1147.117873
28.100000 1138.445471 1141.005382 1144.199262 1144.086091 1147.188303 1149.757728
28.150000 1141.069656 1144.045032 1147.473519 1147.208691 1150.119830 1152.706929
28.200000 1144.336047 1147.369583 1150.395345 1150.392562 1153.207783 1156.350013
28.250000 1147.109025 1150.826542 1153.564919 1153.768388 1156.705296 1161.244140
28.300000 1150.614933 1153.682893 1156.678742 1156.935972 1159.983154 1165.461609
28.350000 1154.344611 1156.675307 1159.786831 1160.160011 1163.464292 1168.889385
28.400000 1156.954854 1159.613126 1163.028967 1163.339104 1166.767634 1172.834136
28.450000 1159.447363 1162.721016 1166.216719 1166.730732 1170.901386 1177.279882
28.500000 1162.532338 1166.186103 1169.413148 1170.368762 1175.418416 1181.164054
28.550000 1165.771864 1169.475122 1173.456535 1174.574019 1180.455313 1185.652043
28.600000 1168.679647 1172.676514 1177.556055 1178.333392 1185.079283 1188.688070
28.650000 1171.134092 1175.877401 1181.871292 1182.198052 1189.375525 1192.098620
