depth(m) lower_95(kyr) lower_68(kyr) median(kyr) mean(kyr) upper_68(kyr) upper_95(kyr)
891.000000 697.221507 706.239017 728.550378 723.682837 732.569631 736.827529
891.144928 697.308590 706.293908 728.614006 723.762221 732.646794 737.018272
891.289855 697.394055 706.367428 728.698347 723.839951 732.733817 737.145382
891.434783 697.443534 706.412142 728.784166 723.916346 732.801460 737.211073
891.579710 697.480914 706.493054 728.840930 723.992012 732.878167 737.269294
891.724638 697.572817 706.569405 728.919662 724.070880 732.954320 737.307466
891.869565 697.683334 706.637769 728.985136 724.143093 733.040225 737.353326
892.014493 697.771227 706.694407 729.047387 724.218257 733.111484 737.391982
892.159420 697.831842 706.758859 729.129972 724.292169 733.162324 737.427088
892.304348 697.875284 706.811333 729.180878 724.367387 733.223906 737.497450
892.449275 697.911404 706.867317 729.256097 724.441202 733.288095 737.540313
892.594203 697.961824 706.924086 729.308048 724.514827 733.329305 737.589528
892.739130 698.023618 707.001725 729.384657 724.587216 733.383825 737.642960
892.884058 698.070540 707.053064 729.457207 724.662859 733.440800 737.774882
893.028986 698.120213 707.142698 729.536387 724.734149 733.494101 737.820033
893.173913 698.302202 707.223778 729.604963 724.807096 733.534982 737.858818
893.318841 698.367077 707.244414 729.655038 724.878785 733.584308 737.907354
893.463768 698.493110 707.338408 729.714076 724.952827 733.628861 737.967183
893.608696 698.567058 707.383510 729.782237 725.026167 733.680496 738.030292
893.753623 698.666749 707.416663 729.853469 725.100074 733.735333 738.078098
893.898551 698.762049 707.480022 729.918979 725.174085 733.788925 738.109366
894.043478 698.909269 707.561091 730.022633 725.247740 733.865179 738.160119
894.188406 698.966491 707.710482 730.063818 725.317988 733.907853 738.201469
894.333333 699.070708 707.757441 730.106414 725.390598 733.959620 738.254556
894.478261 699.125967 707.805539 730.183326 725.460124 734.009350 738.303474
894.623188 699.303050 707.873103 730.240465 725.530603 734.056043 738.364597
894.768116 699.371840 707.910279 730.307297 725.601769 734.104050 738.402525
894.913043 699.435072 707.937389 730.376759 725.674296 734.153217 738.448790
895.057971 699.493013 707.970095 730.436126 725.746669 734.200658 738.490167
895.202899 699.577644 708.007018 730.486442 725.820744 734.249555 738.537836
895.347826 699.629977 708.053432 730.553705 725.895190 734.329795 738.595038
895.492754 699.682601 708.093123 730.613853 725.967637 734.374470 738.644708
895.637681 699.720398 708.148342 730.686600 726.041718 734.416359 738.720619
895.782609 699.801430 708.213759 730.746183 726.116917 734.466654 738.749578
895.927536 699.869458 708.261365 730.797417 726.189328 734.543443 738.777277
896.072464 699.906689 708.301891 730.857047 726.260130 734.576683 738.823731
896.217391 699.943580 708.336078 730.911290 726.331929 734.611526 738.869313
896.362319 699.990263 708.391237 730.968790 726.402996 734.676209 738.916863
896.507246 700.098741 708.450788 731.043988 726.475673 734.706884 738.964153
896.652174 700.273080 708.502879 731.100213 726.547915 734.760535 739.014669
896.797101 700.392691 708.550553 731.156408 726.621645 734.802623 739.065687
896.942029 700.459251 708.605008 731.225393 726.692533 734.857264 739.128537
897.086957 700.564689 708.646183 731.297754 726.763220 734.906898 739.178230
897.231884 700.665902 708.689437 731.378917 726.833939 734.979735 739.194753
897.376812 700.714841 708.741065 731.427621 726.906640 735.075206 739.240030
897.521739 700.755515 708.780489 731.481337 726.981524 735.168317 739.284748
897.666667 700.976426 708.844528 731.547816 727.053659 735.227472 739.352318
897.811594 701.029168 708.880109 731.610584 727.127262 735.300589 739.412004
897.956522 701.074804 708.921507 731.684753 727.196999 735.351193 739.462414
898.101449 701.102949 708.985565 731.744547 727.270475 735.401052 739.526137
898.246377 701.152968 709.031204 731.804345 727.345534 735.468953 739.588859
898.391304 701.203791 709.099318 731.855358 727.415437 735.505652 739.648152
898.536232 701.249121 709.169000 731.902935 727.485938 735.588983 739.695442
898.681159 701.345962 709.221695 731.964886 727.556754 735.636944 739.752561
898.826087 701.521021 709.290034 732.030636 727.629998 735.694673 739.813038
898.971014 701.677124 709.335831 732.086977 727.704073 735.758231 739.865111
899.115942 701.711356 709.411129 732.152323 727.778554 735.837046 739.890496
899.260870 701.777748 709.453907 732.206493 727.849185 735.911455 739.939982
899.405797 701.952395 709.510199 732.266740 727.924792 735.998241 739.992935
899.550725 702.027879 709.587388 732.328711 727.996191 736.050009 740.052689
899.695652 702.077462 709.683531 732.406384 728.067857 736.138591 740.102955
899.840580 702.130193 709.735621 732.475610 728.142619 736.179795 740.152229
899.985507 702.176461 709.783325 732.537985 728.214467 736.256265 740.210022
900.130435 702.231167 709.872812 732.590051 728.288696 736.324147 740.264532
900.275362 702.281965 709.911691 732.657779 728.362551 736.385547 740.314000
900.420290 702.315309 709.959096 732.741404 728.436056 736.447312 740.376801
900.565217 702.370377 710.013177 732.812782 728.510358 736.485352 740.409348
900.710145 702.435959 710.075598 732.873247 728.587428 736.560976 740.447831
900.855072 702.521969 710.135608 732.935569 728.664178 736.672099 740.499806
901.000000 702.641580 710.203152 733.021240 728.744946 736.735940 740.546902
901.144928 702.822600 710.247551 733.108918 728.826101 736.786429 740.651736
901.289855 702.884814 710.315859 733.192418 728.905510 736.842189 740.725272
901.434783 702.925901 710.365725 733.262044 728.985754 736.909959 740.791873
901.579710 702.979547 710.444417 733.339297 729.067960 736.973207 740.841621
901.724638 703.115766 710.486292 733.408073 729.149723 737.076648 740.876143
901.869565 703.260880 710.546619 733.480144 729.234545 737.166522 740.936467
902.014493 703.425353 710.592620 733.562256 729.320382 737.219365 740.976985
902.159420 703.534951 710.660207 733.661779 729.405919 737.277864 741.003857
902.304348 703.744730 710.699339 733.722699 729.493541 737.341699 741.047874
902.449275 703.804422 710.784071 733.796987 729.576692 737.383789 741.101302
902.594203 703.877522 710.958194 733.864685 729.662911 737.465443 741.137858
902.739130 704.045266 711.082650 733.954021 729.748091 737.540409 741.184966
902.884058 704.181006 711.178054 734.047677 729.832971 737.611451 741.252290
903.028986 704.435167 711.239217 734.140690 729.920026 737.688678 741.332165
903.173913 704.646851 711.278370 734.224387 730.004694 737.755536 741.390009
903.318841 704.846749 711.520401 734.327763 730.090217 737.819554 741.435395
903.463768 704.986967 711.718472 734.396757 730.177581 737.902185 741.502069
903.608696 705.081811 711.768071 734.485411 730.261798 737.971874 741.577890
903.753623 705.164723 711.830735 734.564125 730.348614 738.036371 741.617259
903.898551 705.339997 711.889636 734.629561 730.436360 738.108276 741.668220
904.043478 705.420807 711.952682 734.725468 730.522638 738.179780 741.708486
904.188406 705.498403 712.003217 734.780174 730.606525 738.268098 741.775407
904.333333 705.613838 712.068210 734.841937 730.691674 738.330084 741.832019
904.478261 705.789390 712.128934 734.904825 730.778934 738.395658 741.885363
904.623188 705.905504 712.181685 734.986106 730.865052 738.520916 741.945919
904.768116 705.995971 712.313641 735.075651 730.951137 738.568467 741.991095
904.913043 706.077669 712.362103 735.147495 731.037020 738.616907 742.040966
905.057971 706.187395 712.511753 735.219390 731.123610 738.698659 742.096721
905.202899 706.363505 712.611623 735.309501 731.209977 738.789632 742.145719
905.347826 706.590579 712.740699 735.422891 731.299258 738.885762 742.185944
905.492754 706.757139 712.764463 735.506427 731.387082 738.959472 742.238143
905.637681 706.827982 712.787202 735.560808 731.475475 739.023636 742.290497
905.782609 706.921573 712.814775 735.630664 731.559151 739.077857 742.346709
905.927536 707.030425 712.843541 735.701843 731.647000 739.181499 742.401188
906.072464 707.145080 712.869954 735.780110 731.734051 739.230178 742.444078
906.217391 707.215307 712.919370 735.861735 731.817226 739.311425 742.472658
906.362319 707.346557 712.975386 735.919612 731.902360 739.388242 742.543285
906.507246 707.460000 713.102929 735.981912 731.986013 739.453908 742.613057
906.652174 707.580113 713.141760 736.055796 732.068835 739.563746 742.694286
906.797101 707.626321 713.197173 736.139011 732.154918 739.631381 742.753822
906.942029 707.731242 713.234572 736.216808 732.243356 739.729884 742.797323
907.086957 707.812694 713.266338 736.316258 732.332896 739.802652 742.852420
907.231884 707.949996 713.311519 736.381239 732.418645 739.886324 742.916878
907.376812 708.013324 713.356350 736.446307 732.504588 739.955808 742.946070
907.521739 708.153091 713.420492 736.522082 732.589412 740.028810 742.998542
907.666667 708.422296 713.457043 736.620358 732.675317 740.106048 743.048921
907.811594 708.492112 713.520746 736.678703 732.761932 740.174378 743.101131
907.956522 708.645748 713.570456 736.752998 732.847544 740.260799 743.159000
908.101449 708.721572 713.630498 736.840258 732.934984 740.336353 743.210162
908.246377 708.866982 713.679933 736.914760 733.022761 740.392503 743.273520
908.391304 708.948723 713.736316 736.960730 733.106742 740.469983 743.332902
908.536232 709.058515 713.828875 737.045705 733.190782 740.558955 743.380001
908.681159 709.106734 713.904147 737.134302 733.276517 740.632032 743.432907
908.826087 709.156507 713.950783 737.193536 733.363602 740.706308 743.480618
908.971014 709.325746 714.024812 737.252247 733.451821 740.841896 743.513327
909.115942 709.472742 714.077584 737.317840 733.538997 740.910731 743.575240
909.260870 709.546707 714.238301 737.398637 733.624511 740.983517 743.633938
909.405797 709.624521 714.427041 737.480754 733.711612 741.060838 743.694752
909.550725 709.710246 714.489978 737.532084 733.794566 741.157367 743.750253
909.695652 709.808066 714.542837 737.622151 733.879888 741.238565 743.835324
909.840580 709.916508 714.591298 737.696035 733.964637 741.337184 743.894900
909.985507 710.062019 714.717936 737.814733 734.051207 741.418083 743.925564
910.130435 710.227886 714.801834 737.889471 734.137432 741.482761 743.962795
910.275362 710.308620 714.891885 738.026939 734.230877 741.558193 744.005521
910.420290 710.411698 714.968057 738.082226 734.323542 741.632915 744.051383
910.565217 710.529278 715.030288 738.139529 734.415547 741.687841 744.125181
910.710145 710.587714 715.078970 738.208991 734.507260 741.756711 744.251837
910.855072 710.672893 715.150513 738.317177 734.600304 741.820438 744.334330
911.000000 710.788889 715.396121 738.407966 734.698261 741.881859 744.397671
911.144928 710.884450 715.472056 738.494699 734.798273 741.969615 744.457579
911.289855 710.990928 715.524990 738.612994 734.898810 742.042514 744.554072
911.434783 711.101735 715.688907 738.680661 734.998880 742.110748 744.637276
911.579710 711.158572 715.883195 738.765583 735.101643 742.164380 744.719460
911.724638 711.315768 716.135445 738.926832 735.209473 742.235559 744.792707
911.869565 711.450313 716.223063 739.065115 735.315816 742.386155 744.982616
912.014493 711.536588 716.390189 739.203170 735.424108 742.451206 745.055203
912.159420 711.610075 716.868943 739.307390 735.532625 742.522535 745.085071
912.304348 711.684987 717.322159 739.418000 735.642580 742.643362 745.194544
912.449275 711.794008 717.607316 739.486972 735.754595 742.723930 745.298541
912.594203 711.870276 717.804505 739.621887 735.866407 742.791865 745.387410
912.739130 712.036875 718.126983 739.738736 735.974068 742.872281 745.496058
912.884058 712.124082 718.429041 739.883254 736.083949 742.939229 745.563671
913.028986 712.210659 718.848425 740.028581 736.190822 743.060421 745.618731
913.173913 712.336559 719.383899 740.132341 736.302370 743.148634 745.738052
913.318841 712.438679 719.906494 740.241278 736.413356 743.210014 745.805395
913.463768 712.588069 720.350720 740.359259 736.518725 743.305430 745.908807
913.608696 712.683332 720.713979 740.437963 736.630882 743.408953 745.998203
913.753623 712.845186 721.226351 740.574204 736.742073 743.497736 746.162485
913.898551 712.949228 721.696667 740.697673 736.854098 743.577349 746.215896
914.043478 713.058855 722.229953 740.826398 736.960862 743.628301 746.265428
914.188406 713.185186 722.741604 740.917247 737.068436 743.711063 746.384084
914.333333 713.277520 723.120572 741.028729 737.173656 743.804339 746.457458
914.478261 713.348949 723.546150 741.133538 737.283575 743.946014 746.522193
914.623188 713.472106 723.859408 741.237093 737.395577 744.045323 746.630147
914.768116 713.548994 724.368744 741.336745 737.507708 744.211755 746.737100
914.913043 713.671612 724.866424 741.428978 737.615888 744.329961 746.862820
915.057971 713.757732 725.386627 741.501985 737.726558 744.481148 746.964903
915.202899 713.835091 725.705226 741.613519 737.836541 744.566363 747.234771
915.347826 713.950215 726.202044 741.720495 737.945990 744.670352 747.424847
915.492754 713.996721 726.677226 741.807526 738.054527 744.800760 747.566323
915.637681 714.050143 726.916431 741.907519 738.162533 744.881957 747.661593
915.782609 714.117869 727.212907 742.014705 738.272035 744.965204 747.727288
915.927536 714.224788 727.505789 742.117383 738.382981 745.100247 747.865682
916.072464 714.416991 727.810894 742.236110 738.492650 745.201898 747.948546
916.217391 714.515141 728.124741 742.356931 738.602901 745.250231 748.122578
916.362319 714.577686 728.493379 742.459293 738.709291 745.353803 748.195686
916.507246 714.631402 728.814383 742.531506 738.818049 745.463656 748.290647
916.652174 714.720768 729.279199 742.622377 738.931750 745.526286 748.405539
916.797101 714.863989 729.740354 742.716931 739.039047 745.617822 748.595661
916.942029 714.956389 730.246751 742.789450 739.145995 745.690615 748.782170
917.086957 715.045854 730.768034 742.950180 739.260312 745.817470 748.853356
917.231884 715.155203 731.298676 743.030096 739.367253 745.923896 748.934182
917.376812 715.218392 731.766700 743.131199 739.479065 746.045578 749.125774
917.521739 715.309815 732.136949 743.191148 739.589423 746.151110 749.280846
917.666667 715.386030 732.427082 743.280571 739.701884 746.258219 749.374039
917.811594 715.602829 732.721542 743.379438 739.815118 746.398563 749.455123
917.956522 715.701358 733.000099 743.483912 739.925924 746.503253 749.740092
918.101449 715.743665 733.263818 743.582857 740.038234 746.636612 749.914912
918.246377 715.794454 733.503338 743.665667 740.144934 746.837011 749.998277
918.391304 715.882377 733.833558 743.739185 740.250612 746.949629 750.175419
918.536232 716.033988 733.963797 743.831701 740.361559 747.097463 750.343080
918.681159 716.076643 733.999885 743.937867 740.472256 747.198236 750.553476
918.826087 716.141348 734.050416 744.043735 740.585359 747.321668 750.631177
918.971014 716.191911 734.105136 744.109709 740.692000 747.417086 750.707198
919.115942 716.238880 734.138266 744.183051 740.797502 747.553154 750.860359
919.260870 716.340416 734.195785 744.271643 740.904508 747.686425 750.957711
919.405797 716.382405 734.257394 744.351842 741.013297 747.789211 751.150129
919.550725 716.427430 734.306269 744.418316 741.127752 747.955612 751.240823
919.695652 716.479781 734.351943 744.527142 741.242056 748.074735 751.317156
919.840580 716.592234 734.398127 744.611836 741.356266 748.239698 751.458012
919.985507 716.647951 734.445408 744.761138 741.469462 748.350077 751.652181
920.130435 716.740089 734.482050 744.850701 741.579312 748.478546 751.770394
920.275362 716.922869 734.534681 744.970469 741.684653 748.650249 751.890398
920.420290 717.149701 734.631495 745.073310 741.792639 748.779239 752.034677
920.565217 717.299785 734.680415 745.186979 741.900165 748.874610 752.238031
920.710145 717.400661 734.787749 745.299979 742.008971 749.015877 752.305614
920.855072 717.489452 734.877631 745.397499 742.116816 749.130508 752.349430
921.000000 717.641629 735.041152 745.523979 742.230179 749.257090 752.435389
921.144928 717.735481 735.188559 745.641453 742.343608 749.415802 752.547432
921.289855 717.801008 735.305729 745.729371 742.461132 749.538045 752.619955
921.434783 717.903053 735.414175 745.851170 742.574176 749.649389 752.683515
921.579710 718.028093 735.502890 745.933726 742.687407 749.732592 752.738715
921.724638 718.101828 735.633130 746.025783 742.798786 749.844565 752.797016
921.869565 718.170968 735.800347 746.131067 742.911971 749.947292 752.971243
922.014493 718.288646 735.860713 746.232500 743.021835 750.042183 753.010045
922.159420 718.361961 735.920465 746.374855 743.137785 750.152962 753.071636
922.304348 718.462387 735.946087 746.478848 743.251744 750.251436 753.176889
922.449275 718.594639 736.249938 746.561210 743.364937 750.346596 753.225984
922.594203 718.698752 736.475284 746.662393 743.476879 750.402775 753.306754
922.739130 718.763884 736.768476 746.769024 743.587299 750.456979 753.368749
922.884058 718.812894 737.206825 746.851345 743.701444 750.572040 753.410893
923.028986 718.859197 737.498713 746.948988 743.815741 750.670125 753.467965
923.173913 718.912337 737.772993 747.068856 743.929498 750.750637 753.507503
923.318841 718.991871 738.041506 747.162479 744.041369 750.828731 753.615710
923.463768 719.082385 738.369994 747.276582 744.156051 750.914664 753.689177
923.608696 719.146310 738.707954 747.406845 744.274397 751.017326 753.749448
923.753623 719.243470 738.991394 747.492416 744.389726 751.154122 753.820968
923.898551 719.349444 739.171632 747.594556 744.506376 751.272123 753.888513
924.043478 719.454704 739.231711 747.697133 744.614783 751.357680 753.934289
924.188406 719.531196 739.284412 747.837509 744.724026 751.432270 753.984381
924.333333 719.611643 739.355120 747.963274 744.840345 751.500301 754.079421
924.478261 719.666219 739.394987 748.095176 744.952393 751.567321 754.161899
924.623188 719.717761 739.452415 748.212134 745.068461 751.625920 754.210743
924.768116 719.788128 739.542279 748.341096 745.176461 751.730773 754.282660
924.913043 719.843714 739.597588 748.433251 745.290995 751.817069 754.388441
925.057971 719.946241 739.662647 748.518938 745.404289 751.895034 754.487640
925.202899 720.061059 739.757740 748.616866 745.519679 751.991852 754.608259
925.347826 720.163538 739.823733 748.758478 745.632990 752.069806 754.655024
925.492754 720.297508 739.884796 748.844522 745.749169 752.181816 754.770973
925.637681 720.421790 739.938467 748.963741 745.864878 752.261257 754.821258
925.782609 720.537030 740.115609 749.066316 745.976693 752.333406 754.873182
925.927536 720.643964 740.418999 749.160301 746.091185 752.452677 755.041234
926.072464 720.712926 740.666384 749.260102 746.202131 752.594491 755.184389
926.217391 720.766156 740.702970 749.349416 746.315666 752.711129 755.364000
926.362319 720.813316 740.818194 749.465949 746.424918 752.794345 755.438294
926.507246 720.950102 741.071413 749.577869 746.542452 752.847078 755.674857
926.652174 721.063757 741.237438 749.663987 746.657413 752.946708 755.849807
926.797101 721.179476 741.350917 749.748255 746.770263 753.087261 755.996452
926.942029 721.349883 741.409712 749.825716 746.883506 753.211134 756.091809
927.086957 721.420240 741.672477 749.897293 746.997944 753.349144 756.202336
927.231884 721.477867 741.828485 750.033410 747.110975 753.514493 756.341630
927.376812 721.533686 741.878198 750.152716 747.222543 753.641907 756.526314
927.521739 721.567900 741.928791 750.225546 747.334361 753.740812 756.659384
927.666667 721.638412 741.996816 750.338456 747.449911 753.844166 756.810074
927.811594 721.717505 742.459540 750.410178 747.560218 753.928065 757.014085
927.956522 721.759772 742.588327 750.506311 747.676549 754.013390 757.104435
928.101449 721.868007 742.697359 750.586966 747.791004 754.199679 757.164717
928.246377 721.948702 742.995065 750.709642 747.904109 754.333477 757.216023
