depth(m) lower_95(kyr) lower_68(kyr) median(kyr) mean(kyr) upper_68(kyr) upper_95(kyr)
56.235000 302.868751 303.914227 304.908255 304.859775 305.756711 306.713110
56.360000 303.791021 304.872254 305.912322 305.996328 307.077759 308.787585
56.485000 304.666261 305.808864 306.968375 307.231320 308.668572 311.132275
56.610000 305.597756 306.773830 308.160182 308.461481 310.219672 313.071695
56.735000 306.426259 307.749009 309.355542 309.681963 311.735476 314.780511
56.860000 307.424586 308.664709 310.604926 310.968800 313.430038 316.438975
56.985000 308.224156 309.709128 311.933652 312.208783 314.767455 317.684594
57.110000 309.099037 310.675040 313.220128 313.438243 316.217606 318.731871
57.235000 310.174218 311.882525 314.596265 314.697217 317.625773 319.696882
57.372500 311.330636 313.490121 316.025415 316.111420 318.942645 320.852002
57.510000 312.636473 315.032349 317.630432 317.516206 320.081021 321.685966
57.647500 314.053083 316.704405 319.095263 318.895561 321.066130 322.482022
57.785000 316.034240 318.365506 320.478257 320.237843 322.011137 323.344635
57.885000 317.337565 319.374932 321.247597 321.080782 322.682522 324.093728
57.985000 318.510150 320.362296 322.000716 321.890891 323.363853 324.790004
58.085000 319.658950 321.516667 322.910018 322.818794 324.222519 325.563221
58.185000 320.985835 322.441882 323.812039 323.732524 324.997097 326.339943
58.285000 322.138722 323.401995 324.705838 324.671701 325.973932 327.102717
58.385000 323.247425 324.467482 325.583840 325.585556 326.740322 327.965946
58.485000 324.128309 325.226284 326.331444 326.376692 327.511736 328.735628
58.585000 324.906138 325.962093 327.054971 327.092845 328.248666 329.488837
58.685000 325.524170 326.750487 327.765530 327.792048 328.953521 330.177273
58.785000 326.182995 327.387717 328.428827 328.462332 329.604453 330.738930
58.885000 326.895388 328.087807 329.118100 329.131549 330.243184 331.442587
58.985000 327.773794 328.765486 329.818782 329.866811 331.001050 332.129977
59.085000 328.513125 329.598150 330.613716 330.649528 331.785233 332.972695
59.185000 329.222733 330.355120 331.535057 331.547042 332.740859 334.116617
59.285000 330.110866 331.218989 332.431781 332.463871 333.671126 334.876999
59.385000 331.122875 332.167039 333.424303 333.473847 334.724764 336.155365
59.485000 332.039739 333.139164 334.540861 334.550303 335.871054 337.373041
59.618333 333.223166 334.498985 336.029862 336.088777 337.699376 339.066308
59.751667 334.822503 336.010353 337.655035 337.653260 339.241304 340.618396
59.885000 336.203392 337.676471 339.208772 339.150741 340.604567 342.019095
59.985000 336.983781 338.628711 340.170434 340.088327 341.505134 342.893418
60.085000 337.778463 339.594868 341.071317 340.985028 342.363118 343.748302
60.185000 338.631494 340.443760 341.854460 341.801296 343.133211 344.404787
60.285000 339.441723 341.242831 342.571560 342.530847 343.905165 345.047544
60.410000 340.387420 342.109404 343.397255 343.348100 344.668426 345.843036
60.535000 341.159982 342.889315 344.139032 344.113881 345.436101 346.575312
60.635000 342.180601 343.514366 344.673884 344.698262 346.008067 347.171188
60.735000 342.800037 344.043459 345.238105 345.265216 346.562546 347.671130
60.835000 343.335948 344.595132 345.807551 345.808708 347.087232 348.080437
60.935000 343.929395 345.187029 346.353041 346.358301 347.637309 348.671490
61.035000 344.406628 345.729468 346.967390 346.915116 348.130234 349.195280
61.135000 345.055121 346.239517 347.525276 347.476483 348.671822 349.698421
61.235000 345.551679 346.812969 348.117992 348.028231 349.188677 350.222237
61.335000 346.228526 347.348550 348.687440 348.577673 349.759664 350.703008
61.460000 346.832051 347.968670 349.344353 349.237722 350.428283 351.397700
61.585000 347.505594 348.594870 350.032173 349.893352 351.098560 351.980523
61.710000 348.118356 349.218951 350.612336 350.519377 351.728157 352.624738
61.835000 348.861060 349.968327 351.242088 351.174446 352.320978 353.296447
61.935000 349.400928 350.569171 351.777981 351.715805 352.868488 353.827275
62.035000 349.944380 351.088585 352.301453 352.255900 353.386109 354.266499
62.135000 350.521421 351.660829 352.797380 352.783739 353.922791 354.723163
62.235000 350.999020 352.151704 353.300881 353.309035 354.433313 355.242846
62.335000 351.504325 352.732881 353.854504 353.824864 354.903959 355.703222
62.435000 352.009832 353.266895 354.396516 354.337881 355.386330 356.233529
62.535000 352.526195 353.727304 354.932556 354.841260 355.904130 356.705497
62.635000 353.050598 354.193500 355.444484 355.333575 356.404330 357.334186
62.735000 353.547012 354.651173 355.922226 355.831346 356.932775 357.883720
62.835000 354.076543 355.154056 356.420029 356.321113 357.359669 358.529618
62.935000 354.458668 355.639805 356.926693 356.808759 357.838727 359.033379
63.035000 354.963745 356.129487 357.430478 357.299977 358.337720 359.685484
63.135000 355.417120 356.587714 357.914561 357.780428 358.791966 360.084801
63.235000 355.901510 357.072137 358.392094 358.264837 359.292153 360.603248
63.335000 356.364684 357.547862 358.906760 358.756489 359.775156 361.016993
63.435000 356.826291 358.020513 359.392315 359.238159 360.240188 361.511726
63.535000 357.439313 358.467137 359.842826 359.722001 360.693342 362.073624
63.635000 357.837411 358.978828 360.299278 360.201858 361.198671 362.636823
63.735000 358.306712 359.452683 360.785097 360.690801 361.681694 363.083847
63.835000 358.832207 359.994343 361.285395 361.187825 362.237779 363.522786
63.935000 359.286312 360.449461 361.749932 361.690943 362.726839 364.100055
64.035000 359.729215 361.059892 362.255103 362.201340 363.242322 364.717158
64.135000 360.223381 361.497830 362.772583 362.724887 363.763450 365.316683
64.235000 360.702791 362.084919 363.298060 363.252618 364.327485 365.882759
64.335000 361.168326 362.643524 363.784303 363.779558 364.885791 366.450377
64.435000 361.707349 363.238635 364.295952 364.318453 365.399651 366.961509
64.535000 362.429275 363.757938 364.859797 364.875314 365.963456 367.635645
64.635000 363.011254 364.285078 365.428171 365.460537 366.563565 368.359672
64.735000 363.566007 364.797961 365.979999 366.071779 367.271362 369.172945
64.835000 364.166652 365.405673 366.633327 366.728336 367.994233 369.866238
64.935000 364.779125 365.989660 367.271836 367.369531 368.730918 370.662272
65.035000 365.486494 366.592706 367.924100 368.024063 369.510116 371.246830
65.135000 366.021837 367.131575 368.555658 368.658765 370.260925 371.967146
65.235000 366.524826 367.749120 369.202505 369.318101 370.928184 372.659926
65.335000 366.949090 368.327174 369.873728 369.971585 371.713573 373.211250
65.435000 367.453794 368.922127 370.581682 370.637259 372.401754 373.961067
65.535000 368.082849 369.515753 371.224053 371.281589 373.076553 374.578981
65.635000 368.542308 370.132146 371.927784 371.961309 373.791134 375.212872
65.735000 369.215522 370.832433 372.729702 372.677670 374.537075 375.959076
65.835000 369.857945 371.512716 373.429204 373.388384 375.197505 376.791917
65.935000 370.537873 372.269070 374.166753 374.110370 375.794124 377.548047
66.035000 371.240828 373.028567 374.989617 374.846079 376.476579 378.348694
66.135000 371.836075 373.758031 375.625091 375.564667 377.247519 379.222923
66.235000 372.669587 374.568935 376.378339 376.283121 377.899267 379.930674
66.335000 373.427343 375.195891 377.082577 376.984136 378.703923 380.579269
66.460000 374.309147 375.962752 377.848222 377.842492 379.689668 381.447502
66.585000 375.063383 376.762773 378.630481 378.659787 380.531283 382.420215
66.685000 375.769564 377.396605 379.186847 379.299940 381.192725 383.191111
66.785000 376.573606 378.149765 379.802305 379.974033 381.955439 384.179976
66.885000 377.191951 378.778658 380.487827 380.612936 382.556550 384.816018
66.985000 377.848208 379.489041 381.132400 381.299143 383.276314 385.527799
67.085000 378.434070 380.153170 381.788984 381.993998 383.964769 386.224792
67.185000 378.989809 380.759187 382.540347 382.719413 384.729392 387.149212
67.285000 379.743565 381.480256 383.311244 383.463591 385.485061 387.921577
67.385000 380.515792 382.195401 384.009726 384.254813 386.367416 388.981144
67.485000 381.257313 382.821827 384.773999 385.068664 387.266493 389.878357
67.585000 381.897832 383.642636 385.604588 385.936935 388.315127 391.002388
67.685000 382.792463 384.503239 386.706460 386.885358 389.433849 391.892286
67.810000 383.617882 385.575058 387.975968 388.080466 390.650766 393.186746
67.935000 384.647273 386.716454 389.334717 389.319913 391.953110 394.277197
68.060000 385.664241 387.797696 390.443644 390.512125 393.177731 395.431202
68.185000 386.807959 389.138905 391.800610 391.804491 394.382381 396.491712
68.285000 387.456211 390.155586 392.848211 392.786698 395.414282 397.283371
68.385000 388.287121 391.313952 394.037806 393.794028 396.347146 397.951281
68.485000 389.338194 392.422657 395.080721 394.797508 397.189520 398.737149
68.585000 390.440663 393.524047 396.098000 395.847440 398.163472 399.712778
68.685000 391.914240 394.845792 397.283407 397.066082 399.312880 400.854293
68.785000 393.412361 396.134966 398.457052 398.302592 400.438523 401.975619
68.918333 395.776634 398.098063 400.218873 400.103298 402.167480 403.993956
69.051667 397.479356 399.945133 401.975470 401.873579 403.815362 405.433758
69.185000 399.992162 401.791298 403.619185 403.584402 405.392736 407.001805
69.285000 401.165560 402.731783 404.590823 404.558914 406.355213 407.975293
69.385000 402.126720 403.747983 405.427634 405.463078 407.235482 408.930791
69.485000 402.955932 404.612913 406.382581 406.328837 408.074646 409.577924
69.585000 403.728610 405.359437 407.170729 407.143048 408.907992 410.370851
69.715000 404.601238 406.410199 408.207450 408.168426 409.963329 411.387147
69.845000 405.676281 407.466151 409.227242 409.198493 410.889142 412.637976
69.975000 406.885508 408.591241 410.193180 410.198604 411.880817 413.615909
70.105000 408.058137 409.588439 411.146943 411.197021 412.750963 414.542810
70.235000 409.347951 410.656483 412.195672 412.232740 413.815994 415.631324
70.335000 410.304207 411.555703 413.012412 413.131098 414.667911 416.422963
70.435000 411.252745 412.506588 413.946425 414.039324 415.549130 417.091433
70.535000 411.961031 413.430282 414.852110 414.930176 416.501438 418.184971
70.635000 412.928542 414.364772 415.765561 415.863917 417.428385 419.318291
70.735000 413.911355 415.338423 416.890790 416.911371 418.462813 420.268305
70.835000 415.022769 416.320954 417.891728 417.930333 419.536399 421.399688
70.935000 415.738649 417.103835 418.779917 418.846557 420.565115 422.259372
71.035000 416.523511 417.961461 419.698176 419.743931 421.510523 423.407547
71.135000 417.209748 418.784602 420.590371 420.625996 422.557557 424.279743
71.235000 418.044734 419.741730 421.529756 421.541448 423.410894 425.136314
71.335000 418.793772 420.570241 422.460063 422.445795 424.350305 426.119882
71.435000 419.699804 421.421749 423.376106 423.349919 425.264697 426.990458
71.535000 420.384614 422.343428 424.441225 424.354784 426.181452 428.177084
71.668333 421.938270 423.975126 426.199028 426.215112 428.436419 430.792861
71.801667 423.765517 425.754527 427.904621 428.036795 430.334092 432.531416
71.935000 425.539657 427.397422 429.803673 429.779019 432.113683 434.255945
72.035000 426.587791 428.249974 430.869359 430.759168 433.156434 435.127505
72.135000 427.491194 428.939956 431.834088 431.678047 434.309124 435.882080
72.235000 428.256698 429.517794 432.706866 432.521827 435.180399 436.486385
72.335000 429.071483 430.033820 433.375936 433.309668 435.929584 437.009168
72.435000 429.775597 430.479261 433.923738 434.017116 436.816715 437.511186
72.535000 430.660424 430.956175 434.296722 434.720770 437.819895 438.000154
72.535500 430.664814 430.957985 434.300795 434.724084 437.823289 438.005727
72.635250 431.062051 431.689568 435.062622 435.237160 438.142687 438.458889
72.735000 431.552037 432.647985 435.641534 435.739132 438.499609 438.907746
72.835000 431.986558 433.461584 436.225066 436.227387 438.852259 439.329999
72.935000 432.405666 434.203344 436.776951 436.701049 439.219198 439.801090
73.035000 432.861084 434.735946 437.323886 437.177456 439.593109 440.245104
73.177857 433.462104 435.407009 438.002009 437.817715 440.097287 440.834084
73.320714 434.037990 436.111873 438.703930 438.449786 440.614554 441.474514
73.463571 434.731911 436.744716 439.364981 439.080905 441.171850 442.192473
73.606429 435.369839 437.409546 439.998036 439.706696 441.747212 442.851680
73.749286 435.946229 438.188144 440.607125 440.335983 442.248929 443.621775
73.892143 436.625664 438.799323 441.245455 440.967839 442.835636 444.355983
74.035000 437.243137 439.511515 441.897251 441.592230 443.395780 445.041990
74.168333 437.878744 440.131799 442.508870 442.191738 443.917895 445.618040
74.301667 438.439101 440.797861 443.046489 442.797972 444.505541 446.294049
74.435000 439.199675 441.456506 443.638968 443.426271 445.111772 447.086501
74.510000 439.715989 441.804871 444.019117 443.812147 445.507780 447.407963
74.585000 439.932564 442.308084 444.403788 444.225772 445.928877 447.969346
74.705000 440.658061 442.932448 445.077070 444.887813 446.562855 448.548291
74.825000 441.282471 443.669282 445.697391 445.548683 447.264709 449.403779
74.945000 441.945726 444.405747 446.335919 446.236167 448.029954 450.191274
75.065000 442.702304 445.188593 446.985210 446.931907 448.784240 450.746869
75.185000 443.271309 445.946054 447.680458 447.660764 449.530853 451.603335
75.285000 443.838084 446.466643 448.284869 448.280285 450.189281 452.240352
75.385000 444.422192 447.129153 448.919251 448.925409 450.956345 452.949303
75.485000 444.977749 447.778409 449.550941 449.595652 451.659589 453.572142
75.585000 445.554528 448.397080 450.154124 450.252045 452.419474 454.242150
75.685000 446.157001 449.009314 450.767353 450.897465 453.131116 454.882303
75.785000 446.976095 449.659650 451.412229 451.549733 453.856881 455.448395
75.885000 447.445002 450.302637 452.039998 452.218987 454.498264 456.145124
75.985000 448.346428 450.959039 452.679047 452.867246 455.171232 456.751755
76.085000 449.118528 451.565380 453.305840 453.528120 455.734568 457.474792
76.218333 450.345493 452.423060 454.183150 454.370012 456.585604 458.263214
76.351667 451.157298 453.286126 455.089770 455.205636 457.317993 458.983740
76.485000 452.021548 454.065716 456.074490 456.018381 458.042592 459.917768
76.618333 452.732003 454.713793 456.909923 456.799392 458.756528 460.731434
76.751667 453.493876 455.448587 457.776190 457.587182 459.525347 461.290067
76.885000 454.363858 456.214386 458.674582 458.401492 460.252527 462.053926
76.985000 454.972224 456.885722 459.268741 459.019706 460.915673 462.627916
77.085000 455.725123 457.472900 459.846367 459.614768 461.423474 463.137659
77.185000 456.213322 458.103478 460.442308 460.208513 462.007462 463.814318
77.285000 456.720194 458.654912 461.044367 460.833848 462.656745 464.450357
77.385000 457.429506 459.305593 461.688981 461.454430 463.314515 464.969379
77.518333 458.297407 460.139158 462.451015 462.292398 464.159074 465.980398
77.651667 459.063993 461.160696 463.300599 463.166494 464.999401 466.895322
77.785000 459.716320 462.099136 464.182109 464.033918 465.863843 467.709819
77.885000 460.478960 462.817870 464.845175 464.718732 466.580170 468.371273
77.985000 461.067150 463.512290 465.536659 465.396659 467.294320 468.991272
78.085000 461.582093 464.196970 466.274904 466.105732 467.954678 469.639962
78.185000 462.333907 464.892016 466.943277 466.787082 468.624037 470.301174
78.285000 462.889994 465.578373 467.657256 467.478954 469.352779 470.939809
78.385000 463.661619 466.221738 468.298795 468.172428 470.032018 471.508777
78.485000 464.256368 466.891845 468.985678 468.858735 470.667527 472.369844
78.585000 465.226601 467.510914 469.712566 469.498918 471.265067 473.348035
78.685000 466.003459 468.241081 470.408786 470.157837 471.961663 473.900097
78.785000 466.518333 468.891967 471.051211 470.801876 472.570351 474.538829
78.885000 467.047965 469.532318 471.688175 471.466750 473.252371 475.059799
78.985000 467.624068 470.217675 472.361602 472.129231 473.948942 475.690264
79.085000 468.337669 470.916261 473.045017 472.808411 474.551443 476.309870
79.185000 469.018992 471.531614 473.725847 473.480138 475.238806 477.022121
79.285000 469.801273 472.142943 474.385391 474.148553 475.822908 477.665751
79.385000 470.357880 472.936589 474.991072 474.800561 476.525054 478.272866
79.485000 470.920675 473.583252 475.643067 475.455542 477.253417 478.986750
79.585000 471.766078 474.427254 476.333738 476.170921 478.009794 479.742039
79.685000 472.362883 475.100829 476.980706 476.855876 478.677743 480.290962
79.760000 473.154063 475.585234 477.532711 477.406371 479.268532 480.927354
79.835000 473.950376 476.241567 478.094031 477.971296 479.698583 481.311464
79.925000 474.674872 477.077112 478.816143 478.741903 480.474809 481.958170
80.015000 475.403418 477.907498 479.648703 479.544127 481.295302 482.631947
80.121667 476.740133 479.008792 480.715717 480.656600 482.394651 483.706347
80.228333 478.224132 480.025017 481.879121 481.731952 483.347570 484.860399
80.335000 479.364182 481.167344 482.942639 482.812249 484.342646 485.817643
80.435000 480.465955 482.230668 483.815231 483.739507 485.257847 486.640780
80.535000 481.469941 483.271294 484.648072 484.651449 486.095824 487.540231
80.635000 482.599532 484.165220 485.544148 485.536430 486.936828 488.277360
80.735000 483.844110 485.155494 486.385463 486.432817 487.857606 489.328728
80.835000 484.437604 485.901986 487.146363 487.199032 488.618971 490.205585
80.935000 485.194378 486.607265 487.899877 487.947877 489.309485 490.903569
81.035000 485.975527 487.277430 488.543092 488.639660 490.039370 491.679292
81.135000 486.848757 487.953034 489.224774 489.334672 490.853829 492.315427
81.235000 487.485416 488.542940 489.857983 489.971573 491.502088 492.895007
81.335000 488.125673 489.140128 490.501962 490.615034 492.229657 493.400060
81.435000 488.636128 489.756378 491.129510 491.246876 492.838867 494.080308
81.535000 489.234197 490.343503 491.703499 491.866073 493.420191 494.910314
81.635000 489.738760 490.976034 492.347601 492.515142 494.118243 495.766044
81.735000 490.246145 491.616889 493.111994 493.225374 494.885157 496.568557
81.835000 490.861522 492.258181 493.859240 493.951137 495.671813 497.481817
81.935000 491.443751 492.942798 494.647552 494.692224 496.521560 498.362888
82.035000 492.012029 493.565986 495.396152 495.445539 497.297879 499.308996
82.135000 492.516371 494.302849 496.138335 496.214545 498.122239 500.125194
82.235000 493.076108 494.954876 496.936670 496.986773 499.037919 501.002763
82.335000 493.884465 495.658976 497.751114 497.749134 499.894985 501.703093
82.435000 494.498328 496.300832 498.531700 498.520138 500.674777 502.717410
82.535000 495.025863 497.068167 499.290911 499.282759 501.454201 503.429239
82.635000 495.851944 497.794302 500.052640 500.039443 502.188312 504.039052
82.735000 496.570855 498.613010 500.738925 500.817891 503.020258 504.830201
82.835000 497.296127 499.372989 501.641033 501.639013 503.820972 505.583688
82.935000 498.202627 500.209242 502.537418 502.501054 504.710939 506.782936
83.035000 498.944668 501.091319 503.502994 503.370530 505.587364 507.689667
83.135000 499.736079 502.067725 504.386364 504.301118 506.480987 508.960942
83.235000 500.746095 503.008781 505.249912 505.200203 507.312446 509.971659
83.335000 501.702180 503.850685 506.053740 506.101623 508.278129 510.716141
83.435000 502.682822 504.625672 506.854197 506.983420 509.254018 511.903940
83.535000 503.603576 505.522215 507.734885 507.871619 510.074770 513.045439
83.635000 504.710863 506.510581 508.702904 508.845723 511.108072 514.285648
83.735000 505.531914 507.417436 509.637814 509.763126 511.963343 515.348724
83.868333 506.515916 508.436489 510.904878 510.989416 513.367063 516.717199
84.001667 507.532887 509.641325 512.185184 512.190109 514.479656 518.249555
84.135000 508.486879 510.813703 513.242576 513.396146 515.853329 519.726366
