depth(m) lower_95(kyr) lower_68(kyr) median(kyr) mean(kyr) upper_68(kyr) upper_95(kyr)
3.160000 299.106335 300.132538 301.014151 300.999980 301.900847 302.859366
3.190000 301.004051 302.098357 303.268322 303.571774 305.063132 308.059684
3.220000 302.746838 303.880481 305.408518 305.971066 308.353225 311.887888
3.250000 304.579494 305.913964 307.431681 308.241735 311.199816 314.800322
3.280000 306.786643 308.145983 310.074268 310.823505 314.071480 317.395268
3.310000 308.802676 310.400174 313.308972 313.664046 317.113319 319.631684
3.340000 311.039585 313.523554 317.136253 316.871997 319.815758 322.057860
3.370000 314.324612 318.123219 320.859779 320.502609 322.897992 324.495547
3.400000 321.725064 323.861897 325.448285 325.475575 327.347665 328.836415
3.430000 324.914457 326.711355 328.135010 328.176822 329.880005 331.152957
3.490000 329.882186 331.187712 332.434326 332.419217 333.706238 335.033895
3.520000 331.799788 333.020731 334.255299 334.244190 335.536565 336.843886
3.550000 333.465011 334.556997 335.968982 335.950570 337.248123 338.682625
3.580000 335.153530 336.406558 337.812031 337.836686 339.263592 340.742311
3.610000 337.057582 338.220616 339.638608 339.740550 341.231481 343.052161
3.640000 339.163029 340.492723 341.912906 342.287359 344.217821 347.281274
3.670000 341.477472 342.966223 344.951400 345.254311 347.545446 350.064607
3.700000 343.587012 345.582637 348.159889 348.164990 350.518571 353.278882
3.730000 345.937889 348.411890 350.917718 350.965221 353.237127 357.145902
3.760000 348.186660 351.174057 353.589044 353.662989 355.918808 359.538213
3.790000 350.263949 353.471155 355.990094 356.151312 358.784059 362.278704
3.820000 352.452998 355.590955 358.292762 358.470561 361.464670 364.383460
3.850000 355.099435 357.662960 360.632619 360.799276 364.093550 367.466098
3.880000 357.318344 359.921452 362.863579 363.059913 366.298347 369.723918
3.910000 360.370317 362.597846 365.644998 365.739109 368.860023 372.267451
3.940000 363.085576 365.669359 368.562483 368.689257 371.776535 374.839751
3.970000 366.250449 368.647837 371.806594 371.872257 374.881451 378.748216
4.000000 369.190126 371.832531 375.280723 375.390806 378.677880 383.131623
4.030000 371.969461 374.832774 378.245283 378.261801 381.442519 385.883116
4.060000 374.636173 377.825460 381.057832 381.205935 384.456615 388.487980
4.090000 378.428364 381.751066 384.476619 384.595545 387.693028 390.763147
4.120000 381.606378 384.888938 387.670784 387.674821 390.715796 393.446465
4.150000 384.139514 387.626307 390.394711 390.350120 393.340785 395.797912
4.180000 387.372504 390.638209 393.289680 393.226544 396.049680 397.980756
4.210000 391.205444 394.348817 397.053926 396.799699 399.210340 401.116617
4.240000 396.820295 399.255563 401.380899 401.501973 403.687066 407.100555
4.270000 401.451917 403.734767 406.105322 406.225211 408.690884 411.255147
4.330000 408.842674 411.628103 413.873756 413.954119 416.405439 418.915329
4.360000 411.709645 413.951683 416.540497 416.556032 419.158059 422.279606
4.390000 414.264518 416.554968 419.290901 419.331002 421.928642 424.799255
4.420000 417.943445 420.266101 422.696854 422.810364 425.383176 428.086899
4.450000 420.667205 423.071534 425.510601 425.625531 427.870310 430.503421
4.480000 423.916445 426.624477 428.989170 429.209858 431.406326 437.067652
4.510000 429.072278 432.306044 435.396928 435.661451 439.086081 443.829825
4.540000 433.105960 439.242537 442.723172 442.434150 445.885554 449.061526
4.570000 440.586738 443.867243 447.025918 446.823790 449.853731 452.917719
4.600000 443.661249 446.482972 449.940158 449.741044 452.735925 455.531755
4.630000 445.931562 448.850101 452.220909 452.111109 455.401249 458.157435
4.660000 447.877468 451.116716 454.525984 454.549679 457.878545 460.875317
4.690000 450.293699 453.497595 456.835752 456.868346 460.221125 463.434476
4.720000 452.262217 455.677285 459.077215 459.077176 462.392908 465.446776
4.750000 454.531450 457.846230 461.395258 461.358851 464.757100 468.072045
4.780000 457.071738 460.178056 463.803225 463.790750 467.385039 470.633457
4.810000 459.703458 462.601972 466.290221 466.229993 469.839145 472.848684
4.840000 462.502327 465.395190 469.022270 468.915137 472.408303 475.181087
4.870000 465.127452 468.385580 472.099251 471.864869 475.274965 477.832652
4.900000 469.054465 472.442906 475.851009 475.666514 478.733041 481.175556
4.930000 473.773805 477.418507 480.446979 480.291878 483.214085 485.628526
4.960000 479.010312 481.999231 485.194353 485.148988 488.246130 490.725328
4.990000 482.376008 485.173692 488.103073 488.082017 491.076672 493.622915
5.020000 485.050227 487.599005 490.510421 490.478987 493.392053 495.886461
5.050000 487.662611 490.354888 492.860762 492.870625 495.340727 497.540312
5.080000 490.552520 493.077108 495.487870 495.374327 497.673605 499.530295
5.110000 492.903884 495.347551 497.740228 497.624803 499.827217 501.600782
5.140000 495.533868 497.727927 499.901043 499.781612 501.793431 503.563294
5.170000 497.587731 499.946787 502.129160 501.985236 503.948119 505.819734
5.200000 499.575396 502.321336 504.248491 504.220594 506.122165 508.385131
5.230000 501.819005 504.355662 506.256721 506.393459 508.351977 511.644449
5.260000 504.285860 506.362142 508.219518 508.498721 510.537869 514.337226
5.290000 506.668924 508.623444 510.477343 510.806029 512.945450 516.799152
5.320000 508.684088 510.782110 512.726409 513.166240 515.723894 519.934707
5.350000 510.621643 512.667285 515.004396 515.559568 518.728834 522.679112
5.380000 512.748532 514.649098 517.280341 517.895603 521.783965 525.083599
5.410000 514.719263 516.792719 519.740167 520.302159 524.523188 527.380408
5.440000 517.013409 519.224697 522.685774 522.973091 527.104419 529.512415
5.470000 519.314274 522.358343 525.910056 525.826058 529.394394 531.415857
5.500000 522.071027 525.322031 529.079368 528.654294 531.709733 533.461889
5.530000 525.252227 529.030870 532.071882 531.522442 533.727820 535.273718
5.560000 530.610130 533.399386 534.851773 534.674437 536.039565 537.198265
5.590000 535.579731 536.497113 537.360019 537.358623 538.275266 539.288229
