depth(m) lower_95(kyr) lower_68(kyr) median(kyr) mean(kyr) upper_68(kyr) upper_95(kyr)
4.790000 321.330561 322.339778 323.322750 323.281877 324.192133 325.053654
4.840000 323.825844 325.093654 327.162032 327.606559 330.487222 332.774187
4.890000 328.989025 331.424063 333.257815 333.046134 334.630007 335.868507
4.940000 333.100592 334.420977 335.645320 335.589246 336.811307 338.071127
4.990000 335.225004 336.259464 337.337309 337.400351 338.520475 339.920295
5.040000 336.770177 337.703844 338.819780 338.934798 340.195571 341.672895
5.090000 338.023526 339.053968 340.157616 340.286503 341.550459 343.130958
5.140000 339.291612 340.373123 341.523864 341.646076 342.995444 344.596847
5.252500 341.669275 342.923770 344.239334 344.325249 345.714769 347.248120
5.365000 344.251194 345.641928 346.975992 346.988538 348.291436 349.635744
5.477500 347.073645 348.392579 349.694638 349.685237 350.946412 352.152611
5.590000 350.000600 351.236504 352.358871 352.349456 353.502603 354.508305
5.640000 351.239437 352.499264 353.615493 353.616410 354.759980 355.851618
5.690000 352.427444 353.684744 354.871638 354.843083 356.056941 357.169908
5.740000 353.723591 354.886943 356.073480 356.098575 357.313809 358.600858
5.840000 355.978469 357.177850 358.346490 358.437462 359.788776 361.105300
5.890000 357.022713 358.482930 359.679748 359.741464 361.114794 362.551849
5.990000 359.326773 360.676769 362.102187 362.193529 363.775593 365.489824
6.090000 361.628712 363.063467 364.642398 364.789116 366.530687 369.023492
6.140000 363.020324 364.541965 366.114786 366.379040 368.191627 371.103774
6.190000 364.744614 366.169598 367.961006 368.278253 370.283043 373.686580
6.240000 366.583948 368.139190 370.280989 370.610968 372.950022 376.684147
6.290000 368.764769 370.740041 373.394458 373.629428 376.718334 380.045338
6.340000 370.646574 373.274623 376.635503 376.735560 380.131948 383.705676
6.390000 374.214652 377.202235 380.238805 380.393754 383.616405 387.693375
6.440000 377.540573 380.696590 384.026319 384.230907 387.718869 392.063154
6.490000 381.038801 384.952147 388.624671 388.635461 392.443737 395.663316
6.540000 384.106206 388.972818 393.209599 392.737391 396.484168 398.688926
6.590000 390.811379 394.888477 398.424128 398.095073 400.923680 403.903023
6.640000 396.386521 400.944980 405.349401 405.212169 409.675047 411.988556
6.690000 399.040003 406.223199 411.678159 410.421373 413.954896 416.519494
6.740000 403.713331 412.102814 414.587070 414.227264 416.822436 419.659292
6.790000 414.018928 415.896373 418.100741 418.237015 420.714494 423.150960
6.840000 417.687026 419.735610 422.064519 422.011455 424.236946 426.156404
6.890000 420.300388 422.646511 424.774045 424.712607 426.855574 428.606188
6.940000 423.216151 424.984670 426.969853 426.958594 428.889065 430.588811
7.040000 427.306721 429.353548 430.971821 431.001190 432.754538 434.569702
7.090000 429.420888 431.204016 432.893766 432.884279 434.543253 436.367156
7.140000 431.478876 433.058499 434.658959 434.736127 436.462910 438.123129
7.190000 433.540199 434.909583 436.402662 436.551898 438.232462 440.097602
7.240000 435.184452 436.647078 438.204214 438.342111 440.054210 442.137952
7.290000 437.133021 438.397738 440.055322 440.166060 441.947595 444.192442
7.390000 440.504720 441.965212 443.601521 443.827656 445.687742 448.543448
7.440000 442.508959 443.884527 445.554367 445.855110 447.771470 451.117877
7.490000 444.314253 445.737635 447.618108 447.984272 450.248814 453.753047
7.540000 446.007735 447.548996 449.676536 450.050296 452.507669 456.141972
7.590000 447.774834 449.536827 451.932859 452.276462 454.905486 458.919439
7.640000 449.646461 451.722577 454.293390 454.674111 457.677973 461.926261
7.690000 451.406369 453.748710 456.762384 457.153309 460.737005 464.647240
7.740000 453.467640 456.046725 459.400792 459.778600 463.483934 467.896930
7.790000 455.940675 458.913215 462.530958 462.675222 466.374726 470.275572
7.890000 460.524275 464.293809 468.299674 468.191024 472.034642 475.224120
7.940000 463.734316 467.541302 471.529853 471.334405 474.959494 477.940154
7.990000 467.743675 471.873876 475.567809 475.306484 478.839235 481.625066
8.040000 474.727693 477.971660 481.584233 482.044711 485.643423 494.493323
8.090000 478.354106 482.253499 486.309679 487.811683 495.316173 501.819682
8.190000 484.512242 497.506050 503.237183 502.062896 506.711006 510.352635
8.240000 486.263124 505.774659 508.637088 507.843914 511.310415 513.889212
8.290000 489.218219 509.236381 511.830547 511.088607 514.235510 516.459063
8.365000 493.567601 513.262129 515.638767 515.039737 518.163138 520.883510
8.440000 503.239930 516.797917 519.160015 518.699303 521.524117 524.287400
8.490000 508.190731 518.961618 521.495699 520.980018 523.785595 526.584768
8.540000 516.624980 521.258820 523.716522 523.242746 526.007027 528.551866
8.590000 518.291834 523.458179 525.982853 525.507379 528.326153 530.789442
8.640000 521.427225 525.639269 528.214392 527.875040 530.708698 532.803625
8.690000 524.563694 528.110906 530.499354 530.317688 532.977262 535.409869
8.740000 527.696996 530.542224 532.961686 532.962515 535.537791 538.768662
8.790000 530.399748 533.150284 535.881286 536.192641 539.138458 545.049435
8.840000 533.351260 536.033486 539.175209 539.788262 543.843764 548.680574
8.890000 536.263362 538.963978 543.112671 543.514947 548.086812 552.520269
8.940000 539.417580 542.448311 547.097844 547.171866 551.514993 555.049493
8.990000 542.562660 546.909862 551.255010 550.958458 554.807314 557.904128
9.040000 546.800243 551.622400 555.098342 554.900387 558.232174 561.328604
9.090000 553.043990 556.081025 559.122181 559.136485 562.351486 565.751514
9.140000 558.352671 560.736285 563.859311 563.909653 567.068112 570.299975
9.190000 562.704652 565.172123 568.074602 568.247491 571.301525 574.881755
9.240000 566.302767 568.973622 571.631215 571.856569 574.609272 578.971680
9.290000 569.707809 573.154327 575.734810 575.916508 578.804353 582.445698
9.365000 575.180716 578.302095 581.750401 582.440157 587.015938 592.504624
9.440000 580.873987 583.422747 587.957137 588.889422 594.937971 599.314950
9.490000 584.249935 587.826156 591.842413 592.722214 598.452000 602.344003
9.540000 588.110757 592.254357 596.851288 596.960970 602.039606 605.059233
9.590000 592.720966 595.921696 601.183282 600.733377 605.348840 607.538406
9.640000 595.717422 600.262514 604.616788 604.196023 607.935729 610.010577
9.690000 599.297087 604.140730 607.710947 607.246155 610.444655 612.688087
9.740000 603.837490 607.252301 610.138204 609.979297 612.835193 614.834575
9.790000 607.653391 610.175524 612.827527 612.591321 615.033459 616.776762
9.840000 610.767932 613.236328 615.531327 615.356469 617.555690 619.196679
9.890000 614.793208 616.942441 618.884564 618.719693 620.436123 622.343926
9.940000 618.444450 620.525249 622.279714 622.270163 624.044601 626.310729
10.040000 623.328781 625.436774 627.508794 627.712309 629.988055 632.640363
10.090000 625.990149 627.686716 630.018163 630.161091 632.666262 635.135524
10.165000 628.457459 630.569543 633.145584 633.281070 635.915572 639.072484
10.240000 631.259023 633.576168 636.275469 636.384844 639.233992 642.106182
10.290000 633.340558 635.500734 638.263213 638.441852 641.452722 644.057319
10.340000 635.458154 637.672647 640.531221 640.637023 643.646164 646.196445
10.440000 639.167440 641.890325 644.781800 644.809296 647.803022 650.674100
10.490000 641.244947 643.891109 646.936778 647.000938 649.935305 653.395200
10.540000 643.370318 645.997510 649.322246 649.256988 652.411131 655.702504
10.590000 645.460653 648.476062 651.759306 651.751224 654.858440 658.525801
10.640000 647.644860 650.860644 654.196864 654.157100 657.453564 660.603862
10.690000 650.030654 653.153357 656.742101 656.605945 659.901365 663.012355
10.740000 652.304829 655.623352 659.401490 659.238093 662.617243 665.933201
10.790000 655.147480 658.449944 662.221096 662.081348 665.633838 669.076861
10.840000 657.546242 660.840035 664.616139 664.552088 668.226951 671.419736
10.915000 660.910024 664.445808 668.115173 668.208107 672.017398 675.053351
10.990000 663.931014 667.575239 671.729147 671.633959 675.573710 678.103226
11.040000 665.786582 669.443252 673.582947 673.490449 677.427943 680.116612
11.090000 667.615611 671.176459 675.346198 675.164969 679.091628 681.459504
11.140000 669.731042 672.983688 676.997112 676.858313 680.653928 682.872108
11.190000 671.696086 674.880580 678.818959 678.652888 682.284884 684.400958
11.240000 673.568700 676.919765 680.621611 680.452240 683.950846 685.904853
11.290000 676.013757 679.035986 682.646141 682.474724 685.674529 687.402951
11.340000 678.584177 681.463416 685.173625 684.606006 687.429369 688.917540
11.390000 681.349455 684.381947 687.374261 686.920160 689.172195 690.617413
11.490000 687.502628 689.918048 691.557454 691.327528 692.736816 693.841176
11.540000 690.930555 692.400334 693.550438 693.461411 694.527099 695.485682
11.590000 693.786774 694.608208 695.561661 695.563717 696.430508 697.413321
