depth(m) lower_95(kyr) lower_68(kyr) median(kyr) mean(kyr) upper_68(kyr) upper_95(kyr)
61.800000 1482.552569 1488.178558 1495.574405 1495.718412 1503.137799 1508.441116
61.900000 1488.701618 1494.709918 1501.191014 1501.122152 1507.486369 1511.496942
61.980000 1493.510654 1499.900370 1506.325831 1505.565032 1510.811218 1513.717227
62.100000 1501.086169 1507.470035 1512.128360 1511.159969 1514.744205 1516.592257
62.200000 1508.698400 1512.922806 1515.636139 1515.140511 1517.630640 1519.096183
62.300000 1513.001111 1515.844429 1518.024578 1517.724112 1519.606245 1520.900644
62.400000 1515.614182 1518.031088 1519.660831 1519.526198 1521.086583 1522.349773
62.500000 1517.765495 1519.719553 1521.116797 1521.034749 1522.407065 1523.635852
62.600000 1519.368548 1521.169431 1522.495132 1522.397026 1523.669523 1524.776625
62.700000 1521.202672 1522.609907 1523.904936 1523.868240 1525.190460 1526.170710
62.800000 1522.809806 1524.238274 1525.615036 1525.566705 1526.929532 1527.910849
62.900000 1525.009294 1526.351622 1527.788906 1527.678291 1528.925461 1530.105670
63.000000 1527.945911 1529.224220 1530.318663 1530.366266 1531.525178 1532.982271
63.100000 1530.135782 1531.437118 1532.848591 1532.924489 1534.455539 1536.415396
63.200000 1532.318199 1533.851076 1535.557149 1535.576064 1537.257812 1538.965991
63.300000 1534.889492 1536.738488 1538.749129 1538.690876 1540.570531 1542.400432
63.400000 1539.501516 1541.542033 1543.207648 1543.417266 1545.466776 1548.163080
63.480000 1542.517252 1544.344019 1546.370943 1546.640997 1548.936212 1551.916517
63.590000 1545.743176 1547.541920 1549.740421 1550.075288 1552.782352 1555.537627
63.700000 1548.517438 1550.432864 1553.005201 1553.147836 1555.966822 1558.733084
63.800000 1550.896515 1553.034310 1555.809256 1555.888694 1558.691183 1561.064083
63.900000 1553.570118 1555.847139 1558.722706 1558.557671 1561.159229 1563.002445
64.000000 1556.547665 1558.932077 1561.436734 1561.221539 1563.377560 1565.182389
64.100000 1559.933345 1561.887086 1563.901078 1563.719989 1565.489004 1566.998190
64.200000 1562.450850 1564.369544 1566.253461 1566.125477 1567.829363 1569.324837
64.300000 1565.531821 1567.495874 1569.113173 1569.062966 1570.680414 1572.440315
64.400000 1569.739763 1571.389718 1573.177082 1573.206152 1575.002803 1577.085034
64.500000 1573.401000 1575.156300 1576.741657 1576.776070 1578.497789 1580.133767
64.600000 1576.924671 1578.529001 1580.191787 1580.161209 1581.793872 1583.379824
64.620000 1577.555702 1579.206784 1580.864132 1580.822690 1582.419598 1583.888076
64.700000 1579.692142 1581.362621 1582.890039 1582.926173 1584.522888 1586.303026
64.800000 1582.490408 1583.896315 1585.414615 1585.542087 1587.098495 1589.458421
64.900000 1585.747362 1586.934909 1588.500322 1588.812217 1590.669670 1593.953573
64.980000 1587.847517 1589.377920 1591.206100 1591.543237 1593.655758 1597.379054
65.000000 1588.463839 1590.056406 1591.980328 1592.321010 1594.594853 1597.962084
65.100000 1591.625404 1593.786022 1596.213593 1596.194165 1598.599284 1600.813726
65.200000 1595.681923 1598.061997 1600.077495 1599.972063 1601.983563 1603.532353
65.300000 1599.857057 1601.421602 1603.005488 1602.963473 1604.431578 1605.869344
65.400000 1602.607863 1603.932375 1605.198318 1605.221442 1606.551648 1607.713552
65.500000 1604.482991 1605.756692 1606.985235 1607.022297 1608.270523 1609.772521
65.570000 1605.731161 1606.924567 1608.251005 1608.274305 1609.586574 1611.010934
65.600000 1606.345853 1607.520443 1608.854257 1608.891433 1610.250266 1611.641702
65.700000 1607.961084 1609.312268 1610.705451 1610.808351 1612.302495 1614.010387
65.800000 1609.541329 1611.051826 1612.716781 1612.857267 1614.607381 1617.206079
65.900000 1611.595484 1612.985150 1614.980248 1615.356732 1617.800943 1620.994363
65.980000 1612.977328 1614.577373 1617.093628 1617.526024 1620.748016 1623.976289
66.000000 1613.352248 1614.997575 1617.659558 1618.111488 1621.527459 1624.701567
66.080000 1615.200629 1617.099218 1620.337837 1620.713947 1624.210364 1627.806491
66.200000 1617.684570 1620.850429 1624.731814 1624.689520 1628.527517 1631.539394
66.300000 1620.640299 1624.300490 1628.261277 1628.032967 1631.959178 1634.481373
66.400000 1623.577703 1627.815495 1631.493651 1631.120178 1634.536615 1636.965211
66.500000 1627.479358 1631.145433 1634.506445 1634.197491 1637.139608 1639.064135
66.600000 1630.999039 1634.354222 1637.121291 1636.956294 1639.599640 1641.367752
66.700000 1634.795647 1637.596736 1639.875163 1639.714829 1641.906483 1643.587803
66.800000 1638.007854 1640.637467 1642.758457 1642.571657 1644.492383 1645.973348
66.900000 1642.242786 1644.488032 1646.267045 1646.264995 1648.174133 1650.237017
67.000000 1646.669825 1648.164737 1649.859792 1650.158211 1652.117366 1655.233056
67.080000 1648.740332 1650.255851 1651.967801 1652.342020 1654.509775 1657.525678
67.200000 1651.067443 1652.959990 1655.195353 1655.392027 1657.975990 1661.175353
67.300000 1653.027343 1655.031654 1657.685904 1657.877769 1660.717152 1663.851670
67.400000 1655.325484 1657.455133 1660.263975 1660.352651 1663.195264 1666.205016
67.500000 1657.654703 1659.968570 1662.835019 1663.020963 1666.238569 1668.874829
67.600000 1660.061910 1662.724601 1665.956225 1665.906176 1669.187698 1671.139549
67.700000 1663.159862 1666.110685 1669.277224 1668.946986 1671.577499 1673.331453
67.800000 1666.147744 1669.824238 1672.175676 1671.795050 1673.707122 1675.198517
67.900000 1670.765047 1673.229590 1674.788656 1674.553692 1675.971560 1677.154103
68.000000 1673.739883 1675.568166 1676.904005 1676.824269 1678.060045 1679.326531
68.100000 1677.105518 1678.297451 1679.524033 1679.561253 1680.872475 1682.235465
68.180000 1679.036424 1680.333992 1681.697524 1681.823538 1683.336380 1685.089272
68.200000 1679.499916 1680.838130 1682.293835 1682.360320 1683.919898 1685.595353
68.300000 1681.743098 1682.974823 1684.544660 1684.582111 1686.127402 1687.902260
68.400000 1683.542458 1684.854424 1686.552128 1686.607209 1688.425624 1690.136360
68.500000 1685.394647 1686.921477 1688.631562 1688.780349 1690.683794 1692.583995
68.600000 1687.405052 1689.191452 1690.974101 1691.046649 1693.055826 1694.751844
68.700000 1689.595102 1691.079173 1693.091886 1693.076395 1695.014210 1696.654922
68.800000 1691.576770 1693.179152 1695.035719 1695.021262 1696.800242 1698.276251
68.900000 1693.419367 1695.395032 1696.993690 1696.965548 1698.519194 1700.198334
69.000000 1695.587062 1697.661412 1699.187908 1699.115216 1700.580707 1702.062171
69.100000 1698.187229 1699.790918 1701.265436 1701.211395 1702.642651 1703.891017
69.200000 1700.035617 1701.519472 1702.902257 1702.858409 1704.209398 1705.334085
69.300000 1701.533825 1702.996076 1704.358274 1704.317441 1705.639475 1706.969507
69.410000 1703.231174 1704.491948 1705.954536 1705.941909 1707.329000 1708.664472
69.500000 1704.708951 1705.936198 1707.430303 1707.355828 1708.670082 1710.082059
69.600000 1706.324170 1707.763843 1709.199383 1709.233828 1710.641914 1712.452152
69.680000 1707.506218 1709.174409 1710.688919 1710.797608 1712.433591 1714.457836
69.800000 1709.939844 1711.612940 1713.288420 1713.553109 1715.589751 1718.286432
69.900000 1711.977794 1714.049084 1716.110818 1716.310372 1718.750282 1721.071563
70.000000 1714.100341 1716.269359 1718.784266 1718.808754 1721.223021 1723.334367
70.100000 1716.038690 1718.748547 1721.233474 1721.118272 1723.489096 1725.192791
70.200000 1718.970920 1721.075458 1723.306135 1723.225297 1725.374732 1727.300933
70.310000 1721.236752 1723.144008 1725.206561 1725.249391 1727.301525 1729.445455
70.400000 1722.856026 1724.709981 1726.734139 1726.814274 1728.828306 1731.546290
70.500000 1724.541808 1726.350747 1728.414541 1728.590106 1730.801510 1733.673366
70.600000 1726.175581 1728.110093 1730.367777 1730.586166 1733.196086 1735.779093
70.700000 1727.693087 1730.066623 1732.794826 1732.877525 1735.837701 1738.187567
70.800000 1729.746227 1732.009567 1735.249177 1735.143464 1738.132517 1740.494896
70.900000 1731.947396 1734.565324 1737.670394 1737.501066 1740.307503 1742.227704
71.000000 1734.058784 1737.277317 1740.110826 1739.862006 1742.307322 1744.469044
71.100000 1736.991363 1739.839544 1742.271975 1742.085228 1744.256511 1746.431063
71.180000 1739.518367 1741.529031 1743.744118 1743.677775 1745.699911 1747.776049
71.300000 1741.974910 1743.768801 1745.826760 1745.855625 1747.898717 1749.998319
71.400000 1743.910673 1745.692432 1747.802682 1747.871261 1750.004637 1752.418849
71.475000 1745.440934 1747.196988 1749.548294 1749.662079 1751.958061 1754.887721
71.550000 1746.901826 1749.124073 1751.432294 1751.596829 1754.148877 1756.805996
71.650000 1749.079199 1751.787335 1754.255552 1754.236027 1756.890703 1759.270831
71.750000 1752.114587 1754.404332 1756.889147 1756.906324 1759.427597 1762.219128
71.800000 1753.386496 1755.818230 1758.326840 1758.347509 1760.819059 1763.684060
71.875000 1755.214217 1757.609242 1760.232433 1760.236216 1762.829325 1765.354004
71.950000 1756.881530 1759.307827 1761.934341 1762.018978 1764.783043 1767.240841
72.025000 1758.552518 1761.119759 1763.795036 1763.831054 1766.708446 1769.130479
72.100000 1760.123327 1762.859736 1765.640337 1765.722661 1768.689482 1770.821350
72.175000 1762.189568 1764.740624 1767.530240 1767.620796 1770.607686 1773.126790
72.250000 1764.094534 1766.556739 1769.539291 1769.526734 1772.606850 1775.126848
72.325000 1765.867658 1768.663131 1771.599567 1771.612196 1774.795597 1777.344432
72.400000 1767.845685 1770.696554 1773.803173 1773.814865 1777.035718 1779.484749
72.500000 1770.486640 1773.794002 1777.341564 1776.997616 1780.086310 1782.125722
72.600000 1774.779274 1777.946194 1780.911886 1780.577474 1783.164909 1784.965266
72.680000 1778.133245 1780.956710 1783.439111 1783.197416 1785.324796 1786.825053
72.800000 1782.601375 1784.623146 1786.524913 1786.384580 1788.076551 1789.460444
72.900000 1785.157369 1786.949585 1788.473094 1788.371784 1789.811850 1790.828055
73.000000 1787.351606 1788.848397 1790.129927 1790.024949 1791.173844 1792.072819
73.100000 1789.333715 1790.558124 1791.488791 1791.455361 1792.408731 1793.282417
73.200000 1791.123010 1791.974184 1792.752327 1792.751557 1793.514359 1794.277617
73.300000 1792.217413 1793.018544 1793.890350 1793.936030 1794.863862 1795.965288
73.400000 1793.194462 1794.092997 1795.069908 1795.199770 1796.257839 1797.937575
73.500000 1794.398810 1795.231703 1796.433936 1796.610959 1797.999597 1799.595170
73.600000 1795.751318 1796.811772 1798.292438 1798.537924 1800.134106 1802.937597
73.700000 1797.320845 1798.669061 1800.633393 1800.927543 1802.938970 1806.854532
73.800000 1799.511429 1801.431024 1803.756806 1804.014996 1806.526547 1810.249689
73.900000 1801.550099 1803.714075 1806.468826 1806.692583 1809.567494 1813.717689
74.000000 1803.700023 1806.124852 1809.000082 1809.339505 1812.412456 1816.516713
74.100000 1806.127503 1808.970262 1811.911130 1812.205325 1815.453382 1819.771742
74.180000 1808.427940 1811.436338 1814.660554 1814.782035 1818.139403 1821.794997
74.300000 1812.015832 1815.309663 1818.699929 1818.653938 1821.959784 1825.173695
74.400000 1814.849517 1818.337887 1822.028309 1821.763793 1825.057879 1827.716880
74.500000 1817.607238 1821.630393 1825.044642 1824.692667 1827.765892 1830.211720
74.600000 1820.394067 1824.207044 1827.609935 1827.251285 1830.012075 1832.475645
74.700000 1823.567634 1826.845560 1829.991640 1829.702908 1832.287582 1834.602007
74.800000 1826.413728 1829.620419 1832.314997 1832.123421 1834.586909 1836.670119
74.900000 1828.771973 1831.830586 1834.369694 1834.301109 1836.803366 1839.049393
75.000000 1831.344544 1834.037299 1836.534797 1836.432522 1838.937794 1841.067553
75.100000 1833.082435 1835.987045 1838.649892 1838.465444 1840.922824 1842.873737
75.200000 1835.218062 1837.999766 1840.569004 1840.413771 1842.874439 1844.756223
75.300000 1837.639982 1840.014448 1842.519971 1842.368859 1844.621500 1846.408048
75.400000 1840.157770 1842.320604 1844.877985 1844.771170 1847.188430 1849.276713
75.500000 1842.289592 1844.599768 1846.976972 1846.986134 1849.394463 1851.879304
75.600000 1844.487443 1846.710742 1849.048864 1849.132292 1851.515681 1854.049957
75.680000 1846.660326 1848.876238 1851.065957 1851.107469 1853.381763 1855.684228
75.800000 1849.190579 1851.760890 1853.756937 1853.789414 1855.848651 1857.945318
75.900000 1851.743518 1854.283196 1856.244313 1856.178650 1858.076177 1860.150873
76.000000 1854.090785 1856.388496 1858.262989 1858.254631 1860.059459 1862.304835
76.050000 1855.262587 1857.347477 1859.246418 1859.201096 1861.074773 1863.126945
76.100000 1856.438731 1858.326128 1860.118384 1860.170151 1862.039433 1864.174608
76.200000 1858.513558 1860.316418 1862.090568 1862.162834 1864.126522 1866.303806
76.300000 1860.524685 1862.273149 1864.180879 1864.300106 1866.326999 1868.529278
76.400000 1862.011128 1864.048649 1866.208014 1866.223471 1868.483789 1870.621148
76.500000 1863.591921 1865.797992 1868.226410 1868.172174 1870.466859 1872.650644
76.600000 1865.279570 1867.661812 1870.003857 1869.984893 1872.291515 1874.657202
76.700000 1867.072764 1869.373508 1871.877979 1871.859281 1874.296280 1876.672564
76.800000 1868.952769 1871.359312 1873.986769 1873.866167 1876.325712 1878.236642
76.890000 1870.690309 1873.236287 1875.878364 1875.795101 1878.319284 1880.015316
77.000000 1873.293550 1875.761128 1878.492984 1878.277331 1880.634361 1882.437963
77.100000 1875.483379 1878.114918 1880.694708 1880.427159 1882.690439 1884.184823
77.200000 1878.305987 1880.616461 1882.799166 1882.609063 1884.582216 1885.778752
77.280000 1880.743255 1882.811683 1884.459223 1884.326975 1886.027588 1886.990064
77.400000 1884.226782 1885.511956 1886.791642 1886.724382 1887.925874 1888.883580
77.410000 1884.500469 1885.739328 1887.015147 1886.940847 1888.131522 1889.029528
77.490000 1886.262183 1887.408948 1888.473548 1888.459392 1889.531033 1890.488008
77.500000 1886.466371 1887.650029 1888.688718 1888.667647 1889.712017 1890.656729
77.590000 1888.316457 1889.307087 1890.275162 1890.317330 1891.375145 1892.295285
77.600000 1888.474971 1889.495806 1890.510674 1890.523021 1891.561215 1892.601588
77.680000 1889.924694 1891.050118 1892.100310 1892.104660 1893.234021 1894.275342
77.700000 1890.285296 1891.479519 1892.474289 1892.513017 1893.613387 1894.775679
77.790000 1892.046092 1893.247854 1894.263598 1894.322068 1895.443231 1896.595345
77.800000 1892.259672 1893.459650 1894.568486 1894.569810 1895.687761 1896.882506
77.890000 1894.822515 1895.715447 1897.086447 1897.060347 1898.313988 1899.594045
77.900000 1895.050375 1896.012728 1897.396172 1897.353186 1898.608079 1899.834431
78.000000 1897.438591 1898.485687 1899.736203 1899.689925 1900.807089 1902.086854
78.090000 1899.917120 1900.870159 1901.967990 1902.070913 1903.311024 1904.764260
78.100000 1900.137646 1901.139510 1902.175185 1902.324995 1903.507579 1905.038721
78.200000 1901.986547 1903.059380 1904.173896 1904.305935 1905.596822 1907.025887
78.290000 1903.362861 1904.415772 1905.771937 1905.865947 1907.331564 1908.920782
78.370000 1904.603894 1905.686899 1907.081064 1907.213374 1908.752405 1910.582833
78.480000 1905.999750 1907.297430 1908.903707 1909.008182 1910.741908 1912.689178
78.590000 1907.495230 1909.089714 1910.840454 1911.025353 1913.043988 1915.323752
78.690000 1909.378191 1911.207162 1913.430908 1913.629259 1916.163501 1918.644349
78.780000 1911.707460 1913.886257 1916.587054 1916.752722 1919.658793 1922.594711
78.890000 1915.072089 1917.395508 1920.475265 1920.475913 1923.427239 1926.262695
78.990000 1917.941136 1920.886438 1923.907346 1923.858045 1926.696991 1929.639051
79.090000 1921.098562 1924.438668 1927.258061 1927.175712 1929.988058 1932.795017
79.180000 1924.213474 1927.332805 1930.259574 1930.084452 1932.816086 1935.216859
79.300000 1929.002027 1931.905801 1934.365864 1934.315639 1936.865667 1939.108769
79.400000 1933.025699 1935.302807 1937.457535 1937.543526 1939.923504 1942.261919
79.500000 1935.978560 1938.015162 1940.270878 1940.304692 1942.642078 1945.097095
79.600000 1938.676284 1940.621086 1942.894667 1942.935682 1945.245128 1947.548726
79.700000 1941.189983 1943.476724 1945.750026 1945.772179 1948.253427 1950.482958
79.800000 1944.066157 1946.424410 1948.958372 1948.891798 1951.359088 1953.086026
79.890000 1947.831117 1950.026659 1952.240559 1952.039553 1954.082716 1955.294604
80.000000 1952.095507 1953.983370 1955.301986 1955.171480 1956.429416 1957.477242
80.100000 1955.855881 1956.642371 1957.416397 1957.424030 1958.262000 1959.014888
80.200000 1957.280444 1958.066257 1958.968724 1959.063034 1960.047210 1961.439338
80.270000 1958.244351 1959.080474 1960.040420 1960.233422 1961.397957 1962.999430
80.400000 1959.984504 1961.007084 1962.191695 1962.397196 1963.924011 1965.522338
80.500000 1961.102663 1962.306779 1963.753512 1963.856454 1965.388637 1966.839651
80.600000 1962.498336 1963.918936 1965.492308 1965.471109 1967.007910 1968.294534
80.700000 1963.933330 1965.530391 1967.086548 1966.998651 1968.422741 1969.565912
80.800000 1965.188495 1967.030863 1968.520140 1968.396928 1969.809853 1970.897558
80.933333 1967.026129 1968.454476 1969.937471 1969.851013 1971.210734 1972.279172
81.066667 1968.609922 1969.922504 1971.210767 1971.166372 1972.422323 1973.429517
81.200000 1970.347814 1971.324849 1972.462125 1972.445138 1973.594730 1974.453158
81.300000 1971.364567 1972.319178 1973.395344 1973.372329 1974.427141 1975.367304
81.390000 1972.290816 1973.204934 1974.197657 1974.207301 1975.230434 1976.268511
81.500000 1973.274153 1974.171146 1975.147326 1975.188878 1976.176056 1977.257457
81.600000 1974.170226 1975.024752 1976.051690 1976.034025 1976.981965 1978.007696
81.700000 1974.992261 1975.859737 1976.911795 1976.880466 1977.845165 1978.896675
81.780000 1975.615382 1976.541994 1977.528774 1977.554721 1978.513361 1979.887621
81.900000 1976.548485 1977.538428 1978.468991 1978.539524 1979.583680 1980.805284
82.000000 1977.259083 1978.404707 1979.366649 1979.431226 1980.494536 1981.676213
82.100000 1978.207525 1979.332363 1980.362040 1980.450772 1981.622347 1983.184857
82.180000 1978.887322 1980.066137 1981.227570 1981.335407 1982.661246 1984.269689
82.300000 1979.992353 1981.290469 1982.659769 1982.759017 1984.289103 1985.726631
82.400000 1981.106218 1982.415331 1983.927093 1984.001208 1985.632560 1987.363802
82.500000 1982.270907 1983.532510 1985.157814 1985.241926 1987.011991 1988.691045
82.600000 1983.268920 1984.652762 1986.433446 1986.467338 1988.174518 1989.908831
82.700000 1984.400759 1985.904416 1987.764277 1987.794194 1989.562441 1991.476280
82.800000 1985.623103 1987.283342 1989.120661 1989.161862 1990.997667 1993.048846
82.900000 1986.880798 1988.614524 1990.665702 1990.658133 1992.522390 1994.878462
83.000000 1988.418731 1990.366333 1992.426375 1992.430192 1994.562894 1996.660776
83.100000 1990.107208 1992.150249 1994.187975 1994.223403 1996.450027 1998.417393
83.200000 1991.697674 1993.944109 1995.992589 1995.977140 1998.054183 2000.010962
83.300000 1993.230381 1995.627212 1997.617560 1997.593749 1999.619296 2001.323468
83.400000 1994.753222 1997.262343 1999.159645 1999.069117 2001.023992 2002.500383
83.500000 1996.914766 1998.677965 2000.617973 2000.490216 2002.264564 2003.802044
83.575000 1998.178912 1999.798024 2001.636052 2001.527337 2003.220827 2004.611520
83.650000 1999.366496 2000.785368 2002.588500 2002.463306 2004.011451 2005.250804
83.725000 2000.313258 2001.793062 2003.432700 2003.317064 2004.819024 2006.022928
83.800000 2001.292630 2002.751721 2004.229966 2004.148114 2005.580883 2006.786197
83.900000 2002.286992 2003.838121 2005.203809 2005.179890 2006.478363 2007.851817
84.010000 2003.431663 2004.933218 2006.227604 2006.229756 2007.501529 2008.785729
84.100000 2004.388821 2005.895229 2007.129933 2007.097577 2008.315137 2009.551899
84.200000 2005.326972 2006.742215 2008.013736 2008.009809 2009.310619 2010.449296
84.290000 2006.162649 2007.497967 2008.753803 2008.800128 2010.106551 2011.281859
