depth(m) lower_95(kyr) lower_68(kyr) median(kyr) mean(kyr) upper_68(kyr) upper_95(kyr)
68.420000 1398.332878 1399.213720 1400.199728 1400.212601 1401.199223 1402.256116
68.520000 1400.276447 1401.367099 1402.642520 1402.787667 1404.142720 1406.433276
68.620000 1402.177711 1403.728470 1405.438813 1405.611477 1407.423385 1409.778863
68.720000 1404.221288 1405.894200 1407.938946 1407.951619 1409.858640 1412.387561
68.820000 1406.206212 1408.025668 1410.089186 1410.128686 1411.899628 1415.067062
68.920000 1408.400395 1410.513957 1412.158140 1412.330735 1414.004473 1417.011345
69.020000 1410.352886 1412.552856 1414.302409 1414.582248 1416.656647 1420.160443
69.120000 1412.572352 1414.607086 1416.576716 1416.898235 1419.340073 1422.469654
69.220000 1414.884248 1416.545478 1419.043505 1419.227494 1421.887072 1424.794613
69.320000 1416.931132 1418.948741 1421.706024 1421.761891 1424.600893 1427.183760
69.420000 1418.917452 1421.402210 1424.370129 1424.417803 1427.396569 1429.703800
69.520000 1421.766736 1424.372742 1427.365813 1427.327883 1430.180201 1433.260705
69.620000 1424.120173 1427.054802 1430.054874 1430.049046 1433.029512 1436.145539
69.720000 1426.288727 1429.377447 1432.359923 1432.503260 1435.592753 1438.697580
69.820000 1428.542320 1431.685313 1434.676663 1434.821616 1438.192709 1440.831609
69.920000 1430.187545 1433.934061 1436.984423 1436.975758 1440.354670 1442.772079
70.020000 1432.443200 1435.882904 1439.244672 1439.073591 1442.404303 1444.431357
70.120000 1434.792644 1437.942875 1441.232934 1441.070774 1444.372117 1446.194498
70.220000 1437.049950 1440.083889 1443.370023 1443.130303 1446.241504 1447.823040
70.320000 1439.248278 1442.487149 1445.655794 1445.264513 1447.924964 1449.433215
70.420000 1441.810406 1445.127366 1447.950716 1447.487848 1449.675470 1451.084455
70.520000 1444.356729 1448.276379 1450.433440 1449.975545 1451.675019 1452.835625
70.620000 1447.868837 1450.991168 1452.569316 1452.395454 1454.017456 1455.519502
70.720000 1451.987725 1453.318849 1454.524330 1454.669986 1456.065803 1458.088752
70.820000 1453.874831 1454.981307 1456.152091 1456.439132 1458.057321 1460.601697
70.920000 1455.351420 1456.459830 1457.876278 1458.203698 1459.982497 1462.603031
71.020000 1456.756644 1458.074817 1459.707933 1460.020772 1462.321409 1464.230376
71.120000 1458.479176 1459.820647 1461.800587 1461.980281 1464.232337 1466.154937
71.220000 1460.220666 1461.737171 1464.134009 1464.061368 1466.104166 1467.820851
71.320000 1462.334354 1464.354269 1466.393276 1466.365361 1468.231871 1470.338531
71.420000 1464.831820 1466.807715 1468.765152 1468.952493 1470.993514 1474.511281
71.520000 1467.167781 1468.933579 1471.079426 1471.604319 1474.299852 1479.152606
71.620000 1469.311784 1471.217075 1474.005903 1474.533332 1477.977147 1481.949521
71.720000 1471.132958 1473.425753 1477.119525 1477.328075 1481.654144 1484.420074
71.820000 1472.696994 1475.723576 1479.714509 1479.876562 1484.221914 1486.567085
71.920000 1474.729541 1478.333412 1482.316590 1482.364921 1486.448400 1488.622396
72.020000 1477.520793 1481.376780 1484.673561 1484.761353 1488.407494 1490.316758
72.120000 1479.953140 1484.154686 1487.448832 1487.147709 1490.098905 1491.903723
72.220000 1483.507499 1487.074368 1489.998165 1489.562788 1491.962513 1493.481547
72.320000 1486.432730 1490.513021 1492.513015 1492.248399 1494.149531 1495.648305
72.420000 1492.041728 1493.470143 1494.877391 1494.915301 1496.318263 1498.086990
72.520000 1494.047153 1495.255624 1496.514239 1496.740742 1498.254764 1500.533312
72.620000 1495.671569 1496.770761 1498.069360 1498.369452 1500.155688 1502.150782
72.720000 1496.977959 1498.205663 1499.760438 1499.970117 1501.910384 1503.955474
72.820000 1498.611538 1499.771081 1501.428262 1501.654851 1503.640309 1505.671391
72.920000 1500.200512 1501.459665 1503.170050 1503.477022 1505.549464 1507.825636
73.020000 1501.745436 1503.164369 1505.294226 1505.499493 1507.789284 1510.388547
73.120000 1503.497049 1505.227045 1507.641067 1507.798007 1510.126019 1514.164173
73.220000 1505.375461 1507.670978 1510.813264 1511.114865 1514.461335 1519.551605
73.320000 1507.712526 1510.271532 1513.988621 1514.496611 1518.776959 1523.292361
73.420000 1510.629309 1513.474655 1517.767815 1518.004287 1522.705184 1526.117427
73.520000 1513.677232 1517.303393 1522.395869 1521.973520 1526.118678 1528.556959
73.620000 1516.774659 1522.284600 1526.798842 1525.819218 1529.083980 1530.653837
73.720000 1521.331048 1526.592675 1529.426097 1528.816891 1531.096169 1532.573971
73.820000 1526.682172 1529.599702 1531.634705 1531.320179 1533.062567 1534.255464
73.920000 1529.346458 1531.586227 1533.205679 1533.057962 1534.565113 1535.777405
74.020000 1531.414396 1533.145460 1534.588440 1534.517994 1535.889116 1537.180762
74.120000 1532.927551 1534.499049 1535.884184 1535.870975 1537.287680 1538.619582
74.220000 1534.250005 1535.873925 1537.173405 1537.169658 1538.603459 1539.797771
74.320000 1535.506054 1537.103432 1538.552869 1538.505632 1539.932889 1541.149434
74.420000 1536.744908 1538.423036 1539.928507 1539.864360 1541.276921 1542.619151
74.520000 1538.254724 1539.809569 1541.262300 1541.254777 1542.662380 1544.052620
74.620000 1539.753629 1541.229977 1542.642246 1542.707772 1544.186049 1545.800011
74.720000 1541.055632 1542.616532 1544.078594 1544.202942 1545.721137 1547.994091
74.820000 1542.596559 1543.952608 1545.546400 1545.747132 1547.436651 1550.249033
74.920000 1543.940395 1545.336398 1546.967743 1547.379783 1549.410989 1553.504459
75.020000 1545.315330 1546.651025 1548.525013 1549.188010 1551.865653 1556.819785
75.120000 1546.587905 1548.120543 1550.131450 1551.099287 1554.851361 1558.773567
75.220000 1548.248940 1549.778403 1552.508351 1553.429189 1557.905380 1561.270852
75.320000 1549.731323 1551.438562 1555.381351 1555.981451 1560.759145 1564.061158
75.420000 1551.485694 1553.670453 1558.707876 1558.679604 1563.599667 1566.417286
75.520000 1553.275759 1556.259343 1561.978122 1561.508518 1566.308978 1568.456943
75.620000 1555.696567 1559.227078 1565.137240 1564.232360 1568.512653 1570.639026
75.720000 1558.656646 1563.457460 1568.063328 1567.159040 1570.284101 1572.327572
75.820000 1562.056939 1567.831508 1570.380855 1569.941447 1572.166142 1573.934943
75.920000 1567.807921 1571.156017 1572.653424 1572.545260 1574.263439 1576.001695
76.020000 1571.237803 1572.897143 1574.461367 1574.444892 1576.021555 1577.997875
76.120000 1572.733528 1574.506857 1576.091324 1576.129989 1577.811399 1579.670355
76.240000 1574.387669 1576.243447 1578.095363 1578.182078 1580.265048 1582.355339
76.340000 1575.981473 1577.802741 1579.759641 1579.895666 1582.048336 1584.694233
76.440000 1577.492297 1579.532661 1581.681615 1581.828054 1584.040529 1587.147118
76.540000 1579.072192 1581.253161 1583.894785 1583.912640 1586.514006 1589.396971
76.640000 1580.365481 1583.303116 1586.181299 1586.090770 1588.843186 1591.868316
76.740000 1581.957739 1585.212267 1588.333478 1588.130003 1590.874944 1593.698662
76.840000 1583.357906 1587.293143 1590.643541 1590.198148 1592.869043 1595.368364
76.940000 1585.275752 1589.881603 1592.645243 1592.302358 1594.892033 1597.111096
77.040000 1587.220490 1592.095649 1594.752471 1594.444193 1596.968696 1599.155763
77.140000 1589.362622 1594.354431 1596.940652 1596.740523 1599.258358 1601.593079
77.240000 1592.426138 1596.519203 1598.957471 1598.966629 1601.482492 1604.430236
77.340000 1595.646306 1598.545818 1600.965229 1601.105900 1603.770078 1606.949075
77.440000 1597.689409 1600.429740 1603.002213 1603.184349 1605.895971 1609.671198
77.540000 1599.435646 1602.069988 1605.281345 1605.417936 1608.499093 1612.621825
77.640000 1601.412894 1604.078793 1607.576180 1607.714261 1610.944767 1616.392010
77.740000 1603.447315 1606.104733 1610.265967 1610.289151 1614.032694 1620.428736
77.840000 1605.220947 1608.553646 1612.750337 1612.940394 1617.151563 1623.340255
77.940000 1606.774623 1610.800332 1615.329872 1615.620256 1620.002403 1626.130430
78.040000 1608.894197 1613.239925 1617.905818 1618.266403 1623.344856 1628.459851
78.140000 1610.790601 1616.143404 1620.626389 1620.989378 1626.719490 1630.730124
78.240000 1613.480538 1618.588702 1623.282050 1623.666442 1629.660785 1633.129073
78.340000 1615.931071 1621.050013 1625.900977 1626.286479 1632.183489 1635.029790
78.440000 1618.580158 1623.429856 1629.137104 1628.798660 1634.246475 1636.771827
78.540000 1621.104194 1625.922046 1631.884799 1631.309832 1636.139749 1638.584880
78.640000 1623.503983 1629.308534 1634.424975 1633.741574 1638.073287 1640.549515
78.740000 1627.363758 1632.334436 1636.820238 1636.164011 1640.111724 1642.422681
78.840000 1630.611429 1635.100416 1638.974258 1638.618125 1641.917445 1644.315060
78.940000 1634.059498 1638.497344 1641.455731 1641.203622 1644.070801 1646.276680
79.040000 1639.374271 1642.062246 1644.347002 1644.292586 1646.702537 1648.830532
79.140000 1642.027358 1644.435809 1646.489025 1646.515647 1648.709012 1651.143680
79.240000 1644.203955 1646.314144 1648.342232 1648.444790 1650.593738 1653.114321
79.340000 1645.944598 1647.941917 1649.977698 1650.126994 1652.420034 1654.990829
79.480000 1648.359007 1650.056682 1652.118077 1652.323211 1654.620623 1657.457022
79.580000 1649.837240 1651.547071 1653.719028 1653.895217 1656.275356 1659.194705
79.680000 1651.287525 1653.140592 1655.310599 1655.514792 1657.926358 1660.708109
79.780000 1653.108538 1654.926455 1656.956289 1657.206264 1659.752252 1662.205214
79.880000 1654.662623 1656.675318 1658.684591 1658.951345 1661.511935 1664.005258
79.980000 1656.134729 1658.459197 1660.529268 1660.704922 1663.165177 1665.728116
80.080000 1657.926973 1660.192764 1662.412043 1662.596312 1665.110991 1668.219784
80.180000 1659.775701 1662.009215 1664.485263 1664.593893 1667.064430 1670.412812
80.280000 1661.860072 1664.118023 1666.538355 1666.874989 1669.541838 1673.019642
80.380000 1664.496086 1666.666420 1669.263042 1669.580546 1672.469414 1676.928352
80.480000 1666.836798 1669.275142 1672.495342 1672.733155 1676.087949 1680.831474
80.580000 1669.017288 1672.447046 1675.337319 1675.795963 1679.886227 1683.680407
80.680000 1671.329961 1675.077589 1678.309985 1678.683058 1682.918439 1686.356042
80.780000 1672.948534 1677.146806 1680.957552 1681.135382 1685.395862 1688.714143
80.880000 1674.749389 1679.454183 1683.596845 1683.484865 1687.818873 1690.564194
80.980000 1677.501000 1681.867903 1685.966978 1685.781525 1689.981459 1692.442969
81.080000 1680.092193 1684.439946 1688.387725 1688.105527 1691.827103 1694.086635
81.180000 1681.945331 1687.115421 1690.807959 1690.310972 1693.696354 1695.504022
81.280000 1684.833891 1689.191185 1693.016782 1692.448362 1695.435584 1697.370343
81.380000 1687.481911 1691.702325 1695.042297 1694.468048 1697.186136 1698.944180
81.480000 1690.157826 1694.031179 1696.865122 1696.507616 1698.826988 1700.837550
81.580000 1692.799763 1696.646146 1698.754541 1698.614369 1700.737753 1703.313281
81.680000 1696.172171 1699.138928 1700.826264 1700.824690 1702.782101 1705.083604
81.780000 1699.136444 1700.889807 1702.607778 1702.757468 1704.732883 1706.896279
81.880000 1700.843745 1702.689710 1704.495445 1704.613499 1706.578572 1708.993392
81.980000 1702.324611 1704.455335 1706.347644 1706.463955 1708.469906 1710.987427
82.080000 1704.253026 1706.348829 1708.299538 1708.424676 1710.490572 1713.232198
82.180000 1706.399367 1708.312702 1710.407378 1710.573149 1712.840817 1715.535343
82.280000 1708.461312 1710.625012 1712.642417 1712.899060 1715.163803 1718.472838
82.380000 1710.405520 1712.780729 1715.048446 1715.249823 1717.365921 1722.119270
82.480000 1712.486380 1714.996848 1717.248158 1717.506219 1719.686157 1725.247798
82.580000 1714.566771 1717.084368 1719.360105 1719.722315 1722.021006 1728.222246
82.680000 1717.027045 1718.998728 1721.402535 1721.854298 1724.361578 1729.944244
82.780000 1718.863146 1721.101955 1723.374540 1724.073135 1726.991892 1732.491775
82.880000 1720.437699 1722.794936 1725.438838 1726.150695 1729.479980 1735.659065
82.980000 1721.954152 1724.424055 1727.376203 1728.169218 1732.006272 1739.355075
83.080000 1723.623158 1726.033197 1729.425392 1730.155273 1734.032721 1742.697477
83.180000 1725.242910 1727.805812 1731.413973 1732.162860 1735.998513 1747.169196
83.280000 1726.932502 1729.786472 1733.500927 1734.336090 1738.011946 1751.373131
83.380000 1728.202482 1731.969921 1735.344276 1736.550033 1740.385723 1753.562299
83.480000 1729.821789 1734.180930 1737.242417 1738.797970 1742.341187 1755.529611
83.580000 1731.506859 1735.867792 1739.516898 1741.196841 1746.715610 1758.469511
83.680000 1733.080474 1737.683573 1742.087968 1744.001385 1751.975984 1759.980897
83.780000 1735.207192 1739.362077 1745.404438 1746.928997 1755.269857 1761.944618
83.880000 1737.248178 1741.113715 1751.126434 1749.840875 1757.903906 1764.336330
83.980000 1740.081373 1743.289940 1754.031790 1752.619943 1760.053547 1765.980548
84.080000 1742.621664 1746.617785 1756.259706 1755.339919 1762.044021 1767.589348
84.180000 1746.142633 1750.608380 1758.260931 1757.975334 1763.778163 1769.032728
84.280000 1751.144717 1755.600764 1761.224809 1761.063882 1765.909152 1770.885208
84.380000 1754.842708 1759.558473 1764.180495 1763.787414 1768.033463 1773.141599
84.480000 1757.151617 1761.712882 1766.565577 1766.110701 1769.967418 1774.646515
84.580000 1759.372982 1763.864509 1768.640310 1768.192330 1771.745906 1776.376561
84.680000 1761.943420 1766.216860 1770.834633 1770.370913 1773.718247 1777.712813
84.780000 1764.294183 1769.020457 1772.822613 1772.513661 1775.961891 1779.332319
84.880000 1766.736894 1771.401541 1774.875595 1774.698875 1778.020160 1781.268120
84.980000 1768.576582 1773.778071 1777.040548 1776.811473 1780.166710 1783.004798
85.080000 1771.100951 1775.885592 1779.059412 1778.860169 1782.134245 1784.839482
85.180000 1774.115489 1778.069865 1781.195940 1781.033566 1784.282055 1786.624714
85.280000 1776.681215 1780.171425 1783.233874 1783.108611 1786.292372 1788.496625
85.380000 1779.543974 1782.206459 1785.392884 1785.193812 1788.026340 1790.434765
85.480000 1781.695718 1784.441963 1787.499249 1787.293612 1790.053213 1792.380884
85.580000 1783.904896 1786.845358 1789.443590 1789.374487 1791.943117 1794.079925
85.680000 1785.702377 1788.881497 1791.480118 1791.329762 1793.704400 1795.985059
85.780000 1787.412493 1790.696745 1793.470411 1793.181898 1795.507189 1798.191314
85.880000 1789.376341 1792.421109 1795.239547 1794.977421 1797.286930 1800.085725
85.980000 1791.249401 1794.072980 1796.958300 1796.791668 1799.054974 1802.032822
86.080000 1792.968122 1795.930500 1798.546798 1798.581586 1800.740609 1804.165430
86.180000 1795.310173 1797.817131 1800.457903 1800.547633 1802.736969 1806.879195
86.280000 1797.326523 1800.074506 1802.255916 1802.616444 1804.898349 1809.829585
86.380000 1799.457685 1801.989224 1804.227277 1804.843448 1807.355142 1813.660360
86.480000 1801.512702 1803.883159 1806.217335 1807.040222 1809.722163 1819.442413
86.580000 1803.513419 1805.759815 1808.295562 1809.228609 1812.205979 1822.763603
86.680000 1805.300588 1807.607404 1810.355197 1811.525987 1815.122845 1826.017324
86.780000 1807.190997 1809.512370 1812.644119 1813.884460 1818.580883 1828.838284
86.880000 1808.740893 1811.317160 1815.321072 1816.670416 1822.350714 1831.650775
86.980000 1810.402289 1813.405122 1819.052469 1819.516263 1825.193870 1834.179296
87.080000 1812.295567 1815.927679 1822.222988 1822.419501 1827.826898 1836.780451
87.180000 1814.517712 1819.586802 1824.951937 1825.158529 1830.163619 1839.029512
87.280000 1816.550811 1823.005215 1827.309195 1827.854181 1832.727317 1841.427614
87.380000 1819.904645 1825.902874 1829.365936 1830.329314 1836.102343 1844.118484
87.480000 1822.224755 1828.315612 1831.264198 1832.686650 1838.553288 1848.087260
87.580000 1824.824170 1830.357007 1833.364451 1834.992538 1841.054321 1850.658970
87.680000 1827.479183 1832.281489 1835.941593 1837.419217 1843.402056 1856.290226
87.780000 1828.488220 1834.004265 1838.767304 1839.802154 1845.630711 1859.505347
87.880000 1831.031646 1835.867641 1841.740311 1842.207303 1847.657582 1861.803682
87.980000 1833.235330 1837.953416 1844.320444 1844.576572 1849.573645 1864.807747
88.080000 1834.728964 1840.130602 1846.914583 1846.751149 1851.698127 1867.684580
88.180000 1836.475200 1842.543894 1848.946138 1848.950195 1854.005593 1869.581228
88.280000 1838.362880 1844.899945 1850.931683 1851.205498 1856.494289 1871.162311
88.380000 1840.222962 1847.297610 1852.922353 1853.477766 1858.684552 1872.445647
88.480000 1842.111268 1849.741609 1855.125987 1855.870754 1861.997221 1873.844089
88.580000 1843.884244 1851.964003 1857.391622 1858.581611 1867.292847 1875.804519
88.680000 1845.938624 1854.474181 1859.897484 1861.341333 1870.040384 1877.324365
88.780000 1847.585564 1857.103252 1864.689550 1864.411578 1872.795629 1878.896081
88.880000 1849.329378 1859.601512 1868.688960 1867.430136 1874.967714 1880.293541
88.980000 1850.612879 1862.935977 1871.752605 1870.194656 1876.941708 1881.656704
89.080000 1852.678172 1866.644541 1874.033064 1872.593112 1878.761990 1883.085964
89.180000 1854.493553 1869.840771 1876.322027 1874.837058 1880.797815 1884.263169
89.280000 1856.025254 1871.879147 1878.087311 1876.862583 1882.619443 1885.697103
89.380000 1858.286355 1874.161108 1880.101126 1878.828425 1884.174590 1887.252162
89.480000 1861.221549 1875.805012 1881.981367 1880.714900 1885.674484 1888.847142
89.580000 1868.552602 1877.760977 1883.775218 1882.587114 1887.306720 1889.938933
89.680000 1871.564665 1879.821690 1885.498899 1884.423791 1888.823288 1891.153951
89.780000 1875.839262 1881.841069 1887.082190 1886.239887 1890.315562 1892.536471
89.880000 1878.197051 1883.969792 1888.770950 1887.953139 1891.789315 1894.013552
89.920000 1878.809025 1884.697538 1889.422636 1888.649472 1892.466317 1894.502897
90.020000 1880.701254 1886.812052 1891.091073 1890.301961 1893.844491 1896.144809
90.120000 1882.788210 1888.729306 1892.637395 1891.946545 1895.294315 1897.581400
90.220000 1885.126488 1890.637218 1894.255832 1893.598780 1896.763191 1899.031435
90.320000 1887.301383 1892.567862 1895.808104 1895.286409 1898.211725 1900.639330
90.420000 1889.491317 1894.719938 1897.432730 1897.031254 1899.694853 1902.393933
90.520000 1891.901536 1896.377395 1898.884424 1898.721946 1901.381824 1904.010183
90.620000 1894.171756 1898.202863 1900.598312 1900.415728 1902.983971 1905.344270
90.720000 1896.208051 1899.741562 1901.992186 1901.948933 1904.610158 1906.963031
90.820000 1898.056785 1901.140857 1903.600677 1903.516455 1906.235728 1908.717912
90.920000 1899.593464 1902.472405 1905.232821 1905.086532 1907.912783 1910.492573
91.020000 1901.132427 1903.873503 1906.786774 1906.659338 1909.569438 1912.368265
91.120000 1902.761492 1905.238668 1908.375414 1908.286218 1911.404406 1913.960712
91.220000 1903.843226 1906.835303 1910.017055 1909.994214 1913.304251 1915.889800
91.320000 1905.393846 1908.519077 1911.740985 1911.748911 1915.048225 1917.758355
91.420000 1907.141780 1910.358133 1913.705130 1913.641298 1916.993762 1919.537631
91.520000 1908.965024 1912.295773 1915.845503 1915.568405 1918.909399 1921.484226
91.620000 1910.544461 1914.245353 1917.867705 1917.525535 1920.847462 1923.802441
91.720000 1912.277654 1916.186101 1919.834256 1919.478243 1922.609068 1925.481651
91.820000 1914.554461 1918.109223 1921.811276 1921.444180 1924.432530 1927.049865
91.920000 1916.678983 1920.285355 1923.764888 1923.399504 1926.348659 1928.841150
92.020000 1918.949999 1922.348178 1925.516336 1925.320336 1928.256088 1930.803324
92.120000 1920.814285 1924.372009 1927.241337 1927.128133 1930.103962 1932.376612
92.220000 1922.918172 1926.074570 1928.958942 1928.906153 1931.839935 1934.201270
92.320000 1925.046147 1928.116281 1930.709810 1930.733897 1933.576015 1935.950714
92.420000 1926.781270 1929.952597 1932.524978 1932.539364 1935.401461 1937.477047
92.520000 1929.031961 1931.862173 1934.488462 1934.414545 1937.239767 1938.928793
