depth(m) lower_95(kyr) lower_68(kyr) median(kyr) mean(kyr) upper_68(kyr) upper_95(kyr)
52.280000 1401.109435 1401.942531 1402.915110 1402.913246 1403.888266 1404.757314
52.390000 1403.540065 1404.766122 1405.873529 1405.956916 1407.120390 1409.148946
52.510000 1405.999363 1407.253406 1408.724260 1408.799773 1410.321652 1412.415567
52.630000 1408.635660 1409.771437 1411.145586 1411.323408 1412.775394 1415.540673
52.750000 1410.928873 1412.040669 1413.512930 1413.860540 1415.537153 1419.051456
52.850000 1412.844387 1414.336876 1416.064891 1416.546309 1418.886119 1422.357506
52.950000 1415.137634 1417.110487 1419.611431 1419.987350 1423.052690 1426.255731
53.030000 1417.389740 1419.758483 1422.977265 1423.263010 1426.656085 1429.779358
53.110000 1420.890797 1423.705798 1427.561402 1427.444878 1431.066262 1434.441702
53.190000 1424.489956 1427.495805 1430.902748 1430.882857 1434.168775 1437.224276
53.280000 1427.894796 1431.056535 1433.964668 1434.161317 1437.424554 1440.935604
53.370000 1431.207483 1433.948520 1437.095927 1437.129104 1440.391680 1443.524309
53.470000 1434.157940 1437.139924 1440.286065 1440.252355 1443.550458 1445.905788
53.570000 1436.879961 1440.131643 1443.434653 1443.234023 1446.337005 1447.940660
53.680000 1440.677111 1444.040630 1447.414832 1446.784178 1449.227384 1450.440641
53.790000 1445.603506 1449.161459 1451.050732 1450.727246 1452.326606 1453.730361
53.880000 1450.509956 1452.223664 1453.535200 1453.585191 1454.950280 1456.927120
53.980000 1453.306595 1454.518475 1455.957772 1456.130405 1457.712136 1460.037246
54.070000 1455.321724 1456.510408 1458.008690 1458.301658 1460.195002 1462.794580
54.160000 1457.108136 1458.489186 1460.310305 1460.558564 1462.846000 1464.924089
54.260000 1459.118746 1460.732815 1462.999866 1463.133140 1465.480549 1467.468985
54.370000 1461.601038 1463.554828 1466.284739 1466.272998 1468.652016 1471.797864
54.470000 1464.183385 1466.249910 1468.784682 1469.033316 1471.437653 1476.616485
54.580000 1466.761140 1468.992663 1471.418130 1472.071544 1475.277393 1480.273820
54.680000 1469.290024 1471.616309 1474.342338 1475.047009 1479.007312 1483.311981
54.780000 1472.196498 1474.351065 1477.616432 1478.184563 1482.712756 1485.732956
54.880000 1474.422286 1477.424076 1481.309676 1481.470883 1485.861836 1488.223481
54.970000 1476.921327 1480.377557 1485.147794 1484.516131 1488.254857 1490.408518
55.070000 1480.428497 1485.656188 1489.079903 1488.490158 1491.265362 1493.195373
55.170000 1487.389535 1491.608264 1493.849236 1493.853090 1496.452214 1499.608854
55.280000 1493.851184 1495.725158 1497.992942 1498.528995 1501.648119 1504.804499
55.380000 1496.972188 1499.314619 1502.478257 1502.655136 1505.929796 1509.069502
55.490000 1500.507049 1503.994934 1507.867386 1507.734370 1510.821662 1516.682270
55.590000 1505.753678 1509.943683 1513.195829 1513.591507 1517.760789 1522.186513
55.680000 1510.667573 1514.042859 1518.293890 1518.225239 1522.573931 1525.651889
55.780000 1514.664926 1518.506316 1523.204671 1522.721827 1526.581046 1529.816493
55.880000 1518.623905 1523.321788 1527.614829 1527.083892 1530.593256 1532.549159
55.975000 1523.611495 1527.589212 1530.744317 1530.525163 1533.458527 1535.541081
56.070000 1528.202492 1531.216567 1533.499631 1533.554977 1536.055128 1538.358540
56.170000 1531.857301 1533.845554 1536.121522 1536.228327 1538.663806 1541.048962
56.270000 1534.170219 1536.329506 1538.728747 1538.768347 1541.058284 1543.724069
56.360000 1536.213800 1538.611660 1541.198022 1541.107012 1543.288571 1546.405347
56.470000 1538.509640 1541.324609 1544.195552 1544.349855 1547.177724 1551.800219
56.590000 1541.353722 1544.127351 1546.999680 1547.497896 1551.216926 1555.715859
56.710000 1543.582035 1546.556335 1549.751214 1550.536023 1555.501270 1558.866503
56.840000 1546.503056 1549.601370 1553.673357 1554.120657 1558.943900 1562.330441
56.980000 1549.637421 1553.465615 1558.249106 1558.191023 1562.897234 1565.751435
57.120000 1553.560730 1557.816402 1563.374845 1562.555502 1566.554150 1569.105269
57.240000 1557.245441 1563.357564 1567.319345 1566.558308 1569.510270 1571.284973
57.360000 1564.702284 1568.584008 1570.617916 1570.324646 1572.281265 1573.972420
57.430000 1568.250469 1570.788893 1572.415281 1572.316987 1573.993879 1575.840883
57.480000 1569.968479 1572.179023 1573.593063 1573.615870 1575.204824 1577.312844
57.580000 1572.794291 1574.280323 1575.660888 1575.809790 1577.283880 1579.652650
57.650000 1574.299126 1575.885138 1577.173081 1577.390301 1578.858859 1581.689980
57.680000 1575.004780 1576.602344 1577.951067 1578.187917 1579.693442 1582.738041
57.760000 1577.114758 1578.451265 1579.797261 1580.312183 1582.220122 1586.033879
57.780000 1577.563303 1578.916431 1580.322809 1580.849669 1582.798001 1587.005709
57.920000 1580.292289 1581.664793 1583.229782 1584.744659 1589.216239 1594.774170
57.970000 1581.354755 1582.791136 1584.344204 1586.175306 1591.301251 1596.554030
57.990000 1581.878888 1583.207377 1584.873524 1586.754998 1592.012304 1597.492101
58.080000 1583.869418 1585.018382 1587.174032 1589.777161 1596.167099 1602.816104
58.180000 1585.852382 1586.974644 1590.107690 1593.409765 1602.929621 1607.728650
58.210000 1586.487174 1587.612061 1590.889480 1594.320825 1604.198777 1608.832548
58.250000 1587.438781 1588.469335 1592.607863 1595.614758 1605.819979 1609.901193
58.280000 1588.087272 1589.207087 1593.525359 1596.537805 1607.031152 1610.775395
58.310000 1588.705748 1589.884543 1594.477842 1597.459925 1607.858016 1611.444422
58.360000 1589.888711 1590.920110 1596.134634 1599.116975 1609.843708 1612.791772
58.380000 1590.324143 1591.333640 1596.666856 1599.697190 1610.414305 1613.382648
58.430000 1591.374382 1592.441037 1599.174031 1601.257250 1611.851815 1614.933007
58.480000 1592.321423 1593.482987 1602.230922 1602.763551 1613.167081 1616.614349
58.530000 1593.317344 1594.648548 1605.675528 1604.267515 1614.509773 1618.338483
58.560000 1594.002809 1595.469602 1606.630067 1605.149876 1615.291079 1619.587896
58.590000 1594.689633 1596.275119 1607.488826 1606.090574 1616.152987 1620.357880
58.680000 1596.740978 1599.493251 1610.815664 1609.602876 1618.413863 1624.304724
58.780000 1599.589627 1605.150718 1613.747933 1613.558152 1621.369091 1629.343498
58.880000 1604.002994 1610.011325 1616.567820 1617.209344 1624.752862 1634.973258
58.970000 1607.704113 1612.747818 1619.023313 1620.147904 1628.068376 1638.622732
59.070000 1610.261121 1615.372978 1622.154216 1623.500321 1633.168042 1642.753927
59.140000 1612.723529 1617.272678 1624.101197 1625.831800 1636.895883 1644.790789
59.200000 1614.010235 1619.600441 1625.598069 1627.775739 1639.830591 1646.151150
59.240000 1615.194859 1621.196519 1626.570309 1629.058712 1641.136748 1646.876145
59.290000 1616.512805 1623.541268 1627.704490 1630.549755 1642.468491 1647.724109
59.350000 1618.026119 1625.994946 1629.266466 1632.378216 1643.805877 1648.816898
59.410000 1619.777333 1628.083244 1632.427643 1634.495741 1645.048885 1649.886150
59.530000 1623.144821 1631.084420 1640.295866 1639.370231 1647.910557 1651.724218
59.615000 1625.359108 1633.710793 1643.123850 1641.847905 1649.906845 1653.507382
59.700000 1627.539207 1636.013690 1645.797369 1644.109704 1651.630455 1654.717475
59.840000 1632.326883 1640.258187 1649.060952 1647.318969 1654.202263 1657.085967
59.980000 1638.781337 1644.106587 1652.091918 1650.474982 1656.655982 1659.363195
60.083333 1641.979945 1646.311301 1654.227085 1652.618462 1658.636546 1660.910476
60.186667 1645.048943 1648.441359 1656.420785 1654.703352 1660.557229 1662.601414
60.290000 1647.530853 1650.354416 1658.604119 1656.739420 1662.373061 1663.918006
60.370000 1649.487167 1651.933546 1660.654371 1658.379390 1663.920636 1665.298474
60.410000 1650.388426 1652.780020 1661.472686 1659.262851 1664.754798 1666.018186
60.440000 1651.409570 1653.499527 1662.465380 1659.970550 1665.362476 1666.813080
60.460000 1651.888029 1653.946536 1663.106413 1660.455819 1665.905732 1667.458101
60.490000 1652.455217 1654.578811 1663.891333 1661.193936 1666.641086 1668.305969
60.520000 1653.135117 1655.270195 1664.790513 1662.018478 1667.509023 1669.731934
60.570000 1654.082531 1656.359697 1666.359832 1663.589471 1669.382267 1672.326927
60.660000 1655.953589 1657.813297 1668.648796 1666.560404 1673.325626 1678.036078
60.750000 1657.501689 1659.419276 1671.401974 1669.598467 1677.415999 1683.522041
60.862500 1659.417918 1661.073936 1675.217496 1673.207021 1682.420757 1687.707992
60.975000 1661.156937 1662.990298 1680.206188 1676.837130 1687.151845 1691.390087
61.087500 1663.121636 1664.854538 1684.991284 1680.385974 1691.120979 1694.317876
61.200000 1665.073877 1666.668226 1689.826943 1683.837982 1694.521788 1696.967077
61.280000 1666.529564 1667.956940 1693.401334 1686.372567 1696.854735 1698.701076
61.310000 1667.118534 1668.462999 1694.650734 1687.316643 1697.713300 1699.765918
61.330000 1667.481470 1668.838294 1695.426560 1687.933859 1698.305831 1700.578426
61.360000 1668.041064 1669.354948 1696.845585 1688.901808 1699.326436 1701.576137
61.380000 1668.370061 1669.763813 1697.563778 1689.521705 1699.986310 1702.416502
61.430000 1669.142095 1670.699640 1699.427889 1691.034239 1701.787358 1704.734667
61.470000 1669.954091 1671.394127 1700.471250 1692.144772 1703.126628 1705.964191
61.540000 1671.211860 1672.654815 1702.196349 1694.024959 1705.442155 1708.575445
61.670000 1673.090030 1675.323320 1705.376728 1697.372193 1709.674023 1714.233891
61.795000 1675.121212 1677.777665 1708.612313 1700.952700 1714.689517 1720.187798
61.920000 1677.353063 1680.388244 1711.952380 1704.603955 1719.590299 1725.010627
62.005000 1678.943642 1682.292725 1713.790631 1706.904013 1722.585081 1727.743840
62.090000 1680.725273 1684.135036 1715.935514 1709.157685 1725.601137 1730.857284
62.160000 1682.421838 1685.504397 1718.054390 1710.984978 1727.795398 1733.064806
62.220000 1684.030753 1686.930735 1720.003795 1712.569499 1729.539122 1734.735165
62.260000 1684.998740 1688.059744 1721.159527 1713.640860 1730.489476 1735.571965
62.320000 1686.352400 1689.467466 1722.874421 1715.187455 1732.085471 1737.027859
62.400000 1687.797693 1691.254857 1724.900484 1717.273474 1734.298564 1738.832576
62.480000 1689.559701 1693.125618 1727.749693 1719.418574 1736.531776 1741.063628
62.590000 1692.215728 1695.466701 1731.921663 1722.412617 1739.816680 1743.479638
62.700000 1694.435187 1698.155579 1736.185660 1725.415604 1742.635963 1746.850697
62.830000 1697.908206 1702.219457 1741.591811 1729.594902 1747.032199 1751.571639
62.910000 1699.457323 1704.922965 1744.295909 1731.923017 1749.637372 1753.885656
62.950000 1701.076050 1706.453057 1745.834757 1733.090463 1750.569527 1754.768399
63.030000 1703.664663 1709.295606 1748.720401 1735.724434 1753.345838 1757.178286
63.080000 1704.968107 1710.869445 1750.479097 1737.190662 1754.762498 1758.677819
63.140000 1707.674228 1712.738045 1752.038174 1738.828543 1756.468244 1760.583956
63.220000 1710.400324 1715.009067 1754.118929 1741.004886 1758.463034 1763.010000
63.320000 1714.139178 1717.814567 1756.777943 1743.886695 1761.821104 1766.404334
63.440000 1717.067801 1720.699278 1759.465937 1746.934094 1765.475304 1770.055180
63.580000 1720.113904 1725.234123 1762.202461 1750.314004 1768.860024 1773.516719
63.700000 1722.115763 1729.684465 1764.680823 1753.175802 1771.371944 1776.847342
63.820000 1725.152506 1733.866393 1767.896616 1756.145471 1774.409943 1779.250038
63.960000 1729.538442 1737.303924 1771.774749 1759.514977 1778.062994 1782.953433
64.080000 1733.915727 1739.871809 1775.437790 1762.686416 1781.321641 1786.064810
64.190000 1736.922759 1742.585718 1779.196096 1765.775867 1785.384986 1788.470194
64.280000 1739.156292 1744.287158 1781.720228 1767.987166 1787.796503 1790.847268
64.350000 1741.312231 1745.612038 1783.398588 1769.544646 1789.370342 1792.305441
64.420000 1743.124823 1746.722137 1784.899328 1770.936898 1790.592171 1793.687423
64.540000 1745.782817 1748.477160 1787.728645 1773.032980 1792.678617 1795.417501
64.650000 1747.574448 1750.111012 1789.903411 1774.936970 1794.655479 1797.237646
64.760000 1749.255905 1751.998033 1792.037808 1776.927992 1796.578636 1799.395930
64.860000 1751.108267 1753.659602 1793.861667 1778.734577 1798.442305 1800.993733
64.960000 1752.856007 1755.462870 1795.475465 1780.636439 1800.277549 1802.837674
65.080000 1754.816296 1757.561174 1798.088665 1783.020990 1802.323304 1805.157743
65.160000 1756.131575 1759.521189 1799.837464 1784.772354 1803.900713 1806.785363
65.250000 1758.049499 1761.567110 1801.697190 1786.694237 1805.411489 1808.280136
65.350000 1760.174486 1764.011385 1803.410580 1788.769195 1807.162277 1810.024318
65.440000 1762.015332 1766.389831 1804.886099 1790.692663 1808.711838 1811.785087
65.540000 1764.071328 1769.218778 1806.461553 1792.801733 1810.383384 1813.576102
65.650000 1767.322559 1771.923318 1808.084151 1795.107922 1811.974841 1815.087790
65.750000 1770.062326 1775.526307 1809.568001 1797.263700 1813.631319 1816.635010
65.855000 1773.490146 1779.368727 1811.076182 1799.754045 1815.447437 1819.092525
65.960000 1777.073199 1782.824598 1812.675814 1802.158479 1817.168728 1820.967929
66.060000 1780.518282 1786.233407 1814.513868 1804.527671 1818.909443 1822.653888
66.160000 1784.913881 1790.025574 1816.289804 1807.178655 1820.565024 1824.064431
66.250000 1788.519605 1793.289256 1817.788483 1809.435188 1822.179359 1825.559187
66.350000 1791.954917 1797.118247 1819.570652 1812.092279 1824.226464 1827.256766
66.450000 1796.104668 1800.589992 1821.038541 1814.496911 1826.164459 1829.258321
66.560000 1799.317032 1803.349421 1822.688469 1816.736104 1828.074124 1830.939973
66.650000 1802.057786 1805.146405 1824.115191 1818.349234 1829.419486 1832.174981
66.740000 1803.804537 1806.716380 1825.458893 1819.825143 1830.741637 1833.686771
66.850000 1805.605036 1808.576699 1827.333521 1821.486600 1832.408961 1835.611836
66.940000 1807.173426 1809.836389 1828.387108 1822.861596 1833.874478 1836.923787
67.030000 1808.579495 1811.177037 1829.593095 1824.224780 1835.390573 1837.817261
67.140000 1810.425042 1812.791006 1830.946208 1825.933430 1837.043187 1839.301746
67.240000 1811.928281 1814.537636 1832.189809 1827.535459 1838.419388 1840.506411
67.340000 1813.392248 1816.501347 1833.516166 1829.235125 1839.708115 1841.613065
67.410000 1814.278920 1817.940335 1834.475082 1830.445743 1840.597128 1842.412215
67.520000 1815.934205 1820.612116 1835.838012 1832.319958 1841.978328 1843.586307
67.560000 1816.697264 1821.379682 1836.361663 1833.025128 1842.556606 1844.174161
67.645000 1818.904331 1823.127082 1837.638308 1834.416694 1843.522861 1845.122134
67.730000 1820.692443 1824.779595 1838.921204 1835.768769 1844.576751 1846.153984
67.850000 1822.830632 1827.257174 1840.699467 1837.734655 1845.882438 1847.537077
67.950000 1824.439188 1829.291458 1842.308706 1839.300647 1847.034393 1848.644140
68.050000 1826.183326 1831.241967 1843.797156 1840.824172 1848.160511 1849.840763
68.150000 1827.905632 1833.512374 1845.821663 1842.472852 1849.383400 1850.857053
68.250000 1829.243339 1835.395796 1847.790829 1844.011982 1850.539004 1851.812505
68.350000 1830.851899 1837.342439 1849.341112 1845.537368 1851.667638 1852.928772
68.450000 1832.584234 1839.126582 1850.580888 1847.136048 1852.831690 1853.993527
68.550000 1834.882992 1840.991115 1851.914982 1848.676691 1853.891214 1854.973230
68.650000 1837.046402 1843.182026 1853.154754 1850.276267 1854.963085 1856.020868
68.750000 1839.289296 1845.719845 1854.398735 1851.894848 1856.047777 1857.051792
68.850000 1841.543045 1848.976928 1855.631098 1853.602341 1857.062221 1858.056248
68.950000 1844.348060 1851.960333 1856.898310 1855.342600 1858.183839 1859.213640
69.050000 1846.147597 1854.703431 1858.176384 1856.992311 1859.366698 1860.401063
69.150000 1849.055979 1856.989856 1859.393490 1858.655088 1860.576251 1861.817721
69.250000 1852.374400 1858.914030 1860.569174 1860.141617 1861.722251 1863.076782
69.350000 1858.103995 1860.480111 1861.753732 1861.613081 1862.947393 1864.371927
69.450000 1859.609733 1861.692824 1862.867257 1862.861446 1864.133299 1865.683977
69.550000 1861.237738 1862.802003 1864.080206 1864.094601 1865.398097 1867.403573
69.650000 1862.573992 1863.950716 1865.195443 1865.341849 1866.731270 1868.935477
69.750000 1863.765402 1865.079449 1866.396378 1866.639085 1868.268751 1870.444956
69.850000 1864.919391 1866.286217 1867.822267 1868.107561 1870.053487 1872.679154
69.950000 1866.297239 1867.653975 1869.377034 1869.713400 1871.909944 1874.746927
70.050000 1867.465992 1868.997855 1870.990082 1871.456834 1873.984039 1877.221955
70.150000 1868.720977 1870.524596 1872.904886 1873.360513 1876.292958 1880.602554
70.250000 1870.016007 1872.110689 1874.880171 1875.320638 1878.640906 1883.215356
70.350000 1871.567832 1873.848106 1876.886380 1877.335320 1880.886204 1885.291486
70.450000 1873.130727 1875.732920 1879.112846 1879.489257 1883.238424 1887.522248
70.550000 1874.915408 1877.691625 1881.311977 1881.549423 1885.948388 1889.416546
70.650000 1876.484845 1879.627471 1883.222129 1883.491639 1887.806840 1891.026357
70.750000 1878.143788 1881.365966 1885.108549 1885.328057 1889.449865 1892.480555
70.850000 1880.393860 1883.194571 1886.942245 1887.070758 1891.156466 1893.929232
70.950000 1881.831885 1884.980896 1888.806960 1888.802901 1892.729673 1895.418909
71.050000 1883.688682 1887.027695 1890.463541 1890.440558 1894.257966 1896.618621
71.150000 1885.307698 1888.741601 1892.195181 1892.143001 1895.800838 1898.006439
71.250000 1887.037638 1890.651983 1894.030275 1893.986257 1897.394853 1899.757335
71.350000 1888.869494 1892.755968 1896.056187 1895.899704 1899.205386 1901.723308
71.450000 1891.328328 1895.004118 1897.925220 1897.987221 1901.183104 1903.458048
71.550000 1893.985015 1897.507927 1900.105003 1900.188929 1903.067691 1906.406550
71.650000 1896.552877 1899.591612 1902.175625 1902.274189 1905.100024 1908.676859
71.750000 1899.299390 1901.403087 1904.221399 1904.283309 1907.004621 1910.819103
71.850000 1901.077378 1903.336668 1906.221697 1906.406754 1909.436503 1912.918698
71.950000 1902.833029 1905.239527 1908.307373 1908.500752 1911.743884 1915.187403
72.050000 1904.642044 1907.349144 1910.498571 1910.764393 1914.371643 1917.983581
72.140000 1906.378784 1909.269532 1912.515191 1912.779799 1916.444907 1920.185265
72.250000 1908.416911 1911.546999 1915.055256 1915.207546 1919.078121 1922.355043
72.350000 1910.400637 1913.974338 1917.648867 1917.555442 1921.303087 1924.017237
72.450000 1912.923843 1916.421676 1920.182885 1920.006885 1923.495984 1926.533922
72.550000 1915.108320 1918.831566 1922.490838 1922.210262 1925.465794 1928.394244
72.650000 1916.974413 1921.308127 1924.553377 1924.253948 1927.393804 1929.942180
72.750000 1919.468965 1923.419278 1926.317000 1926.209405 1929.206563 1931.709165
72.850000 1921.747319 1925.221997 1928.067626 1928.006625 1930.859807 1933.308774
72.950000 1923.342394 1926.911500 1929.750630 1929.692365 1932.578106 1934.848127
73.050000 1925.316029 1928.684947 1931.496611 1931.407319 1934.215508 1936.410976
73.150000 1927.750886 1930.572966 1933.262713 1933.194164 1935.968409 1937.854843
73.250000 1929.797901 1932.437134 1935.157651 1935.044534 1937.746380 1939.389379
73.350000 1932.066601 1934.527359 1937.346436 1937.096610 1939.446503 1941.082782
73.450000 1934.448333 1937.347230 1939.800314 1939.613887 1941.323978 1944.729584
73.550000 1937.774142 1941.227947 1943.128391 1943.614599 1946.453205 1950.438898
73.650000 1941.429173 1943.484507 1946.859513 1947.077049 1950.717656 1954.162116
73.750000 1943.408158 1945.980218 1950.192744 1950.242841 1954.074743 1957.755197
73.850000 1945.333275 1949.035225 1953.384788 1953.053315 1956.645619 1960.660842
73.950000 1947.094695 1951.704010 1955.730593 1955.467769 1958.990391 1962.971102
74.050000 1949.730874 1954.217154 1957.926590 1957.857833 1961.685307 1965.430349
74.150000 1952.019605 1956.466785 1960.102232 1960.121598 1964.007404 1967.543494
