depth(m) lower_95(kyr) lower_68(kyr) median(kyr) mean(kyr) upper_68(kyr) upper_95(kyr)
40.050000 1398.240812 1399.420264 1400.360012 1400.326680 1401.255600 1402.081143
40.120000 1400.947566 1402.178876 1403.650534 1403.968901 1405.749886 1408.608714
40.210000 1403.735505 1405.687730 1408.852616 1408.999730 1412.233013 1415.482669
40.340000 1407.913347 1410.614135 1415.485435 1415.403054 1419.799652 1423.171601
40.480000 1413.949309 1417.406523 1422.159188 1421.942226 1426.068846 1429.593400
40.600000 1419.533628 1424.181848 1428.259237 1427.892813 1431.481436 1434.960194
40.690000 1424.765501 1428.505764 1432.163944 1432.024809 1435.547805 1438.783722
40.770000 1428.382863 1431.968260 1435.488330 1435.379532 1438.675305 1441.916834
40.780000 1429.014961 1432.438116 1435.864229 1435.802029 1439.109411 1442.269641
40.860000 1432.030986 1435.480586 1438.916399 1438.839596 1442.090945 1445.049703
40.970000 1435.989744 1439.307553 1442.889375 1442.720675 1446.019505 1448.412633
41.045000 1439.117038 1442.355708 1445.888023 1445.695511 1448.678976 1451.611986
41.120000 1442.856388 1446.266030 1449.301739 1449.071285 1451.531919 1454.597913
41.260000 1453.317260 1454.853211 1457.539010 1458.053429 1461.650051 1465.120163
41.340000 1456.613323 1459.656081 1464.056483 1463.879513 1467.513827 1470.962519
41.400000 1460.713249 1467.139411 1471.160598 1470.875441 1474.913975 1478.828963
41.530000 1471.118007 1474.762962 1479.954841 1480.108601 1485.561778 1488.767058
41.570000 1473.361582 1477.231392 1482.522018 1482.563136 1487.943891 1490.416517
41.660000 1477.741855 1483.094800 1488.939227 1488.002947 1492.384166 1494.844246
41.750000 1482.354778 1489.696975 1493.364005 1492.686196 1495.913701 1498.457636
41.850000 1487.325352 1493.200072 1496.264896 1495.942790 1499.027488 1501.064021
41.950000 1493.610449 1496.448353 1498.957261 1498.979979 1501.749961 1503.812909
42.050000 1496.438617 1499.163054 1501.688330 1501.681439 1504.325402 1506.468047
42.150000 1499.364232 1502.027213 1504.491803 1504.442134 1506.997977 1509.404121
42.250000 1502.468938 1504.995703 1507.423693 1507.439252 1509.659387 1512.948508
42.320000 1505.084894 1507.552351 1509.914179 1510.185542 1512.292480 1517.805717
42.380000 1507.578288 1510.280194 1512.709434 1513.198619 1516.479248 1521.226528
42.440000 1510.005952 1512.469839 1515.642510 1516.118304 1520.133274 1524.039552
42.510000 1512.774344 1515.160986 1519.366782 1519.438765 1523.487682 1526.532952
42.610000 1516.099013 1519.768257 1524.208257 1523.796558 1527.399904 1529.802230
42.710000 1520.675592 1525.019856 1528.244847 1527.877993 1530.623037 1532.564742
42.850000 1528.055098 1530.819525 1532.811617 1532.737159 1534.742545 1536.575640
42.925000 1530.306622 1532.854979 1534.757639 1534.760082 1536.812013 1538.602445
43.000000 1532.475870 1534.739420 1536.587794 1536.635558 1538.674489 1540.477844
43.130000 1535.571209 1537.584997 1539.769856 1539.717425 1541.795278 1543.899115
43.140000 1535.865684 1537.854328 1540.051929 1540.009110 1542.053559 1544.184141
43.240000 1538.586563 1540.622668 1542.496878 1542.608459 1544.656422 1546.694887
43.320000 1540.757287 1542.849624 1544.884747 1544.956642 1546.974460 1549.483655
43.390000 1543.328525 1545.176933 1547.211410 1547.417818 1549.650357 1553.524725
43.460000 1545.947184 1547.998796 1550.446243 1550.953791 1554.019554 1558.283400
43.520000 1547.920200 1550.444519 1553.661350 1553.966544 1557.598557 1560.755647
43.605000 1550.237247 1553.878737 1558.491248 1557.977707 1561.517270 1563.653991
43.690000 1553.057116 1558.131507 1562.586479 1561.658998 1564.616312 1566.189532
43.820000 1558.722319 1563.667047 1566.680659 1566.139825 1568.650176 1570.423448
43.895000 1562.880922 1566.852289 1569.244214 1569.057343 1571.400535 1573.847923
43.970000 1567.005811 1569.649335 1571.696674 1571.750969 1573.895232 1577.028433
44.100000 1571.446521 1573.518913 1575.298476 1575.688617 1577.998174 1581.513325
44.200000 1574.144725 1576.220012 1578.412882 1578.846438 1581.617507 1585.525176
44.280000 1576.662315 1578.652976 1581.509726 1581.847468 1584.676382 1590.025515
44.350000 1579.012248 1581.224267 1584.722888 1585.010518 1588.769644 1593.234379
44.430000 1581.651849 1584.122104 1588.372792 1588.430878 1592.514985 1595.801152
44.520000 1584.524827 1587.404952 1592.406358 1592.004289 1596.030674 1598.521065
44.620000 1587.719662 1591.742928 1596.432422 1595.747466 1599.056270 1601.339203
44.730000 1591.684017 1596.573627 1599.821113 1599.458892 1602.225069 1605.042561
44.830000 1595.934038 1599.882060 1602.488395 1602.480211 1605.081778 1608.973414
44.940000 1600.268944 1602.816144 1605.337644 1605.934696 1608.786501 1616.487833
45.060000 1603.918723 1606.422544 1609.398134 1610.340975 1614.475948 1621.605859
45.190000 1607.515644 1610.448363 1614.260224 1615.447777 1621.254992 1626.877603
45.265000 1609.572601 1612.848200 1617.759224 1618.483600 1624.695458 1629.658796
45.340000 1612.120490 1615.695657 1621.982785 1621.760970 1627.625853 1632.242897
45.455000 1616.147139 1620.188647 1627.788889 1626.852843 1632.354093 1635.813892
45.570000 1620.475179 1626.936994 1632.892636 1631.988213 1636.512953 1639.214623
45.650000 1623.170192 1631.461147 1636.170806 1635.280000 1639.204630 1641.531398
45.740000 1628.939887 1635.897999 1639.538563 1638.792660 1641.998733 1644.362458
45.830000 1634.059460 1640.314348 1642.814988 1642.430946 1644.961271 1647.997006
45.920000 1639.853373 1643.432752 1645.665805 1645.623991 1648.139674 1650.928619
46.040000 1644.660074 1646.808342 1649.054999 1649.178984 1651.671933 1653.989146
46.150000 1647.251550 1649.443641 1651.938337 1652.022273 1654.576986 1657.003144
46.260000 1649.824712 1652.049338 1654.696495 1654.807530 1657.385722 1660.634875
46.350000 1651.883255 1654.173249 1657.021312 1657.187099 1660.276602 1663.398517
46.430000 1653.776567 1656.197660 1659.508196 1659.545705 1662.859861 1665.783678
46.500000 1655.866713 1658.498096 1662.026494 1661.957600 1665.178014 1668.593965
46.570000 1657.988144 1661.050781 1664.616778 1664.568925 1668.059544 1671.635551
46.640000 1660.026061 1663.779716 1667.505867 1667.604245 1671.490599 1675.426889
46.730000 1663.787506 1668.017076 1672.060866 1672.148433 1676.124791 1681.291742
46.850000 1669.595365 1673.120501 1677.530754 1677.776971 1682.569519 1687.247050
46.925000 1671.923458 1676.114413 1680.843175 1681.034536 1686.113340 1690.458598
47.000000 1674.700531 1679.278483 1684.224606 1684.197175 1688.977136 1693.309684
47.140000 1679.714833 1685.991729 1690.319040 1690.098992 1694.171498 1698.044240
47.250000 1686.726286 1691.061001 1694.443590 1694.296145 1697.721135 1701.368492
47.330000 1690.299014 1694.182056 1697.008998 1696.959563 1700.096164 1703.313037
47.380000 1692.364648 1696.205476 1698.546488 1698.641504 1701.570685 1704.404953
47.430000 1694.129724 1698.347502 1700.392074 1700.452448 1703.097854 1705.418658
47.510000 1698.617098 1700.864200 1703.082578 1702.999573 1705.305457 1706.873387
47.600000 1701.256788 1703.308515 1705.758846 1705.479124 1707.457952 1708.991876
47.620000 1701.648457 1703.983638 1706.362123 1706.049639 1708.045204 1709.461256
47.690000 1703.596281 1706.041007 1708.177932 1707.982544 1709.766434 1711.803591
47.700000 1703.862580 1706.373034 1708.411090 1708.258391 1710.040078 1712.109981
47.760000 1705.192971 1707.890640 1709.855309 1709.786177 1711.533018 1714.218084
47.830000 1706.793610 1709.437558 1711.231677 1711.343270 1713.137569 1717.076898
47.920000 1708.576780 1710.997522 1712.899355 1713.097559 1714.965755 1719.765758
48.030000 1710.950057 1712.914779 1714.780169 1715.190275 1717.206034 1722.260577
48.170000 1713.491001 1715.379456 1717.156234 1717.731499 1720.267979 1725.260696
48.290000 1716.194546 1717.727387 1719.409392 1720.027435 1722.564062 1727.387228
48.390000 1718.039811 1719.617222 1721.473248 1722.150682 1725.108126 1729.267474
48.470000 1719.959697 1721.320795 1723.502537 1724.115778 1727.240674 1730.650778
48.540000 1721.379515 1722.879712 1725.371311 1725.832396 1728.950808 1732.069218
48.630000 1722.898509 1725.037155 1727.716366 1728.016847 1731.190364 1733.774778
48.710000 1724.418919 1726.815622 1729.749398 1729.858438 1733.012952 1735.104214
48.820000 1726.362097 1729.385948 1732.262405 1732.266284 1735.181654 1737.084523
48.920000 1728.554444 1731.643345 1734.417634 1734.338343 1736.967750 1738.913993
49.020000 1731.357465 1734.050915 1736.415487 1736.373322 1738.673408 1740.617720
49.120000 1733.836050 1736.060650 1738.333964 1738.331670 1740.529001 1742.208931
49.210000 1735.969934 1737.879344 1740.285091 1740.152646 1742.231388 1743.806341
49.300000 1737.534483 1739.728967 1742.188900 1742.030937 1743.988524 1745.924763
49.410000 1739.811370 1741.947690 1744.351476 1744.371594 1746.492420 1749.323895
49.520000 1741.873852 1743.952089 1746.266888 1746.532035 1748.982388 1752.237739
49.630000 1743.840523 1745.882729 1748.317233 1748.702171 1751.488846 1754.743024
49.725000 1745.683227 1747.689712 1750.094995 1750.631401 1753.642240 1756.976503
49.820000 1747.640258 1749.567810 1751.966704 1752.635730 1755.892714 1759.418788
49.910000 1749.567831 1751.606423 1754.356768 1754.911708 1758.361190 1762.574809
50.000000 1751.564533 1753.836732 1757.133803 1757.423310 1760.936634 1764.909143
50.100000 1754.078908 1756.598203 1760.151011 1760.416191 1763.798823 1767.837606
50.200000 1756.415795 1759.571424 1763.088263 1763.289362 1766.813412 1770.754974
50.310000 1759.128480 1762.172053 1765.905118 1766.178438 1769.984519 1773.890521
50.410000 1761.597580 1764.813076 1768.331870 1768.656823 1772.548881 1776.240029
50.510000 1763.897458 1767.299890 1770.814823 1771.175042 1775.055785 1778.801074
50.600000 1766.746070 1769.741176 1773.254234 1773.578590 1777.401402 1781.293108
50.700000 1769.542197 1772.378421 1776.303137 1776.429510 1780.230870 1784.514111
50.810000 1772.795941 1776.308285 1780.130214 1780.302861 1784.636939 1787.355525
50.910000 1776.632371 1781.119695 1785.388874 1784.988780 1788.536475 1791.119058
51.020000 1782.565992 1787.049328 1790.064293 1789.859101 1792.496313 1794.939563
51.070000 1784.244135 1789.177737 1791.670705 1791.503147 1793.927227 1796.433138
51.200000 1788.940282 1792.425466 1794.783396 1795.196224 1797.654502 1804.058368
51.330000 1792.081049 1795.335247 1797.926961 1799.391315 1802.032599 1818.240413
51.460000 1794.908702 1798.031567 1801.134666 1804.014636 1811.537881 1826.688670
51.590000 1798.096894 1800.977870 1804.569339 1809.120267 1822.278345 1836.462733
51.695000 1801.009804 1803.760917 1807.582019 1813.098603 1828.558853 1844.640778
51.800000 1803.772839 1806.704601 1810.352980 1817.083430 1835.737405 1850.343967
51.880000 1805.460576 1808.952290 1812.362933 1819.807833 1840.120680 1854.142162
51.970000 1808.147522 1811.417203 1814.750201 1823.069433 1846.583634 1857.777298
52.100000 1811.466467 1815.420591 1817.985918 1828.411196 1858.813219 1865.937154
52.170000 1812.808651 1817.350681 1819.896422 1830.859938 1862.434758 1869.485060
52.250000 1814.813436 1819.181743 1822.329779 1833.612315 1866.303127 1872.878250
52.340000 1816.724159 1821.335138 1824.804699 1836.477286 1869.681159 1876.399687
52.440000 1820.212471 1823.449424 1827.370909 1839.505945 1872.893017 1878.836164
52.560000 1823.200680 1826.339400 1831.419073 1843.192260 1876.680175 1881.793576
52.640000 1825.181135 1828.344499 1834.419659 1845.675582 1879.036838 1883.788298
52.720000 1827.443578 1830.408033 1837.488796 1848.207038 1881.389492 1885.727001
52.800000 1829.662494 1832.692467 1840.588346 1850.800876 1883.628175 1887.334628
52.880000 1832.000253 1835.376715 1843.727146 1853.453879 1885.758971 1889.240858
52.955000 1833.941907 1837.905718 1846.542607 1855.904549 1887.517066 1891.100651
53.030000 1836.144486 1840.460428 1849.172831 1858.404395 1889.454577 1892.586840
53.150000 1839.859794 1845.239099 1853.182320 1862.528381 1892.296929 1894.764623
53.260000 1844.021884 1850.985939 1856.180671 1866.359961 1894.945181 1897.093897
53.350000 1848.929880 1855.659127 1858.676412 1869.487177 1897.186808 1898.774428
53.430000 1854.695640 1858.758469 1860.981294 1872.177731 1899.090795 1900.538069
53.500000 1858.509147 1860.504554 1862.665654 1874.002250 1900.549223 1902.085153
53.580000 1860.454550 1862.157679 1864.348298 1875.781711 1902.175195 1903.893963
53.650000 1861.946424 1863.530407 1865.937699 1877.306561 1903.756546 1905.354850
53.720000 1863.378625 1864.959837 1867.867153 1878.920654 1905.276603 1906.736960
53.730000 1863.617823 1865.189148 1868.170927 1879.201810 1905.548440 1906.938639
53.800000 1865.256430 1867.048894 1870.753771 1881.407177 1907.132861 1909.222841
53.890000 1867.498056 1869.677244 1874.602684 1884.559188 1909.419682 1912.690365
53.970000 1869.863450 1872.852386 1879.628995 1888.147728 1911.476174 1916.224842
54.060000 1872.632682 1876.982577 1886.240433 1892.638239 1914.103095 1919.088900
54.150000 1875.559409 1881.754225 1893.554729 1897.557463 1917.148339 1922.834096
54.240000 1878.234617 1886.749001 1900.307710 1902.704162 1920.135312 1925.942781
54.343333 1883.433628 1894.795254 1909.455375 1909.510044 1923.945142 1930.997074
54.446667 1887.396193 1904.280562 1918.228374 1916.141803 1928.204510 1934.655477
54.550000 1892.010528 1912.892778 1925.297996 1922.379077 1932.580400 1937.615488
54.656667 1897.960019 1919.544640 1931.006099 1928.374504 1937.283615 1941.501476
54.763333 1905.648945 1926.914736 1936.567677 1933.972690 1941.036435 1945.171860
54.870000 1913.887084 1935.270253 1941.452375 1939.242936 1944.571183 1948.247781
54.980000 1925.731307 1941.342563 1944.608486 1943.515497 1947.504007 1951.407030
55.080000 1937.911363 1944.357145 1947.185868 1946.586471 1950.247111 1954.008837
55.180000 1942.609223 1946.886244 1949.745937 1949.314254 1953.115156 1956.816143
55.290000 1944.778380 1949.423134 1952.654132 1952.241026 1956.337516 1959.967985
55.400000 1947.129162 1951.905231 1955.520976 1955.060049 1959.458838 1962.264493
55.510000 1950.130398 1954.673979 1958.703337 1958.026913 1962.311216 1965.142733
55.630000 1953.219714 1957.859089 1962.077099 1961.308093 1965.230581 1968.653169
55.735000 1956.110496 1961.030359 1965.005692 1964.292344 1967.985511 1971.251525
55.840000 1959.610245 1964.498020 1968.043201 1967.275256 1970.798553 1973.995449
55.950000 1962.753480 1967.687904 1970.811847 1970.214023 1973.459984 1976.574525
56.050000 1966.587878 1970.438274 1973.161463 1972.794609 1975.962520 1979.253123
56.150000 1969.270457 1972.795255 1975.501449 1975.172227 1978.336244 1981.677384
56.260000 1972.228867 1975.227979 1977.786683 1977.530910 1980.563099 1983.801455
56.370000 1974.184790 1977.603320 1980.055885 1979.805151 1982.686167 1986.195798
56.490000 1976.941683 1980.056535 1982.470434 1982.259557 1985.183094 1988.731047
56.620000 1980.031997 1982.709569 1985.084511 1984.973164 1987.944596 1992.449127
56.730000 1982.605327 1985.238156 1987.661774 1987.738314 1990.804016 1995.694880
56.840000 1985.719518 1988.803551 1991.483192 1991.427862 1994.821773 1998.995716
56.940000 1988.402490 1992.186485 1995.299226 1994.817933 1998.053198 2001.695843
57.030000 1991.193422 1996.037345 1998.719042 1998.289374 2001.656705 2003.889264
57.120000 1994.873795 1999.367162 2001.844045 2001.387040 2004.430727 2006.177927
57.200000 1997.881616 2001.549420 2004.163024 2003.545239 2006.270244 2008.154066
57.290000 2000.579965 2003.791762 2006.365365 2005.762445 2008.100537 2011.185350
57.390000 2002.947546 2006.627779 2008.712354 2008.351524 2010.735500 2014.973535
57.490000 2005.124348 2009.173410 2011.033041 2010.857417 2013.382214 2017.064881
57.590000 2007.734250 2011.509412 2013.589038 2013.376743 2016.145777 2019.222039
57.700000 2010.358862 2014.041006 2016.198670 2016.092720 2019.303808 2021.341797
57.820000 2013.890561 2016.956624 2019.265096 2019.132477 2022.273151 2024.159422
57.920000 2016.404417 2019.135029 2021.933493 2021.527696 2024.450867 2026.504792
58.030000 2018.692888 2021.629018 2024.722193 2024.020620 2026.646212 2028.689428
58.125000 2020.785192 2023.891353 2026.805689 2026.142788 2028.693401 2030.839523
58.220000 2022.582299 2026.100639 2028.948854 2028.211376 2030.584013 2032.552143
58.300000 2023.884586 2028.277453 2030.664266 2030.058730 2032.296886 2034.329521
58.310000 2024.435392 2028.535510 2030.899782 2030.317954 2032.524280 2034.551972
58.390000 2026.940251 2030.878724 2032.801050 2032.405580 2034.545867 2037.461883
58.480000 2029.802234 2033.156843 2035.083348 2035.088072 2037.786374 2041.617441
58.570000 2032.784081 2035.436384 2037.438744 2037.678676 2040.972991 2044.018538
58.670000 2035.463117 2037.526238 2040.146767 2040.255579 2043.763706 2046.312457
58.770000 2037.334430 2039.531362 2042.568713 2042.496683 2045.825168 2048.381416
58.880000 2039.351533 2041.663065 2044.989913 2044.764770 2048.106824 2050.507418
59.000000 2041.573592 2044.256653 2047.311404 2047.217634 2050.517818 2053.249945
59.120000 2044.010570 2046.477973 2049.975060 2049.743903 2052.916359 2055.809281
59.230000 2046.104269 2048.766034 2052.287671 2052.077636 2055.283027 2058.035720
59.340000 2048.120322 2051.286109 2054.771282 2054.491953 2057.615716 2060.476885
59.440000 2050.155720 2053.694266 2057.119155 2056.769364 2059.614217 2062.426485
59.530000 2052.720157 2056.098949 2059.117607 2058.847695 2061.588587 2064.064471
59.620000 2055.600418 2058.586599 2061.188413 2061.055763 2063.559435 2066.059984
59.710000 2058.108983 2061.041968 2063.248721 2063.252707 2065.707546 2068.385449
59.810000 2061.254560 2063.224479 2065.422369 2065.571834 2068.067811 2070.532197
59.840000 2062.067912 2064.143501 2066.176115 2066.359534 2068.739960 2071.261086
59.910000 2063.858148 2065.627099 2067.783142 2068.012672 2070.590657 2072.976856
59.950000 2064.794539 2066.550683 2068.720091 2068.972001 2071.434352 2073.958424
60.020000 2066.343259 2068.114442 2070.450574 2070.534559 2072.938592 2075.741496
60.060000 2067.233059 2068.926431 2071.426384 2071.426631 2073.819920 2076.492232
60.170000 2069.073610 2071.119702 2073.411946 2073.592977 2076.167224 2078.674881
60.300000 2071.368919 2073.403058 2076.027638 2076.158509 2078.879686 2081.760903
60.420000 2073.585886 2075.804916 2078.556255 2078.804941 2081.832556 2084.982508
60.520000 2075.661319 2078.122833 2081.169834 2081.438105 2084.768477 2087.995472
60.610000 2078.126057 2080.736082 2084.044427 2084.303783 2087.628008 2091.560127
60.700000 2080.999760 2084.145603 2087.784378 2087.936737 2091.125321 2097.198113
60.790000 2084.389279 2088.138042 2091.765063 2092.120150 2095.419129 2103.720143
60.900000 2089.198851 2092.863384 2096.353329 2096.902484 2100.304965 2110.257398
61.000000 2092.864092 2096.357824 2100.035276 2101.031242 2105.796825 2114.444966
61.090000 2095.155953 2099.297337 2103.086031 2104.624470 2111.622254 2118.628422
61.100000 2095.447019 2099.691734 2103.477851 2104.993224 2112.020350 2118.993039
61.190000 2098.461303 2103.135316 2106.828728 2108.517826 2116.863477 2121.985144
61.270000 2100.896912 2105.764022 2109.988173 2111.732186 2119.954525 2124.943656
61.360000 2104.076092 2109.019909 2114.317725 2115.434310 2123.673424 2128.287430
61.470000 2108.935679 2112.987613 2119.813209 2120.115728 2127.454949 2132.614667
61.610000 2113.609382 2119.748257 2126.825604 2126.212370 2132.459707 2137.683093
61.690000 2117.302794 2124.185961 2130.108600 2129.893481 2135.647610 2140.677516
61.770000 2120.799068 2128.601446 2133.969608 2133.630060 2138.904376 2143.632778
61.885000 2128.740969 2134.591900 2139.062561 2138.933491 2143.159997 2148.624081
62.000000 2137.515999 2141.160602 2144.411644 2144.654058 2147.828959 2155.893927
62.070000 2144.165774 2146.670890 2149.152044 2149.906500 2153.613643 2159.116828
62.120000 2146.808147 2148.997337 2152.191395 2152.725994 2156.759884 2161.170884
62.170000 2148.678030 2151.448588 2155.157643 2155.491896 2159.706367 2163.736687
62.230000 2150.480346 2154.525237 2158.552904 2158.711296 2163.044482 2166.743345
