depth(m) lower_95.4(kyr) lower_68.2(kyr) median(kyr) mean(kyr) upper_68.2(kyr) upper_95.4(kyr)
160.240000 1399.048347 1399.361776 1399.997931 1400.006146 1400.684540 1400.958481
160.340000 1400.061474 1400.673797 1401.409687 1401.535911 1402.306782 1404.116020
160.440000 1401.438469 1401.891973 1402.937114 1403.198440 1404.741294 1406.586096
160.540000 1402.538057 1403.272106 1404.446111 1404.809426 1406.532844 1408.479126
160.640000 1403.996007 1404.687821 1406.284242 1406.465164 1408.033683 1410.012511
160.740000 1404.873306 1406.331655 1407.949670 1407.936777 1409.340378 1411.231907
160.785000 1405.244989 1406.930065 1408.708602 1408.687363 1410.000659 1412.754052
160.885000 1406.519384 1408.235098 1410.045735 1410.049845 1411.661992 1413.777681
160.985000 1407.936230 1409.859144 1411.488052 1411.516522 1413.268208 1414.946167
161.085000 1409.266484 1411.357138 1412.740360 1412.985461 1415.122460 1416.980929
161.185000 1410.334710 1412.554167 1414.240881 1414.318702 1416.131850 1417.902206
161.285000 1411.683700 1413.860458 1415.566232 1415.664715 1417.536793 1419.664359
161.385000 1414.132833 1415.200637 1417.140260 1417.230279 1419.194738 1420.813824
161.485000 1415.299377 1416.761279 1418.811289 1418.878363 1420.831321 1423.005373
161.585000 1416.500203 1418.389007 1420.765294 1420.627387 1422.691245 1424.432760
161.685000 1419.644579 1421.027076 1423.019710 1423.014123 1425.036157 1426.556605
161.785000 1421.408076 1422.958874 1424.983772 1425.011132 1427.081762 1428.388292
161.885000 1423.820534 1425.868421 1427.443615 1427.574852 1429.646886 1430.526700
161.985000 1426.090447 1427.871615 1430.252479 1429.886905 1431.708726 1433.187862
162.085000 1428.300360 1429.975166 1432.093196 1431.935366 1433.573688 1435.609810
162.185000 1429.687713 1431.929722 1433.680857 1433.754399 1435.649567 1437.761456
162.285000 1431.577141 1433.942593 1435.449682 1435.632947 1437.543240 1439.965609
162.385000 1433.214387 1435.222812 1437.198396 1437.054097 1438.848386 1441.312854
162.485000 1434.914063 1436.590606 1438.441130 1438.388680 1440.123182 1442.522391
162.585000 1436.172711 1437.421771 1439.602272 1439.566614 1441.584368 1443.665847
162.685000 1437.885349 1438.761616 1440.817622 1440.928967 1443.008614 1444.606489
162.785000 1439.249851 1440.238888 1442.373157 1442.259260 1444.264253 1445.627604
162.885000 1440.647927 1441.920307 1443.643888 1443.654312 1445.475654 1446.662955
162.985000 1442.006641 1443.272346 1444.943266 1444.984923 1446.584333 1448.377618
163.085000 1443.257172 1444.810505 1446.433336 1446.455255 1447.964935 1449.719132
163.185000 1444.093562 1446.792150 1448.483859 1448.189826 1449.436525 1451.086272
163.285000 1447.753690 1449.295925 1450.435580 1450.460914 1451.822659 1453.009785
163.385000 1450.525859 1451.428046 1452.903936 1452.753347 1453.875185 1454.957741
163.485000 1452.305347 1453.498978 1454.653438 1454.676235 1455.762592 1457.508614
163.585000 1453.806544 1454.943813 1455.961783 1456.061620 1457.226356 1459.197616
163.685000 1454.831123 1456.139298 1457.253746 1457.263789 1458.198875 1460.450206
163.785000 1455.813918 1457.164781 1458.366182 1458.422554 1459.444736 1461.136526
163.885000 1456.800315 1458.252186 1459.733681 1459.591175 1460.768862 1462.300518
163.985000 1458.560459 1459.693814 1461.025076 1460.985808 1462.279785 1463.507127
164.085000 1460.054896 1461.201713 1462.470302 1462.476070 1463.718659 1464.899027
164.185000 1461.749134 1462.898247 1464.081274 1464.148363 1465.380935 1466.922772
164.285000 1463.713693 1465.019635 1466.298613 1466.532595 1468.408456 1470.225454
164.385000 1465.015923 1466.625611 1468.733435 1468.687599 1470.455853 1472.666422
164.485000 1466.945648 1468.393475 1470.523509 1470.741185 1472.503239 1475.682264
164.585000 1468.786156 1470.823231 1472.514072 1472.622076 1474.240362 1477.006865
164.685000 1470.660115 1472.537324 1474.446348 1474.425086 1476.348540 1478.248848
164.785000 1472.626813 1473.966437 1475.793716 1476.040089 1478.159787 1480.061624
164.885000 1474.010421 1475.223939 1477.116513 1477.378478 1479.773861 1481.479948
164.985000 1475.342751 1476.375622 1478.321979 1478.605802 1481.027497 1482.593160
165.085000 1476.616919 1477.500698 1479.665015 1479.791480 1482.195243 1483.918236
165.185000 1477.669279 1479.182846 1480.916061 1481.041215 1483.074593 1484.794601
165.285000 1478.845172 1480.487103 1482.375625 1482.406425 1484.281499 1486.538125
165.385000 1479.853327 1481.887566 1484.002363 1483.850909 1485.831902 1487.533384
165.485000 1480.947975 1483.103724 1485.291796 1485.283253 1487.424747 1488.867872
165.585000 1483.107378 1484.910155 1486.984601 1487.073139 1489.396283 1490.290806
165.685000 1484.651248 1486.938402 1488.867530 1489.014204 1491.269072 1493.476190
165.785000 1487.755450 1489.072642 1491.209279 1491.440081 1493.745205 1496.791429
165.887500 1489.712463 1491.482244 1493.945270 1493.971710 1496.699173 1499.422371
165.990000 1491.648754 1493.848402 1496.201470 1496.329086 1498.854497 1500.581971
166.090000 1493.967906 1495.462548 1498.356000 1498.183367 1500.855557 1502.085693
166.190000 1496.276945 1497.338825 1499.665641 1499.903286 1502.462672 1504.811353
166.290000 1497.787635 1499.112684 1501.446560 1501.515363 1503.688707 1506.462022
166.390000 1499.225225 1500.469905 1502.994055 1503.096234 1505.292910 1507.358850
166.490000 1500.551326 1502.213166 1504.714609 1504.506413 1506.580603 1508.965650
166.620000 1502.047561 1503.870209 1506.461918 1506.440011 1509.010831 1511.001752
166.690000 1503.220794 1505.001388 1507.452817 1507.844453 1510.566026 1513.939227
166.785000 1504.489146 1507.277719 1510.127242 1510.050121 1512.846147 1517.231412
166.885000 1505.557639 1509.215499 1512.457961 1512.644525 1515.715910 1520.594019
166.985000 1506.824505 1511.485482 1515.617925 1515.319894 1519.150009 1522.599577
167.085000 1511.093749 1514.126223 1518.230923 1517.871978 1521.093960 1523.711154
167.185000 1513.495776 1517.045489 1520.905505 1520.541367 1523.446318 1525.592172
167.285000 1515.740855 1520.170596 1523.398069 1522.907623 1525.677978 1527.066689
167.385000 1518.609197 1523.034566 1525.489058 1525.122056 1527.392778 1528.544302
167.485000 1520.178557 1525.437292 1527.907557 1527.243448 1529.082642 1529.804785
167.585000 1525.486301 1527.834775 1529.278884 1529.013301 1530.374395 1531.233132
167.685000 1526.753899 1529.348792 1530.280002 1530.241377 1531.403592 1532.589389
167.785000 1528.750562 1530.338045 1531.300490 1531.278431 1532.447052 1533.530209
167.885000 1530.176681 1531.336107 1532.319160 1532.281416 1533.264557 1534.423375
167.985000 1531.515614 1532.155542 1533.212901 1533.124206 1534.073567 1534.957419
168.085000 1532.391736 1533.012396 1534.021071 1533.987841 1534.900786 1535.626314
168.185000 1533.005416 1533.878190 1534.809274 1534.820657 1535.757579 1536.462863
168.285000 1534.043533 1534.621736 1535.576452 1535.574235 1536.567069 1537.298745
168.385000 1534.697662 1535.441163 1536.264060 1536.356955 1537.442728 1538.057300
168.485000 1535.406126 1536.220651 1537.111121 1537.133963 1538.151011 1539.121368
168.585000 1536.249703 1536.889823 1537.875721 1537.910195 1539.036968 1539.807849
168.685000 1537.039653 1537.645582 1538.661041 1538.665922 1539.616762 1540.447701
168.785000 1537.636650 1538.460650 1539.387510 1539.416074 1540.441731 1541.431037
168.885000 1538.296301 1539.283456 1540.037585 1540.199929 1541.172782 1542.261279
168.985000 1539.014490 1540.070763 1540.791543 1540.943020 1541.997871 1543.117335
169.085000 1539.961399 1540.881687 1541.678479 1541.780627 1542.757763 1544.025838
169.185000 1540.679944 1541.661262 1542.594630 1542.702764 1543.828280 1545.422264
169.285000 1541.565728 1542.469566 1543.483725 1543.569711 1544.580939 1546.694885
169.385000 1542.584836 1543.262458 1544.418454 1544.574674 1545.836260 1548.006345
169.485000 1543.376675 1544.168202 1545.230809 1545.611621 1547.098552 1549.689186
169.585000 1544.179574 1545.262412 1546.251862 1546.773789 1548.646837 1550.875817
169.685000 1544.955795 1546.312053 1547.782151 1548.329267 1550.431504 1554.461065
169.785000 1546.248562 1547.547671 1549.432875 1549.823353 1552.198620 1556.230040
169.885000 1546.916088 1548.675860 1550.946879 1551.240239 1553.703404 1557.423485
169.985000 1548.048674 1550.193629 1552.570530 1552.751853 1555.474673 1558.587800
170.085000 1548.880888 1551.575440 1554.052438 1554.085196 1556.738626 1559.612844
170.185000 1549.767007 1552.700817 1555.214343 1555.420920 1558.200470 1561.443697
170.285000 1550.639087 1553.823952 1556.407938 1556.587255 1559.696682 1561.987133
170.385000 1552.250326 1554.859034 1557.827416 1557.855534 1560.701064 1563.578895
170.485000 1553.954520 1556.290990 1558.993326 1559.180612 1562.587185 1565.235160
170.585000 1555.100723 1558.145310 1560.430010 1560.818668 1564.107937 1566.744974
170.685000 1557.118708 1559.771532 1561.777410 1562.336247 1565.375351 1568.111100
170.785000 1558.059887 1560.897579 1563.714644 1563.680402 1566.273167 1569.376290
170.885000 1559.681781 1562.264022 1565.373521 1565.280646 1567.916780 1570.567009
170.985000 1561.690259 1564.065309 1567.262502 1567.075348 1569.736263 1572.236562
171.085000 1563.027461 1566.098078 1569.397398 1569.161599 1571.633595 1574.839628
171.185000 1565.846094 1568.630181 1571.495358 1571.565518 1574.870805 1576.690853
171.285000 1569.250475 1571.543565 1574.123386 1574.051887 1576.455359 1579.191608
171.385000 1571.550813 1573.406662 1576.107007 1576.012822 1578.198725 1581.204876
171.485000 1573.305985 1575.785165 1578.099019 1578.138075 1580.238248 1583.262113
171.585000 1575.012130 1578.093661 1580.473245 1580.343670 1582.756533 1584.788929
171.685000 1576.607982 1580.368594 1582.777858 1582.799619 1585.264673 1588.530079
171.785000 1579.175364 1582.703773 1585.409845 1585.475109 1588.472356 1592.223510
171.885000 1581.904335 1585.062572 1588.328415 1588.375335 1591.961448 1594.114262
171.985000 1584.343452 1587.583755 1591.294028 1591.018862 1594.924346 1596.902101
172.085000 1586.802874 1589.558749 1593.763917 1593.211346 1596.756280 1598.405103
172.185000 1588.986327 1591.998186 1595.567746 1595.357868 1598.310619 1600.430370
172.285000 1590.785502 1594.717954 1597.577872 1597.504215 1600.410465 1602.724255
172.385000 1593.030919 1596.813238 1599.804778 1599.519392 1602.410332 1604.084456
172.485000 1595.156401 1599.007027 1601.410002 1601.251822 1603.731475 1605.474546
172.585000 1598.471467 1600.502979 1603.042073 1602.889794 1605.230110 1606.585136
172.685000 1600.982096 1602.820745 1604.959583 1604.936181 1606.983942 1609.184484
172.785000 1602.257804 1604.660101 1607.043718 1606.854741 1609.284178 1611.584687
172.885000 1604.017949 1606.390419 1608.836868 1608.901077 1611.306685 1614.854903
172.985000 1605.625258 1608.107389 1610.480958 1610.663584 1613.046066 1615.931855
173.085000 1607.126931 1609.887883 1612.325595 1612.428228 1614.810543 1617.196748
173.185000 1609.410960 1611.260920 1613.941848 1614.069588 1616.830352 1619.020006
173.285000 1610.144924 1612.710025 1615.778436 1615.789974 1618.700141 1621.429166
173.385000 1611.657595 1614.537469 1617.212414 1617.279443 1620.036220 1623.117151
173.485000 1613.305302 1616.322405 1618.633454 1618.953442 1621.863060 1625.077693
173.585000 1614.152138 1617.656910 1620.087695 1620.327403 1623.136049 1626.477780
173.685000 1615.255755 1618.938692 1621.306138 1621.656073 1624.480706 1627.628275
173.785000 1616.997352 1620.399610 1622.656881 1623.132164 1626.637283 1628.791251
173.885000 1618.658498 1622.016968 1624.712593 1624.788507 1628.165217 1631.116974
173.985000 1620.085059 1623.637072 1626.450512 1626.483729 1629.632603 1632.051403
174.085000 1621.996997 1625.542514 1627.959423 1628.160262 1631.150271 1633.522069
174.185000 1624.001909 1627.494065 1629.525820 1629.977176 1633.058189 1635.247984
174.285000 1625.980658 1628.888831 1631.959810 1631.924969 1634.758866 1638.125044
174.385000 1628.719746 1630.774288 1633.866085 1633.996317 1637.239704 1640.982768
174.485000 1629.877658 1632.321514 1635.681113 1635.820056 1638.914069 1643.032689
174.585000 1631.442538 1633.845179 1637.537391 1637.625748 1641.471326 1645.255971
174.685000 1632.446929 1635.824930 1639.258667 1639.502516 1643.260158 1646.674807
174.785000 1635.110206 1638.117049 1641.246447 1641.453150 1645.201647 1647.916959
174.885000 1636.776925 1639.739889 1642.996623 1643.193450 1646.981904 1649.904191
174.985000 1638.097746 1641.549312 1644.708608 1644.825648 1648.297399 1651.169900
175.085000 1639.833337 1643.439977 1646.375419 1646.267393 1649.426564 1652.092969
175.185000 1641.664326 1644.903991 1647.898662 1647.803342 1651.127752 1653.443800
175.285000 1643.164362 1646.444689 1649.092674 1649.230197 1652.331249 1654.146071
175.385000 1645.119932 1648.351098 1650.361154 1650.605485 1653.466493 1656.072265
175.485000 1645.864812 1649.572323 1651.547466 1651.763854 1654.479210 1656.876462
175.585000 1647.898940 1650.960425 1652.678274 1653.060002 1655.602637 1657.962111
175.685000 1648.582834 1652.347439 1653.827976 1654.296546 1656.753481 1659.294025
175.785000 1650.475553 1653.739118 1655.328845 1655.584886 1657.927518 1660.904411
175.885000 1652.434538 1654.706653 1656.402819 1656.798300 1659.160836 1662.259694
175.985000 1653.627908 1655.973354 1657.987295 1658.181654 1660.379888 1664.670047
176.085000 1655.541564 1657.232811 1659.451417 1659.631104 1661.911322 1666.019004
176.185000 1656.560936 1658.525135 1661.035131 1661.101643 1663.250045 1668.927398
176.285000 1658.118156 1659.869160 1662.238466 1662.583091 1664.724188 1670.078731
176.385000 1659.501000 1661.241512 1663.964942 1664.397743 1667.192459 1672.492434
176.485000 1661.283926 1663.471515 1666.182523 1666.780951 1669.812871 1675.403546
176.585000 1664.046535 1666.098566 1668.884298 1669.391990 1672.782354 1678.295134
176.685000 1666.660240 1668.155434 1671.592228 1671.775509 1674.850921 1679.756931
176.785000 1668.666715 1670.179733 1673.415289 1673.956478 1677.384665 1681.984656
176.885000 1670.012512 1671.982708 1676.394286 1676.397890 1680.760799 1684.247835
176.985000 1671.236335 1674.736870 1679.138509 1678.749751 1682.534319 1686.371421
177.085000 1673.003010 1676.636575 1681.439311 1680.996185 1685.167655 1688.490922
177.185000 1674.735429 1678.177575 1682.917505 1683.017766 1686.823936 1689.974834
177.285000 1676.092040 1681.017330 1684.858236 1684.877795 1688.538005 1692.591673
177.385000 1678.896208 1683.632963 1687.452513 1687.048738 1689.912016 1694.413672
177.485000 1680.847907 1686.026288 1689.065938 1688.962906 1692.049865 1695.716898
177.585000 1683.851093 1687.843927 1690.760093 1691.017503 1695.162629 1697.376191
177.685000 1685.043873 1690.176083 1692.620225 1693.066917 1697.122310 1698.830476
177.785000 1687.562930 1691.827230 1695.206240 1695.008086 1698.288755 1700.482420
177.885000 1690.439995 1694.510289 1697.060122 1696.898881 1699.637700 1701.917516
177.985000 1693.363766 1695.791955 1698.845843 1698.631379 1701.128707 1703.507541
178.085000 1694.898608 1698.482521 1700.685942 1700.515545 1702.668843 1705.211531
178.185000 1698.110866 1700.058620 1701.976221 1702.121024 1704.188079 1706.551385
178.285000 1699.844975 1701.621117 1703.332153 1703.455131 1705.537021 1707.542281
178.385000 1701.575218 1702.900821 1704.501604 1704.869998 1707.014570 1709.562340
178.485000 1702.566846 1703.938521 1705.981811 1706.268164 1708.222263 1712.983181
178.585000 1703.600680 1705.317439 1707.674315 1707.738149 1709.864719 1713.973848
178.685000 1704.930321 1706.339504 1709.280314 1709.139158 1711.377564 1714.816179
178.785000 1706.231043 1707.730919 1710.483982 1710.558430 1712.841317 1717.608672
178.885000 1707.519787 1709.642054 1712.138130 1712.167996 1714.538202 1718.231678
178.985000 1709.005672 1711.380609 1713.604282 1713.839559 1716.386006 1719.998542
179.085000 1710.327198 1712.720059 1715.142125 1715.368181 1718.096470 1721.309845
179.185000 1711.982066 1714.137539 1716.608670 1717.131067 1720.234753 1724.042392
179.285000 1713.622277 1715.672885 1718.271671 1718.763599 1721.600846 1726.028915
179.385000 1714.690336 1717.328798 1719.972720 1720.287574 1723.324785 1726.974788
179.485000 1716.271832 1718.625656 1721.761515 1721.793593 1724.841399 1727.965716
179.585000 1717.697926 1719.992564 1723.742272 1723.355857 1726.622279 1729.187266
179.685000 1718.694231 1721.340391 1725.289735 1724.773818 1728.074433 1730.516102
179.785000 1719.358926 1722.500835 1726.336591 1726.230653 1730.050377 1732.578163
179.885000 1721.284071 1724.057405 1727.908890 1727.657595 1730.956882 1734.122622
179.985000 1722.470470 1725.361932 1729.253784 1729.120311 1732.739943 1735.906785
180.085000 1723.351510 1726.611145 1730.734516 1730.462241 1734.030129 1737.872424
180.185000 1723.932140 1727.792482 1732.090856 1731.844493 1735.667340 1738.505309
180.285000 1725.169236 1729.771523 1733.761738 1733.268850 1737.360047 1739.715750
180.385000 1726.692495 1731.533146 1734.651484 1734.777234 1738.602962 1741.171007
180.485000 1728.894225 1733.040554 1736.395845 1736.356545 1740.097437 1742.260552
180.585000 1731.009797 1734.403123 1737.910828 1737.968172 1741.662582 1744.025205
180.685000 1733.181881 1736.734148 1740.082479 1739.888753 1742.986384 1745.515539
180.785000 1735.194333 1738.185572 1741.805663 1741.497153 1744.390093 1747.329167
180.885000 1737.642828 1740.510766 1743.649391 1743.543256 1746.511524 1748.478095
180.985000 1739.116520 1742.779545 1745.891316 1745.384197 1748.172364 1749.889697
181.085000 1740.406215 1744.118819 1747.517744 1747.265768 1750.388469 1752.442835
181.185000 1742.177221 1745.907508 1749.159803 1749.144485 1752.451122 1754.566322
181.285000 1744.384372 1748.218623 1751.277046 1751.060964 1754.042721 1756.210712
181.385000 1745.955428 1750.225144 1752.999903 1752.878228 1755.443490 1757.580278
181.485000 1749.053247 1751.969365 1754.866506 1754.792958 1757.987564 1759.407096
181.585000 1750.050861 1753.324369 1756.749971 1756.554601 1759.939929 1762.622142
181.685000 1751.454609 1755.115127 1758.568856 1758.244586 1761.228144 1764.959309
181.785000 1754.005226 1756.866146 1759.860835 1759.953320 1763.096969 1766.893318
181.885000 1756.172008 1758.252993 1761.828985 1761.859108 1765.110383 1768.070370
181.985000 1758.516389 1760.504358 1763.920920 1763.824322 1766.876897 1770.211713
182.085000 1759.957740 1762.499233 1765.957394 1765.624534 1768.734037 1772.103996
182.185000 1761.164174 1764.115644 1767.464873 1767.457419 1770.690685 1774.165743
182.285000 1763.696370 1766.057606 1769.306982 1769.172743 1772.452908 1776.026275
182.385000 1764.971943 1767.577289 1770.837820 1770.884927 1774.221652 1777.308222
182.485000 1765.962048 1769.105835 1772.444479 1772.481749 1775.676460 1778.684409
182.585000 1767.336003 1770.672045 1774.075720 1774.055308 1777.287611 1780.370212
182.685000 1768.234285 1771.922978 1776.156649 1775.789143 1778.965785 1781.993474
182.785000 1770.694918 1774.351856 1778.095219 1777.731023 1780.716752 1784.459266
182.885000 1773.374614 1776.693596 1779.740856 1779.560150 1782.513615 1785.416264
182.985000 1776.346409 1778.998234 1781.797103 1781.667764 1784.253424 1787.492454
183.085000 1779.289080 1780.857656 1783.561107 1783.685738 1786.596924 1788.553946
183.185000 1781.304528 1783.387014 1785.520336 1785.586199 1788.041901 1789.729456
183.285000 1782.996936 1785.360737 1787.485258 1787.412018 1789.572668 1791.013060
183.385000 1785.465686 1787.011683 1789.180875 1789.024918 1791.129785 1792.693322
183.485000 1786.715769 1788.401775 1790.661480 1790.552385 1792.538654 1793.899112
183.585000 1788.335790 1789.581550 1792.245592 1791.963090 1794.074546 1795.675004
183.685000 1789.371941 1791.205197 1793.418460 1793.380886 1795.474269 1797.100577
183.785000 1790.658003 1793.034525 1794.819305 1794.746925 1796.561627 1798.533131
183.885000 1792.874230 1794.381175 1796.327442 1796.192592 1797.948031 1799.921042
183.985000 1794.244571 1795.770269 1797.643880 1797.599618 1799.296843 1801.788803
