depth(m) lower_95.4(kyr) lower_68.2(kyr) median(kyr) mean(kyr) upper_68.2(kyr) upper_95.4(kyr)
52.280000 1399.104866 1399.459835 1400.136688 1400.090011 1400.747907 1400.922115
52.390000 1400.865731 1401.930273 1403.225071 1403.397400 1404.907706 1407.779372
52.510000 1403.811651 1404.736761 1406.165959 1406.525328 1408.662553 1411.271572
52.630000 1405.478321 1407.211528 1409.086268 1409.391418 1411.802321 1413.986368
52.750000 1408.467494 1410.136522 1411.779202 1412.439807 1415.253704 1417.680898
52.850000 1410.887755 1413.143799 1415.161132 1415.513743 1418.140554 1421.923028
52.950000 1413.992932 1416.588524 1419.395692 1419.242791 1421.672899 1424.675799
53.030000 1417.494040 1419.911250 1423.114068 1422.946377 1425.732863 1428.518372
53.110000 1422.858542 1425.661312 1428.178413 1428.224612 1430.710968 1432.926202
53.190000 1425.627223 1429.317773 1431.463157 1431.444570 1433.596453 1436.281691
53.280000 1429.692452 1432.570605 1434.348211 1434.482556 1436.595909 1439.338514
53.370000 1432.633847 1435.250563 1436.905176 1437.200121 1439.457068 1441.918740
53.470000 1435.933355 1437.837785 1439.843063 1440.014927 1442.458834 1444.585662
53.570000 1438.229460 1440.475946 1442.677179 1442.759437 1445.246972 1446.697421
53.680000 1441.385108 1443.349410 1446.456226 1446.044454 1448.214539 1450.020813
53.790000 1446.763011 1449.387468 1450.947968 1450.751145 1452.371926 1453.834944
53.880000 1451.573047 1452.753699 1453.780129 1453.942231 1455.313959 1457.555293
53.980000 1453.828060 1455.310466 1456.510501 1456.507952 1457.728667 1459.567997
54.070000 1455.650120 1457.135825 1458.360460 1458.363400 1459.606896 1461.220962
54.160000 1457.448179 1459.158862 1460.311645 1460.283817 1461.479339 1463.182027
54.260000 1459.598046 1461.468966 1462.510897 1462.608206 1463.975225 1465.079495
54.370000 1462.493286 1464.095983 1465.423739 1465.450830 1466.949713 1468.637195
54.470000 1464.740770 1466.260548 1467.719290 1467.890509 1469.701398 1471.210120
54.580000 1467.095110 1468.483554 1470.446366 1470.582719 1472.652496 1475.572045
54.680000 1469.460600 1471.532389 1472.770501 1473.620794 1476.129901 1480.880183
54.780000 1472.354908 1474.226751 1476.278904 1476.980566 1479.869117 1484.074753
54.880000 1475.725029 1477.160958 1480.323083 1480.523331 1483.467192 1487.327184
54.970000 1477.366413 1480.692761 1483.821038 1483.849591 1487.328228 1490.975641
55.070000 1480.802126 1484.765807 1488.286185 1488.297253 1491.824416 1495.247302
55.170000 1486.645353 1492.060224 1494.896166 1494.763156 1497.950204 1501.124048
55.280000 1494.483040 1496.909233 1499.491852 1499.758008 1502.768461 1505.357182
55.380000 1497.996114 1500.985439 1503.618961 1503.756896 1506.871416 1509.174233
55.490000 1502.313451 1504.718158 1508.381773 1508.343969 1511.506598 1515.315971
55.590000 1505.306787 1509.828420 1513.943164 1513.780356 1517.422593 1520.930251
55.680000 1509.028959 1513.906525 1519.088756 1518.287736 1521.825535 1524.103886
55.780000 1512.578209 1519.148948 1523.924446 1522.955295 1525.936777 1527.089460
55.880000 1517.402158 1523.842092 1527.569720 1526.849607 1529.571585 1531.693394
55.975000 1520.984293 1528.055831 1530.245279 1529.952908 1532.767062 1533.912582
56.070000 1528.348272 1530.978823 1532.851536 1532.878205 1535.184073 1537.467818
56.170000 1532.381893 1533.844875 1535.757624 1535.922193 1538.028990 1540.006502
56.270000 1534.837293 1536.650431 1538.103572 1538.359122 1540.393079 1542.153657
56.360000 1536.446866 1539.156335 1540.576723 1540.817503 1542.848770 1545.084798
56.470000 1540.069984 1542.524267 1544.541865 1544.819198 1547.292568 1552.227349
56.590000 1543.739307 1545.431132 1547.712168 1548.324994 1551.482589 1556.653854
56.710000 1545.395348 1548.003429 1550.723472 1551.649880 1556.522107 1559.789101
56.840000 1548.853754 1551.216789 1554.519221 1555.124776 1559.898430 1563.554391
56.980000 1551.463516 1554.410935 1558.806686 1558.868527 1564.087256 1566.424604
57.120000 1554.819196 1558.050381 1563.079161 1562.882382 1567.069016 1570.491304
57.240000 1559.637583 1562.223591 1567.129816 1566.613921 1569.972813 1572.525333
57.360000 1564.338479 1567.284057 1571.287221 1570.665325 1572.971288 1575.555657
57.430000 1567.048636 1570.560719 1572.946960 1572.842872 1574.985498 1576.779395
57.480000 1569.474830 1572.625531 1574.312995 1574.354254 1576.215447 1578.219392
57.580000 1573.808966 1575.204300 1577.123592 1577.216649 1579.056165 1581.587417
57.650000 1575.420261 1577.474423 1579.047568 1579.291508 1581.275051 1583.405616
57.680000 1576.386901 1578.377063 1579.898495 1580.267256 1582.347547 1585.694293
57.760000 1577.811374 1580.612060 1582.395784 1583.057174 1585.862531 1589.518780
57.780000 1578.165433 1581.249011 1583.053722 1583.707883 1586.384348 1590.589264
57.920000 1582.295652 1584.957632 1587.954342 1588.288318 1591.418027 1596.346366
57.970000 1583.614800 1586.758557 1589.349000 1589.996310 1593.722663 1598.570673
57.990000 1583.830585 1587.302890 1590.342623 1590.786981 1594.519620 1599.518168
58.080000 1586.876506 1590.542932 1594.134801 1594.260641 1598.050048 1602.186198
58.180000 1589.860038 1594.366170 1599.095223 1598.769760 1602.919371 1606.653866
58.210000 1592.149643 1595.872485 1600.446763 1600.038630 1603.796301 1607.701561
58.250000 1593.709097 1597.281826 1601.910275 1601.645248 1605.157740 1609.666193
58.280000 1594.261567 1598.452363 1603.124927 1602.813579 1606.820906 1610.049991
58.310000 1596.074350 1599.619189 1604.363713 1604.146077 1607.891070 1611.331149
58.360000 1598.331837 1603.160583 1606.336124 1606.402660 1610.083627 1613.785398
58.380000 1599.308260 1603.853499 1607.297877 1607.136609 1610.895392 1614.100285
58.430000 1601.782454 1605.008083 1609.216517 1608.901103 1612.513401 1615.561123
58.480000 1603.224603 1607.019155 1611.014074 1610.723795 1613.970570 1617.434120
58.530000 1606.467063 1608.438351 1612.582766 1612.321851 1615.403588 1618.668568
58.560000 1607.526022 1610.004465 1613.462185 1613.375600 1617.084777 1620.151521
58.590000 1608.330986 1611.117168 1614.263965 1614.356231 1617.992488 1621.097655
58.680000 1610.246636 1613.958409 1616.868847 1617.085042 1620.272526 1625.139340
58.780000 1612.793484 1616.761722 1619.620633 1620.422856 1624.784228 1630.338588
58.880000 1616.326907 1619.491907 1622.093366 1623.290981 1627.353298 1632.740974
58.970000 1620.231079 1621.954004 1625.750128 1625.987663 1630.175003 1635.020936
59.070000 1622.099805 1624.622021 1629.982131 1629.289691 1633.684062 1637.774308
59.140000 1624.196450 1626.926343 1631.918867 1631.786825 1636.155048 1639.274391
59.200000 1625.393768 1628.715857 1633.729704 1633.493453 1637.937957 1640.648411
59.240000 1626.862107 1630.134644 1634.885542 1634.637030 1638.871504 1641.481834
59.290000 1628.140763 1631.648338 1636.142876 1636.003370 1639.906000 1642.483014
59.350000 1629.554759 1633.407112 1637.738346 1637.578815 1641.185199 1643.650861
59.410000 1631.309726 1635.084478 1639.585464 1639.210297 1642.848315 1645.308384
59.530000 1634.524869 1639.032708 1642.993140 1642.635805 1646.219295 1648.651339
59.615000 1635.984457 1641.337548 1644.544822 1644.499340 1648.291151 1649.934426
59.700000 1637.689435 1643.341376 1646.429477 1646.235134 1649.914625 1651.610565
59.840000 1639.634954 1645.702494 1648.425948 1648.586864 1651.957374 1654.965152
59.980000 1643.859475 1648.202216 1651.161307 1651.066554 1654.111261 1656.213959
60.083333 1645.795709 1649.485555 1653.294493 1652.866297 1655.975227 1658.125639
60.186667 1647.890657 1651.605673 1654.679169 1654.537150 1657.378031 1659.699315
60.290000 1649.456710 1653.911528 1656.635020 1656.422295 1659.018193 1661.571691
60.370000 1651.675544 1655.792231 1658.129787 1658.082064 1660.698183 1663.132660
60.410000 1652.373464 1656.295169 1659.123268 1658.896493 1661.446715 1663.898697
60.440000 1652.632490 1656.883571 1659.758813 1659.481920 1662.220386 1664.793761
60.460000 1652.835890 1657.142752 1660.119948 1659.858189 1662.973137 1665.412912
60.490000 1653.110684 1657.634154 1660.660502 1660.429794 1663.688226 1665.991064
60.520000 1653.507135 1658.618691 1661.142306 1660.986718 1664.298503 1666.558067
60.570000 1654.310221 1659.358104 1662.030963 1661.947781 1664.953612 1667.438109
60.660000 1655.827726 1661.139087 1663.560412 1663.612557 1666.322724 1669.212262
60.750000 1658.787163 1663.015649 1665.127345 1665.464665 1668.066054 1670.997348
60.862500 1661.169887 1664.584029 1666.886649 1667.099204 1669.910451 1673.085714
60.975000 1662.912555 1666.288001 1668.879356 1668.827111 1671.782679 1674.578142
61.087500 1664.503659 1667.758873 1670.341531 1670.467703 1673.326700 1675.881292
61.200000 1666.286800 1669.719863 1672.054267 1672.248110 1674.998641 1678.452909
61.280000 1667.701781 1670.990953 1673.154006 1673.601552 1676.551496 1679.714812
61.310000 1668.119537 1671.402727 1673.829308 1674.133223 1676.886814 1680.165319
61.330000 1668.341866 1671.750945 1674.330789 1674.493640 1677.340544 1680.461962
61.360000 1668.774181 1672.239905 1674.962858 1675.079309 1677.841562 1680.952023
61.380000 1669.117377 1672.514049 1675.329709 1675.427602 1678.187855 1681.241493
61.430000 1670.302095 1673.420964 1676.326587 1676.294151 1679.238701 1681.958006
61.470000 1671.346369 1674.218324 1676.882376 1676.954552 1679.851081 1682.509495
61.540000 1672.740465 1675.350443 1677.946599 1678.068950 1680.931896 1683.833266
61.670000 1674.645525 1677.300184 1679.975239 1680.099731 1682.928325 1685.511688
61.795000 1675.996797 1678.802021 1681.737146 1682.035194 1685.682923 1688.413370
61.920000 1677.957909 1681.074664 1684.325078 1684.491513 1687.939443 1691.387857
62.005000 1678.679800 1682.610245 1685.620548 1686.081508 1689.662114 1693.489259
62.090000 1680.971726 1684.124174 1687.172140 1687.748562 1691.448692 1694.931854
62.160000 1682.477406 1685.326745 1688.451351 1688.991405 1692.798422 1696.741998
62.220000 1684.026645 1686.756242 1689.762844 1690.246642 1694.192137 1698.167800
62.260000 1684.480299 1687.490455 1690.641282 1691.084428 1695.173477 1698.641370
62.320000 1685.308819 1688.779221 1691.800815 1692.271322 1695.943059 1699.492806
62.400000 1687.271276 1690.070560 1693.361975 1693.720545 1697.443021 1701.543871
62.480000 1688.843817 1691.628249 1695.132569 1695.316714 1698.870748 1703.820007
62.590000 1691.073141 1694.339320 1697.721438 1698.007951 1702.159469 1705.886274
62.700000 1692.559685 1696.640803 1699.764325 1700.493727 1705.120247 1709.651336
62.830000 1696.643321 1699.954313 1704.006799 1704.060995 1708.264974 1712.209379
62.910000 1698.410674 1701.556742 1706.499329 1706.254928 1710.030769 1713.483351
62.950000 1699.117922 1702.610842 1707.502747 1707.216445 1711.325621 1714.178973
63.030000 1700.388074 1704.589435 1709.907872 1709.069942 1713.170375 1716.405245
63.080000 1701.624248 1706.016378 1710.936638 1710.324170 1714.213007 1718.253568
63.140000 1704.295555 1707.839007 1712.299055 1711.837490 1715.512018 1719.501688
63.220000 1706.726750 1710.097057 1714.061882 1713.955373 1717.969655 1720.849234
63.320000 1709.517539 1712.233136 1716.438096 1716.614159 1720.306848 1724.338175
63.440000 1713.295679 1715.515912 1719.647523 1719.602028 1723.228587 1726.763402
63.580000 1716.364074 1718.631264 1723.599359 1723.206844 1727.899681 1730.382822
63.700000 1717.983032 1720.980411 1725.867207 1725.737401 1730.275567 1733.540588
63.820000 1719.879593 1723.204620 1728.266204 1728.270937 1732.938149 1737.108300
63.960000 1721.428135 1726.965888 1732.063128 1731.195305 1735.967036 1738.717439
64.080000 1725.048282 1731.568534 1735.369970 1734.650812 1738.809924 1740.975251
64.190000 1727.321731 1733.543536 1739.049916 1737.851881 1742.103369 1744.112736
64.280000 1729.881907 1735.300991 1741.603068 1740.445587 1744.261222 1748.195340
64.350000 1731.326960 1737.798038 1743.570304 1742.373099 1746.097788 1749.684023
64.420000 1734.147372 1740.242794 1745.150037 1744.197878 1748.417012 1750.591173
64.540000 1737.824107 1743.050143 1747.034239 1746.790120 1750.902556 1752.989179
64.650000 1741.641067 1746.564513 1749.197803 1749.277091 1752.712224 1754.559025
64.760000 1744.602750 1749.147642 1751.441691 1751.438129 1755.008885 1756.452111
64.860000 1747.876235 1751.140369 1753.253639 1753.465703 1756.734685 1758.499780
64.960000 1750.318704 1753.257798 1755.101268 1755.523142 1758.860107 1760.326417
65.080000 1753.758463 1755.809416 1757.916562 1758.484453 1761.491791 1764.598767
65.160000 1756.075650 1757.434438 1760.834721 1760.787891 1763.686955 1767.996627
65.250000 1757.835511 1760.157249 1763.888571 1764.130163 1767.902555 1772.326321
65.350000 1759.941467 1762.899625 1766.871353 1767.134186 1771.633682 1775.512722
65.440000 1761.822069 1765.650626 1769.691954 1769.732985 1773.666927 1777.346753
65.540000 1763.355656 1768.765222 1772.122458 1772.217542 1776.114341 1779.608863
65.650000 1766.664166 1771.787812 1775.469699 1775.197116 1778.711962 1782.211377
65.750000 1770.989271 1774.561700 1778.223857 1777.982546 1781.127191 1784.014256
65.855000 1774.512688 1777.916164 1781.214890 1781.127293 1784.119068 1788.643351
65.960000 1778.006810 1780.914308 1783.619369 1784.176837 1787.598707 1792.579609
66.060000 1781.666355 1784.399378 1787.519944 1787.879013 1790.944993 1797.491489
66.160000 1786.600349 1789.353350 1792.754421 1792.682997 1795.408890 1800.052443
66.250000 1789.986688 1793.529269 1796.309823 1796.345930 1799.382390 1802.261187
66.350000 1793.094231 1798.008154 1800.548197 1800.347407 1803.112496 1806.055051
66.450000 1798.350046 1801.578152 1804.107712 1803.839894 1806.171194 1808.717790
66.560000 1800.876362 1804.061747 1806.872762 1806.770355 1809.114418 1813.629443
66.650000 1803.773481 1806.676707 1808.836416 1808.829521 1811.222557 1815.053241
66.740000 1806.208869 1808.640508 1810.604720 1810.649863 1813.073088 1815.992052
66.850000 1807.615015 1810.471777 1812.671376 1812.606400 1814.777132 1817.163885
66.940000 1808.770954 1811.731874 1814.225430 1814.194737 1816.667267 1819.551278
67.030000 1810.660661 1813.193078 1815.698468 1815.782343 1818.196567 1820.818379
67.140000 1812.913082 1814.572614 1817.554442 1817.644623 1820.547808 1822.911006
67.240000 1814.283329 1815.989532 1819.133817 1819.171730 1821.965733 1824.335762
67.340000 1815.782817 1817.797849 1820.365078 1820.754246 1823.878460 1826.445511
67.410000 1816.875252 1819.104247 1821.882442 1821.921526 1824.951468 1827.275316
67.520000 1818.879336 1820.876938 1823.468885 1823.789956 1826.845119 1828.660144
67.560000 1819.689756 1821.816259 1824.210820 1824.464320 1827.504890 1828.960633
67.645000 1821.330071 1823.125268 1825.385142 1825.757948 1829.085799 1831.213448
67.730000 1822.620309 1824.483930 1826.656260 1827.071704 1830.019020 1831.948267
67.850000 1823.805647 1826.136053 1828.556752 1828.823793 1831.738355 1834.502832
67.950000 1825.525918 1827.634702 1830.297588 1830.286765 1832.823469 1835.456476
68.050000 1827.253286 1829.219502 1832.094431 1831.896186 1834.443007 1837.168495
68.150000 1828.611173 1830.366325 1833.600283 1833.316692 1835.608189 1838.509741
68.250000 1830.074010 1832.307927 1834.993452 1835.022432 1837.488675 1840.142110
68.350000 1831.793765 1833.868191 1836.794606 1836.679345 1839.379501 1841.505777
68.450000 1833.370986 1835.558279 1837.943155 1838.097067 1841.104531 1843.061740
68.550000 1834.826981 1836.942829 1839.384559 1839.483430 1842.301987 1844.561491
68.650000 1836.365747 1838.281404 1840.862894 1840.958980 1843.681098 1846.105487
68.750000 1838.055594 1839.932596 1842.364960 1842.738217 1845.303470 1848.471102
68.850000 1840.270472 1842.286643 1844.570865 1844.848727 1847.479383 1851.879148
68.950000 1842.573236 1844.340951 1847.379379 1847.347361 1850.146002 1853.873137
69.050000 1845.105559 1846.879171 1849.630300 1849.756064 1852.737992 1856.539958
69.150000 1846.810328 1849.693223 1852.209587 1852.560971 1855.750901 1858.715365
69.250000 1850.294113 1851.652691 1854.837826 1854.852216 1858.042477 1860.925163
69.350000 1852.304595 1854.043886 1857.181195 1857.141198 1860.066324 1862.676679
69.450000 1854.165692 1855.960398 1859.621562 1859.281394 1861.800413 1864.273824
69.550000 1855.189726 1858.107361 1861.377066 1861.049171 1863.351493 1865.904732
69.650000 1857.921456 1860.345214 1863.336728 1862.994863 1865.465198 1867.751471
69.750000 1859.808464 1862.011942 1864.881852 1864.633177 1867.022144 1869.269887
69.850000 1861.153108 1863.817646 1866.451338 1866.196544 1868.387646 1870.832862
69.950000 1863.168913 1865.908048 1867.809776 1867.879497 1870.161633 1871.973044
70.050000 1864.438590 1867.333204 1869.755380 1869.531699 1872.040482 1873.666964
70.150000 1866.251118 1868.821685 1871.213794 1871.096859 1873.595044 1875.082581
70.250000 1868.553388 1870.520124 1872.887206 1872.848677 1875.204516 1877.262599
70.350000 1870.063140 1872.621249 1875.070877 1875.030418 1877.201265 1880.325129
70.450000 1872.222173 1874.644355 1877.346991 1877.300223 1879.534794 1882.918578
70.550000 1874.837070 1876.694576 1879.114560 1879.317551 1881.912666 1885.556366
70.650000 1877.091769 1878.674128 1880.928317 1881.269723 1884.220170 1888.291095
70.750000 1878.414517 1880.293841 1882.399073 1882.958227 1885.628476 1889.449630
70.850000 1880.212672 1882.198071 1884.588158 1884.927998 1887.929777 1890.695678
70.950000 1882.283387 1883.931310 1886.212423 1886.600664 1889.693964 1891.997505
71.050000 1883.589021 1885.537850 1888.162103 1888.291719 1891.191684 1893.565998
71.150000 1885.832955 1887.310199 1889.744666 1890.021670 1893.093998 1894.905670
71.250000 1887.460740 1888.862507 1891.635286 1891.779386 1894.718215 1896.983914
71.350000 1889.217596 1891.559570 1893.872349 1893.987413 1896.337169 1899.679213
71.450000 1891.144901 1893.638359 1896.088537 1896.229743 1898.473489 1901.847654
71.550000 1894.821100 1897.111887 1898.791679 1899.059296 1901.643233 1903.959877
71.650000 1897.625354 1899.333710 1901.534792 1901.835649 1904.697365 1907.010194
71.750000 1900.480904 1902.012291 1904.648980 1904.732825 1907.171598 1909.737597
71.850000 1901.733499 1904.391002 1907.389823 1907.263866 1910.008479 1912.372667
71.950000 1904.260588 1907.090529 1909.822148 1909.915538 1912.604709 1915.703115
72.050000 1907.209635 1909.488905 1912.066926 1912.466677 1915.905817 1918.231501
72.140000 1909.751473 1911.900161 1915.086555 1914.747122 1917.731269 1919.712179
72.250000 1912.252656 1914.547723 1917.421558 1917.626427 1920.507479 1923.441770
72.350000 1915.753906 1916.954126 1919.847456 1920.066476 1923.161317 1925.565283
72.450000 1917.557231 1919.984015 1922.438239 1922.634471 1925.780930 1927.588141
72.550000 1919.943581 1922.300415 1925.528317 1925.273214 1927.842458 1928.924951
72.650000 1922.834684 1925.350366 1927.691712 1927.566155 1929.544856 1932.017026
72.750000 1924.828644 1927.205978 1929.625336 1929.513716 1931.649235 1934.026615
72.850000 1926.231614 1929.308364 1931.367233 1931.291326 1933.546119 1936.260345
72.950000 1928.225105 1930.683322 1933.089324 1933.014105 1935.181029 1937.807607
73.050000 1929.868259 1932.510656 1934.839494 1934.707429 1936.929186 1939.024992
73.150000 1931.524195 1934.512595 1936.358947 1936.417241 1938.193996 1940.514025
73.250000 1933.407162 1935.893496 1937.990842 1938.115809 1940.112827 1942.434756
73.350000 1935.891044 1937.655736 1940.049556 1940.098662 1942.525039 1944.440741
73.450000 1937.459830 1939.632839 1942.334498 1942.508924 1944.926190 1947.657769
73.550000 1940.148589 1942.844056 1945.944719 1945.888613 1949.296336 1952.326987
73.650000 1942.911095 1945.014986 1948.934359 1948.771745 1952.123322 1955.181577
73.750000 1944.890248 1947.541336 1951.200733 1951.186111 1955.076485 1957.947447
73.850000 1946.923553 1949.389128 1953.358779 1953.404293 1956.825749 1959.938499
73.950000 1949.425811 1953.049494 1955.793336 1955.909371 1959.152657 1961.950613
74.050000 1951.234797 1955.238543 1957.814712 1957.975222 1961.360571 1964.743028
74.150000 1952.550797 1957.329231 1959.876111 1960.113853 1963.250481 1966.631222
