depth(m) lower_95(kyr) lower_68(kyr) median(kyr) mean(kyr) upper_68(kyr) upper_95(kyr)
0.000000 0.016206 0.160089 0.576678 0.655255 1.135406 1.797308
0.142857 0.099502 0.291579 0.695215 0.773742 1.254790 1.879451
0.285714 0.165802 0.407397 0.814363 0.887086 1.366668 2.018080
0.428571 0.226130 0.507456 0.934445 0.999300 1.513478 2.117215
0.571429 0.297937 0.614088 1.051139 1.111060 1.630228 2.211852
0.714286 0.365699 0.726607 1.150892 1.219018 1.739917 2.345577
0.857143 0.433230 0.818791 1.268883 1.326084 1.847973 2.493805
1.000000 0.504213 0.923632 1.374693 1.428945 1.954025 2.594126
1.142857 0.588161 1.033438 1.487273 1.532488 2.064984 2.724995
1.285714 0.663694 1.123372 1.595794 1.632917 2.159726 2.851694
1.428571 0.724036 1.209593 1.698136 1.734522 2.259682 2.965139
1.571429 0.797447 1.289971 1.796981 1.831600 2.358452 3.034928
1.714286 0.866567 1.373252 1.885393 1.929487 2.453147 3.191075
1.857143 0.955825 1.463656 1.995468 2.027241 2.556312 3.282476
2.000000 1.012728 1.566567 2.100564 2.123734 2.656025 3.382380
2.142857 1.093560 1.669039 2.207770 2.222975 2.749280 3.510585
2.285714 1.175263 1.757100 2.308380 2.318638 2.847258 3.613324
2.428571 1.253803 1.843619 2.400356 2.415850 2.949493 3.761282
2.571429 1.331541 1.923167 2.505539 2.509709 3.046239 3.834698
2.714286 1.397764 2.024956 2.609694 2.613142 3.160874 3.966641
2.857143 1.465811 2.121120 2.721996 2.709270 3.256298 4.028813
3.000000 1.559304 2.200323 2.821722 2.804063 3.355465 4.153433
3.142857 1.629982 2.298432 2.928787 2.902409 3.440641 4.238414
3.285714 1.712778 2.400156 3.007497 2.996193 3.555560 4.378636
3.428571 1.810094 2.496120 3.101765 3.090712 3.652644 4.496568
3.571429 1.902197 2.601296 3.202112 3.185822 3.737874 4.594740
3.714286 1.979485 2.696939 3.300440 3.281912 3.836704 4.663431
3.857143 2.060784 2.785016 3.390169 3.378307 3.946367 4.804254
4.000000 2.126901 2.882489 3.482881 3.478363 4.052360 4.984705
4.142857 2.221982 2.981755 3.569342 3.574977 4.141537 5.080164
4.285714 2.293130 3.071203 3.658038 3.670084 4.248335 5.194868
4.428571 2.348372 3.165284 3.749790 3.767245 4.360764 5.365709
4.571429 2.469584 3.265899 3.845202 3.864816 4.468158 5.468645
4.714286 2.544886 3.382506 3.939911 3.965291 4.572262 5.563260
4.857143 2.617199 3.487126 4.034521 4.062735 4.654731 5.674880
5.000000 2.710320 3.578915 4.124422 4.163197 4.800381 5.785081
5.142857 2.819153 3.656136 4.217545 4.266016 4.917058 5.857670
5.285714 2.894271 3.735433 4.314710 4.372757 5.052214 5.936664
5.428571 2.967159 3.858201 4.409201 4.475287 5.158449 6.086771
5.571429 3.080122 3.946924 4.496332 4.579595 5.290515 6.333602
5.714286 3.187539 4.050452 4.600945 4.685356 5.405331 6.501927
5.857143 3.315532 4.139570 4.698561 4.791201 5.513737 6.641674
6.000000 3.404203 4.230013 4.797678 4.894288 5.645265 6.744009
6.142857 3.531726 4.307777 4.905708 5.001905 5.756859 6.883217
6.285714 3.628718 4.398309 5.007450 5.112510 5.904124 7.015983
6.428571 3.732757 4.486787 5.106930 5.220541 6.031530 7.105846
6.571429 3.865072 4.590718 5.210668 5.331627 6.150931 7.252678
6.714286 3.991783 4.689047 5.335781 5.442572 6.285153 7.350346
6.857143 4.085397 4.789658 5.441676 5.560367 6.445672 7.457942
7.000000 4.179389 4.906806 5.548386 5.678703 6.589938 7.583378
7.142857 4.293017 5.009519 5.669026 5.794604 6.719332 7.731122
7.285714 4.394345 5.105229 5.784595 5.912943 6.852902 7.828850
7.428571 4.526067 5.213579 5.898957 6.035435 6.993961 7.970569
7.571429 4.645006 5.320826 6.024519 6.161721 7.179899 8.131267
7.714286 4.782486 5.418574 6.147446 6.289856 7.332658 8.269536
7.857143 4.888870 5.541498 6.264352 6.421680 7.469911 8.372757
8.000000 4.974084 5.652379 6.389747 6.554249 7.585483 8.492110
8.142857 5.064610 5.776781 6.559998 6.695945 7.750279 8.671004
8.285714 5.205338 5.891664 6.718323 6.837384 7.911440 8.793748
8.428571 5.396654 6.015813 6.859090 6.977381 8.041914 8.917135
8.571429 5.498612 6.171753 7.004822 7.125172 8.208138 9.093634
8.714286 5.630483 6.274274 7.177494 7.270084 8.356746 9.212092
8.857143 5.752379 6.397628 7.320603 7.416740 8.508289 9.378443
9.000000 5.915772 6.558486 7.492592 7.568955 8.649069 9.517611
9.142857 6.041419 6.694367 7.695668 7.736369 8.793922 9.640311
9.285714 6.168754 6.834518 7.850299 7.896737 8.960869 9.758212
9.428571 6.327345 6.977606 8.030435 8.057254 9.114582 9.919771
9.571429 6.460356 7.155756 8.183084 8.230127 9.276799 10.103959
9.714286 6.638488 7.292378 8.359786 8.406645 9.460161 10.287437
9.857143 6.803627 7.489456 8.580574 8.591495 9.620021 10.441639
10.000000 6.976303 7.721900 8.791166 8.781356 9.757397 10.600876
10.142857 7.169745 7.930314 8.986605 8.980744 9.958171 10.771481
10.285714 7.400238 8.141465 9.216091 9.180948 10.143422 10.896266
10.428571 7.629218 8.374611 9.442334 9.386876 10.318029 11.041632
10.571429 7.840299 8.602303 9.641083 9.591593 10.493752 11.207816
10.714286 8.065712 8.868664 9.857085 9.810690 10.695385 11.390987
10.857143 8.256028 9.116155 10.102119 10.017887 10.855381 11.543395
11.000000 8.525423 9.374727 10.316707 10.234012 11.041385 11.733224
11.142857 8.720638 9.643908 10.541668 10.454282 11.245825 11.910300
11.285714 8.991073 9.894118 10.761578 10.678240 11.416336 12.102464
11.428571 9.086061 10.128475 10.976596 10.904341 11.651840 12.263064
11.571429 9.307791 10.372945 11.243879 11.136965 11.854876 12.535543
11.714286 9.554120 10.625034 11.483309 11.363019 12.050395 12.745998
11.857143 9.874685 10.851865 11.693410 11.585763 12.245950 12.992517
12.000000 10.068263 11.089991 11.899120 11.803437 12.428926 13.198144
12.142857 10.349224 11.239677 12.123331 12.028455 12.684554 13.348718
12.285714 10.565381 11.479327 12.322862 12.235369 12.908211 13.544699
12.428571 10.833710 11.672626 12.504767 12.434395 13.119057 13.755502
12.571429 11.085021 11.896045 12.690687 12.636760 13.338728 13.953636
12.714286 11.263893 12.107118 12.920520 12.844937 13.524764 14.184748
12.857143 11.487131 12.325110 13.109064 13.045506 13.722122 14.366284
13.000000 11.685752 12.532974 13.308582 13.245345 13.913477 14.540600
13.142857 11.991611 12.718876 13.508290 13.441656 14.100911 14.781557
13.285714 12.162020 12.932437 13.704949 13.647914 14.305036 14.968962
13.428571 12.404830 13.143623 13.898858 13.855882 14.507192 15.168393
13.571429 12.614033 13.381216 14.115745 14.061409 14.717851 15.389889
13.714286 12.798760 13.593247 14.311484 14.266313 14.933351 15.585675
13.857143 13.019703 13.808072 14.513440 14.466880 15.105736 15.830818
14.000000 13.239843 13.992366 14.702489 14.662964 15.296197 15.990780
14.142857 13.502169 14.176521 14.917151 14.875618 15.516638 16.195309
14.285714 13.704565 14.378900 15.121724 15.084658 15.734567 16.378097
14.428571 13.864326 14.615541 15.324949 15.295100 15.930443 16.572487
14.571429 14.061019 14.834406 15.503150 15.501071 16.161692 16.871396
14.714286 14.384615 15.088285 15.708829 15.711820 16.335704 17.043795
14.857143 14.595808 15.286933 15.911537 15.914349 16.524543 17.213468
15.000000 14.843229 15.519437 16.106656 16.119444 16.730998 17.493578
15.142857 15.047036 15.696368 16.320498 16.329802 16.951788 17.725040
15.285714 15.257762 15.896912 16.534574 16.538580 17.186944 18.026105
15.428571 15.492582 16.096416 16.715158 16.736991 17.388088 18.204254
15.571429 15.689166 16.283485 16.906819 16.941404 17.600798 18.443725
15.714286 15.838945 16.472744 17.099420 17.136659 17.815640 18.635645
15.857143 16.032173 16.653878 17.284480 17.334437 18.011934 18.773830
16.000000 16.217254 16.863118 17.487277 17.527152 18.216463 19.028484
16.142857 16.409492 17.031012 17.671464 17.709036 18.381284 19.188753
16.285714 16.564127 17.196747 17.825613 17.876321 18.550776 19.330461
16.428571 16.732311 17.347350 17.991841 18.037678 18.715584 19.505726
16.571429 16.864134 17.507732 18.135417 18.193724 18.882294 19.686630
16.714286 17.037803 17.645880 18.294948 18.347130 19.026906 19.783063
16.857143 17.192531 17.802552 18.454855 18.499166 19.210630 19.947633
17.000000 17.373701 17.937340 18.632896 18.655469 19.378766 20.123745
17.142857 17.519149 18.104876 18.767998 18.800757 19.521718 20.323684
17.285714 17.645373 18.218222 18.902714 18.945030 19.658371 20.503128
17.428571 17.767526 18.351363 19.038851 19.083053 19.808425 20.688022
17.571429 17.893836 18.487765 19.153979 19.218434 19.958289 20.849234
17.714286 18.007771 18.622551 19.294000 19.355155 20.083543 21.022030
17.857143 18.115906 18.751840 19.437241 19.490457 20.223714 21.185535
18.000000 18.263058 18.850866 19.557061 19.619799 20.331116 21.326893
18.142857 18.386406 18.967683 19.700275 19.740223 20.495834 21.453093
18.285714 18.493833 19.078761 19.812629 19.863584 20.622284 21.657180
18.428571 18.573286 19.201995 19.950271 19.980436 20.736152 21.795732
18.571429 18.643833 19.298409 20.068085 20.098909 20.859303 21.961377
18.714286 18.738926 19.422016 20.203137 20.215491 21.010828 22.063837
18.857143 18.873016 19.522134 20.299200 20.329881 21.144590 22.162176
19.000000 19.000919 19.624408 20.394685 20.443769 21.286789 22.300102
19.142857 19.076577 19.724911 20.511068 20.559896 21.432034 22.430973
19.285714 19.158890 19.834039 20.621549 20.674570 21.568273 22.586031
19.428571 19.253910 19.920053 20.737091 20.783588 21.693021 22.729851
19.571429 19.348026 20.013397 20.827516 20.893702 21.782169 22.845211
19.714286 19.449765 20.116525 20.923908 21.003931 21.883384 22.931630
19.857143 19.550148 20.217675 21.047661 21.112629 21.987042 23.057958
20.000000 19.669567 20.318145 21.153796 21.225349 22.123641 23.166988
20.142857 19.729792 20.431384 21.275840 21.339124 22.270130 23.259354
20.285714 19.842236 20.540131 21.394115 21.454091 22.390798 23.414378
20.428571 19.928281 20.665386 21.500711 21.568808 22.530656 23.576933
20.571429 19.979506 20.775661 21.608354 21.680883 22.674995 23.650278
20.714286 20.064150 20.859644 21.700278 21.791908 22.802145 23.741784
20.857143 20.169059 20.959936 21.816262 21.902057 22.908918 23.850750
21.000000 20.316679 21.071671 21.918953 22.015370 23.036313 23.971307
21.142857 20.424980 21.163397 22.047970 22.129940 23.192819 24.035592
21.285714 20.500538 21.269029 22.159801 22.241966 23.300499 24.122736
21.428571 20.630975 21.365218 22.272692 22.356453 23.416380 24.235187
21.571429 20.732524 21.463753 22.376781 22.469438 23.518681 24.418637
21.714286 20.847558 21.579788 22.493160 22.584482 23.629297 24.538739
21.857143 20.956129 21.692215 22.605763 22.698753 23.762264 24.623007
22.000000 21.070217 21.815191 22.719580 22.812545 23.898428 24.780863
22.142857 21.184137 21.932711 22.854810 22.931747 24.019052 24.924492
22.285714 21.281809 22.055053 22.989549 23.051024 24.130590 25.035236
22.428571 21.406511 22.169253 23.108968 23.170039 24.241840 25.137459
22.571429 21.527550 22.276861 23.230807 23.291327 24.346616 25.274357
22.714286 21.635704 22.407861 23.335988 23.411257 24.453484 25.388061
22.857143 21.759957 22.501266 23.452187 23.536299 24.592271 25.477369
23.000000 21.869646 22.634125 23.567829 23.659330 24.710786 25.594854
23.142857 21.982749 22.770424 23.695983 23.782411 24.846791 25.741081
23.285714 22.108107 22.882386 23.816350 23.906522 24.955807 25.907335
23.428571 22.211451 23.018780 23.941230 24.025304 25.083214 26.040512
23.571429 22.320065 23.126810 24.055382 24.148545 25.184727 26.184264
23.714286 22.417083 23.266632 24.197806 24.271467 25.307224 26.285300
23.857143 22.526414 23.392025 24.316355 24.390647 25.406951 26.391367
24.000000 22.620745 23.505981 24.446848 24.509475 25.529383 26.481795
24.142857 22.728552 23.642910 24.562698 24.634271 25.649932 26.583467
24.285714 22.806843 23.758745 24.693621 24.759366 25.772570 26.709067
24.428571 22.930785 23.876525 24.822336 24.883236 25.903147 26.769414
24.571429 23.030592 24.031626 24.965993 25.012129 26.018315 26.959766
24.714286 23.133051 24.136849 25.100927 25.136767 26.160487 27.179035
24.857143 23.240189 24.260663 25.238650 25.260579 26.270455 27.339418
25.000000 23.358478 24.362441 25.382811 25.385942 26.405286 27.483742
25.142857 23.432626 24.507432 25.514069 25.511326 26.548222 27.651197
25.285714 23.528953 24.610009 25.670339 25.635730 26.661705 27.816819
25.428571 23.637624 24.723979 25.812014 25.759935 26.783740 27.935870
25.571429 23.730934 24.841763 25.945017 25.879246 26.918903 28.107296
25.714286 23.821186 24.942988 26.089923 26.000272 27.033227 28.192087
25.857143 23.925944 25.044317 26.185022 26.120001 27.140368 28.320552
26.000000 23.984730 25.134856 26.292814 26.237851 27.275739 28.486085
26.142857 24.076471 25.256452 26.407930 26.351898 27.386626 28.732467
26.285714 24.159013 25.343942 26.523773 26.467740 27.482605 28.858924
26.428571 24.247735 25.439594 26.637981 26.577856 27.601725 28.946313
26.571429 24.333579 25.537395 26.734345 26.687898 27.710790 29.057093
26.714286 24.431037 25.619470 26.832793 26.802614 27.838005 29.166535
26.857143 24.531464 25.744289 26.950652 26.913637 27.952731 29.245618
27.000000 24.621226 25.836325 27.058413 27.025642 28.059256 29.343426
27.142857 24.715000 25.923569 27.166990 27.135018 28.174991 29.507332
27.285714 24.794055 26.075259 27.262684 27.248659 28.282748 29.594639
27.428571 24.930273 26.164098 27.374905 27.361471 28.397592 29.791983
27.571429 25.063871 26.267827 27.489814 27.475406 28.525811 29.894911
27.714286 25.175514 26.358222 27.591367 27.589677 28.652431 30.061788
27.857143 25.316615 26.444744 27.702287 27.699644 28.790687 30.207376
28.000000 25.412791 26.567338 27.828802 27.813925 28.923244 30.311702
28.142857 25.614054 26.700881 27.934428 27.933151 29.063887 30.495438
28.285714 25.719081 26.801270 28.031649 28.047447 29.182207 30.601457
28.428571 25.832764 26.920365 28.127583 28.161960 29.304619 30.726302
28.571429 25.966379 27.092796 28.241101 28.280348 29.415807 30.848017
28.714286 26.039624 27.234968 28.355557 28.400958 29.535501 30.980283
28.857143 26.153152 27.366965 28.475994 28.523996 29.651185 31.060948
29.000000 26.218485 27.488414 28.584370 28.641013 29.738310 31.286839
29.142857 26.318891 27.617105 28.680462 28.761012 29.851943 31.395987
29.285714 26.448952 27.765814 28.794168 28.888177 29.972801 31.558558
29.428571 26.545120 27.901985 28.883156 29.009636 30.098858 31.728631
29.571429 26.624391 28.051206 29.002531 29.133049 30.224541 31.902414
29.714286 26.775838 28.163317 29.113774 29.254239 30.339856 32.000548
29.857143 26.870552 28.269557 29.220075 29.374589 30.471238 32.119104
30.000000 26.977668 28.371158 29.327381 29.494680 30.580223 32.277962
30.142857 27.069706 28.487257 29.434326 29.610572 30.719123 32.392079
30.285714 27.214252 28.593253 29.554746 29.733435 30.860990 32.605583
30.428571 27.357650 28.678271 29.670147 29.853590 30.992350 32.818943
30.571429 27.430340 28.794745 29.761410 29.968371 31.222131 32.921437
30.714286 27.556674 28.902526 29.895186 30.082473 31.320243 33.006853
30.857143 27.675498 29.004663 30.020060 30.201095 31.460565 33.126680
31.000000 27.757858 29.110959 30.135118 30.315281 31.573590 33.233359
31.142857 27.949418 29.185437 30.287883 30.435417 31.764346 33.403424
31.285714 28.054061 29.299662 30.432214 30.560243 31.877574 33.512413
31.428571 28.194502 29.409330 30.579437 30.680395 31.986360 33.766411
31.571429 28.315080 29.520849 30.709260 30.805916 32.098511 33.881961
31.714286 28.445985 29.621961 30.850475 30.929334 32.226159 34.100128
31.857143 28.531243 29.714626 30.961388 31.051152 32.386863 34.317136
32.000000 28.649448 29.811725 31.078058 31.170456 32.519340 34.427778
32.142857 28.786328 29.903841 31.192052 31.289303 32.636522 34.558128
32.285714 29.035210 30.026287 31.305830 31.410883 32.797908 34.812943
32.428571 29.124079 30.143516 31.432840 31.533567 32.963092 34.938188
32.571429 29.209883 30.290969 31.553198 31.657772 33.073790 35.141955
32.714286 29.346452 30.389125 31.663476 31.786364 33.190088 35.435086
32.857143 29.482803 30.506098 31.755100 31.915894 33.385729 35.569884
33.000000 29.631999 30.631888 31.871678 32.042976 33.502704 35.693690
33.142857 29.772004 30.732998 31.983618 32.168037 33.692836 35.886518
33.285714 29.863025 30.847074 32.085845 32.291424 33.841496 36.044434
33.428571 29.968570 30.927908 32.179124 32.417537 34.003140 36.180187
33.571429 30.043972 31.017284 32.291615 32.543164 34.130959 36.341297
33.714286 30.153708 31.144797 32.427494 32.674106 34.250913 36.447745
33.857143 30.231544 31.256881 32.539890 32.805186 34.402441 36.562059
34.000000 30.379258 31.351665 32.687013 32.939292 34.546713 36.680655
34.142857 30.482129 31.456879 32.819960 33.075320 34.700040 36.802631
34.285714 30.648312 31.563641 32.981739 33.209732 34.822608 37.010635
34.428571 30.780241 31.665271 33.119611 33.343561 34.972211 37.153518
34.571429 30.927446 31.771694 33.258263 33.485021 35.182879 37.318256
34.714286 31.069358 31.941666 33.431655 33.625318 35.360299 37.456093
34.857143 31.204660 32.057828 33.546495 33.766844 35.533647 37.610025
35.000000 31.308539 32.171641 33.676240 33.904161 35.670607 37.735687
35.142857 31.395088 32.277951 33.783023 34.044988 35.826508 37.956382
35.285714 31.462200 32.390659 33.911590 34.186723 36.014958 38.153467
35.428571 31.542901 32.499046 34.005297 34.331849 36.152298 38.380514
35.571429 31.654325 32.612759 34.126958 34.472071 36.267295 38.560111
35.714286 31.772847 32.693335 34.241402 34.611970 36.419370 38.782343
35.857143 31.859360 32.817551 34.372201 34.756694 36.607063 39.059178
36.000000 31.931114 32.936419 34.504400 34.899416 36.733448 39.165157
36.142857 32.009878 33.053768 34.624324 35.037652 36.926379 39.359933
36.285714 32.098899 33.176953 34.782782 35.176137 37.120551 39.649259
36.428571 32.174591 33.335967 34.929965 35.310666 37.273203 39.744259
36.571429 32.285399 33.478593 35.045756 35.440132 37.438870 39.870930
36.714286 32.390589 33.557021 35.181662 35.573042 37.588255 40.065814
36.857143 32.533828 33.668724 35.315260 35.706152 37.739811 40.329293
37.000000 32.640044 33.814570 35.431016 35.835859 37.847328 40.461913
37.142857 32.735551 33.935007 35.599929 35.975077 38.002399 40.562529
37.285714 32.813522 34.068087 35.754920 36.109398 38.161833 40.980965
37.428571 32.877987 34.148934 35.879101 36.238820 38.308452 41.160151
37.571429 32.983232 34.251289 36.024281 36.373326 38.510272 41.327851
37.714286 33.053158 34.362806 36.214761 36.505717 38.669726 41.724971
37.857143 33.152967 34.505280 36.448655 36.637190 38.804516 41.893743
38.000000 33.303010 34.619465 36.618272 36.768415 38.927837 42.012911
38.142857 33.375507 34.691314 36.783736 36.901764 39.075108 42.149771
38.285714 33.455741 34.824180 36.918239 37.028975 39.236790 42.258940
38.428571 33.570081 34.935448 37.047663 37.158921 39.368372 42.475913
38.571429 33.653098 35.043983 37.229800 37.288481 39.549460 42.554228
38.714286 33.742400 35.154065 37.365891 37.421670 39.678176 42.758950
38.857143 33.850920 35.249690 37.526984 37.556233 39.846241 42.929346
39.000000 33.905576 35.377956 37.632301 37.687654 39.994543 43.027425
39.142857 34.018376 35.473987 37.729501 37.817813 40.179661 43.139485
39.285714 34.120565 35.591834 37.885778 37.946979 40.321851 43.324270
39.428571 34.231073 35.677907 38.015793 38.081075 40.466148 43.471233
39.571429 34.365431 35.793351 38.153873 38.210378 40.619921 43.655178
39.714286 34.451265 35.886920 38.249093 38.340661 40.750141 43.898540
39.857143 34.537749 36.007244 38.365511 38.471662 40.882684 44.056272
40.000000 34.620795 36.124001 38.458276 38.602462 41.001802 44.216291
40.142857 34.705728 36.270450 38.555185 38.734115 41.164423 44.317186
40.285714 34.804806 36.418982 38.675091 38.874523 41.272713 44.384168
40.428571 34.936494 36.556469 38.792956 39.010194 41.403782 44.543098
40.571429 35.007644 36.718840 38.900765 39.146838 41.545187 44.610376
40.714286 35.127419 36.829061 39.056585 39.287835 41.675247 44.718277
40.857143 35.228451 36.955401 39.189858 39.425798 41.820370 44.945837
41.000000 35.357478 37.068810 39.296234 39.569153 41.922822 45.117496
41.142857 35.477319 37.179013 39.412939 39.710603 42.064447 45.281571
41.285714 35.574064 37.308365 39.524662 39.844897 42.192994 45.411786
41.428571 35.696706 37.444951 39.720766 39.987054 42.316550 45.560006
