depth(m) lower_95(kyr) lower_68(kyr) median(kyr) mean(kyr) upper_68(kyr) upper_95(kyr)
0.100000 1.268555 2.060105 2.828261 2.813894 3.537388 4.327775
0.234000 1.945407 2.813562 3.537790 3.565746 4.300873 5.283923
0.368000 2.572133 3.473402 4.280480 4.308443 5.137545 6.240136
0.502000 3.243220 4.180374 5.014558 5.062204 5.915177 7.082549
0.636000 3.968368 4.912320 5.808789 5.826706 6.734283 7.877260
0.770000 4.714821 5.694758 6.562669 6.611371 7.596825 8.634920
0.870000 5.351590 6.293822 7.144101 7.226345 8.233463 9.352794
0.970000 5.924893 6.871652 7.762697 7.835259 8.837093 9.892437
1.103333 6.821531 7.726011 8.686546 8.728743 9.766763 10.663599
1.236667 7.670474 8.651262 9.703483 9.658994 10.661155 11.569693
1.370000 8.482576 9.665715 10.680871 10.621558 11.599645 12.359086
1.470000 9.282530 10.364438 11.452805 11.370639 12.353560 13.031516
1.570000 10.054082 11.155575 12.130439 12.073021 12.994707 13.614356
1.703333 10.821554 12.000679 12.961014 12.887100 13.775326 14.439829
1.836667 11.894271 12.918094 13.719531 13.694888 14.491837 15.149168
1.970000 12.797804 13.717859 14.508113 14.465017 15.197233 15.923506
2.070000 13.462299 14.283714 15.027019 15.018032 15.754302 16.560399
2.170000 14.072686 14.842072 15.587841 15.578021 16.271729 17.093298
2.303333 14.874842 15.538930 16.362263 16.348563 17.127302 17.932465
2.436667 15.640517 16.298220 17.108953 17.137472 17.986038 18.824669
2.570000 16.321459 17.079455 17.881381 17.933683 18.794103 19.752234
2.670000 16.869579 17.635680 18.467679 18.525995 19.385735 20.461181
2.770000 17.448907 18.236268 19.080445 19.131456 20.032151 21.193660
2.910000 18.206215 19.027560 19.860254 19.927092 20.802936 22.138459
3.010000 18.831916 19.578251 20.437514 20.518054 21.436555 22.900202
3.110000 19.306147 20.110182 21.010924 21.094045 22.066705 23.630023
3.170000 19.703353 20.450397 21.339842 21.463423 22.436964 24.005876
3.310000 20.467023 21.255974 22.129647 22.295510 23.410408 24.952403
3.370000 20.807445 21.617705 22.491891 22.683703 23.848712 25.395629
3.510000 21.546008 22.390907 23.372235 23.574975 24.836797 26.497554
3.610000 22.078828 22.971804 24.053967 24.243969 25.578643 27.389358
3.710000 22.643578 23.536088 24.672485 24.895069 26.284073 28.207658
3.770000 23.007839 23.908061 25.134848 25.292265 26.709455 28.620967
3.910000 23.881206 24.798377 26.019312 26.206427 27.616065 29.546816
3.970000 24.264904 25.191978 26.463413 26.621957 28.056257 29.954476
4.110000 25.117314 26.155583 27.526566 27.607594 29.087252 30.784291
4.243333 25.989574 27.089625 28.522535 28.608702 30.088806 31.846222
4.376667 26.896911 28.052959 29.482055 29.577651 30.985788 33.014177
4.510000 27.742601 29.028498 30.491640 30.557045 32.016959 33.990293
4.610000 28.337911 29.746482 31.174754 31.261103 32.722152 34.827159
4.710000 28.902430 30.429435 31.901696 31.951533 33.475248 35.593878
4.843333 29.705245 31.321940 32.738422 32.867629 34.460008 36.585202
4.976667 30.615199 32.178125 33.575936 33.752215 35.437358 37.684942
5.110000 31.535524 33.022264 34.521380 34.683621 36.365062 38.658992
5.210000 32.146342 33.647683 35.190825 35.348862 37.094798 39.397955
5.310000 32.693913 34.262061 35.853512 36.018551 37.791158 40.059651
5.410000 33.246591 34.911770 36.549376 36.676784 38.429134 40.634054
5.510000 33.987294 35.579255 37.224274 37.338450 39.084732 41.293386
5.610000 34.596027 36.215343 37.918635 37.990550 39.724518 42.348351
5.710000 35.202999 36.823920 38.572867 38.645512 40.385054 42.903276
5.810000 35.794411 37.410932 39.219747 39.298609 41.043805 43.850605
5.910000 36.567066 38.084387 39.898604 39.958366 41.593638 44.448972
6.050000 37.449648 38.978384 40.925157 40.924079 42.589970 45.354998
6.150000 38.106710 39.646804 41.616624 41.610258 43.310137 46.236972
6.250000 38.594698 40.248602 42.252250 42.302065 44.056503 47.135271
6.310000 38.911156 40.602195 42.624215 42.718186 44.510229 47.663474
6.450000 39.765833 41.532633 43.630605 43.710007 45.614476 48.551888
6.510000 40.117944 42.024931 44.086582 44.130922 46.061912 49.063759
6.650000 40.770415 42.855811 45.092385 45.109255 47.126463 49.985180
6.710000 41.119103 43.276838 45.548105 45.549799 47.536752 50.520826
6.850000 42.063790 44.288556 46.608530 46.613968 48.658567 51.717123
6.950000 42.687000 44.969971 47.422305 47.421780 49.462079 52.549028
7.050000 43.419486 45.836711 48.242327 48.253872 50.304334 53.594514
7.150000 44.398784 46.712001 49.065780 49.112996 51.240262 55.074276
7.250000 45.092745 47.532612 49.897175 49.971028 52.236337 55.780534
7.388462 46.323161 48.723677 51.111027 51.210852 53.498687 56.912941
7.526923 47.456443 49.974238 52.374811 52.453577 54.868348 57.868349
7.665385 48.498204 51.173575 53.609728 53.663181 56.156079 59.116240
7.803846 49.720057 52.416490 54.866413 54.882311 57.459123 60.113525
7.942308 50.916256 53.742454 56.097877 56.082697 58.585636 61.080584
8.080769 52.006553 54.854442 57.300892 57.292682 59.790454 62.116422
8.219231 53.535664 56.168915 58.542835 58.614549 60.978614 63.081467
8.357692 55.037068 57.609889 59.869942 59.891814 62.370304 64.279633
8.496154 56.469627 58.922226 61.229881 61.158853 63.512416 65.294866
8.634615 57.915597 60.322087 62.510052 62.486252 64.683863 66.587807
8.773077 59.550084 61.728507 63.838582 63.770527 65.754562 67.482240
8.911538 61.094433 63.224562 65.148045 65.062980 66.921471 68.472134
9.050000 62.564364 64.713824 66.485538 66.353929 68.035878 69.400553
9.150000 63.468562 65.686274 67.400916 67.282267 68.890555 70.286697
9.250000 64.503951 66.629880 68.304778 68.173033 69.705258 71.006318
9.350000 65.752820 67.674512 69.188316 69.124320 70.568447 71.920594
9.450000 66.821794 68.733579 70.164443 70.094688 71.456408 72.817874
9.550000 68.217485 69.801390 71.049384 71.049431 72.296220 73.805317
9.650000 69.475707 70.780728 72.019649 72.029725 73.312058 74.748240
9.750000 70.530127 71.724064 72.924290 72.991975 74.296370 75.693851
9.850000 71.473945 72.581345 73.823907 73.906955 75.183725 76.811218
9.950000 72.412241 73.352769 74.642579 74.733373 76.110837 77.657641
10.050000 73.048087 74.111007 75.458444 75.549762 77.001222 78.417423
10.150000 73.833651 74.924532 76.316871 76.362223 77.804305 79.126049
10.250000 74.622099 75.778873 77.212390 77.209429 78.649442 79.737064
10.350000 75.371754 76.686474 78.129936 78.081289 79.483140 80.473325
10.450000 76.325925 77.683660 79.023263 78.980203 80.287555 81.303697
10.550000 77.345543 78.631980 79.959281 79.869225 81.072661 82.078771
10.650000 78.301524 79.620179 80.873296 80.768644 81.845139 82.877686
10.750000 79.253899 80.506265 81.657434 81.572078 82.622587 83.555521
10.850000 80.142679 81.334446 82.418229 82.353798 83.354491 84.233014
10.950000 80.896993 82.065989 83.118688 83.067902 84.013548 84.819388
11.050000 81.722920 82.825012 83.806518 83.757813 84.693982 85.533565
11.150000 82.443773 83.521525 84.449969 84.422728 85.326519 86.153793
11.250000 83.140310 84.207655 85.125206 85.079580 85.940528 86.804765
11.350000 83.854411 84.859190 85.766888 85.739438 86.574011 87.489332
11.450000 84.575116 85.526961 86.416151 86.421172 87.267591 88.261779
11.550000 85.481864 86.237944 87.110192 87.165311 88.042541 89.261686
11.650000 86.108817 86.957788 87.824044 87.888380 88.795730 90.254907
11.750000 86.817269 87.646638 88.556258 88.655611 89.627186 91.009959
11.850000 87.558415 88.427207 89.364632 89.448034 90.492917 91.922743
11.950000 88.262969 89.101478 90.131494 90.229240 91.359998 92.765436
12.050000 88.902383 89.849520 90.935489 91.026191 92.265334 93.548614
12.150000 89.551418 90.624505 91.736036 91.825597 93.080973 94.536961
12.250000 90.263131 91.392745 92.616612 92.673593 93.926984 95.319282
12.370000 91.161425 92.310512 93.639008 93.673348 95.012250 96.527975
12.450000 91.757348 93.008631 94.392991 94.416842 95.792330 97.569670
12.570000 92.962346 94.108747 95.559667 95.596756 97.017552 98.738552
12.650000 93.591841 94.835583 96.325699 96.422734 97.956148 99.641673
12.770000 94.654796 96.049964 97.568706 97.666393 99.283669 101.158778
12.850000 95.326531 96.953387 98.506353 98.553068 100.174435 102.049859
12.970000 96.563367 98.121896 99.744705 99.798130 101.458772 103.408062
13.050000 97.309604 98.858724 100.587345 100.586109 102.252802 104.004083
13.170000 98.418191 99.992258 101.784415 101.784581 103.476060 105.434017
13.250000 99.215882 100.750848 102.573485 102.549200 104.183875 106.009005
13.370000 100.305021 101.990912 103.760419 103.744127 105.322736 107.376554
13.450000 100.942724 102.755350 104.537256 104.512764 106.050339 108.451861
13.520000 101.587840 103.630867 105.294221 105.251042 106.677391 109.342882
13.570000 102.009650 104.196249 105.778500 105.751396 107.159256 109.965571
13.620000 102.482680 104.666365 106.330085 106.255005 107.607700 110.531753
13.650000 102.718893 104.945939 106.606696 106.557569 107.921279 110.885102
13.720000 103.393941 105.972745 107.497974 107.452544 108.782551 111.985088
13.770000 103.934418 106.731627 108.106856 108.076569 109.408415 112.429272
13.820000 104.370697 107.389991 108.761111 108.733230 110.079781 113.057566
13.850000 104.678938 107.707361 109.104947 109.076892 110.453265 113.350023
13.920000 105.359849 108.799655 110.182997 110.131388 111.658177 114.038358
13.970000 106.026840 109.568021 110.884601 110.832246 112.250982 114.493860
14.020000 106.675741 110.343868 111.563132 111.527315 112.863599 114.966427
14.050000 106.977779 110.713863 111.922467 111.873386 113.176479 115.249875
14.070000 107.249432 110.925594 112.169905 112.105143 113.455460 115.472251
14.120000 107.900677 111.807565 112.915679 112.894042 114.250443 116.185469
14.170000 108.979401 112.461725 113.571850 113.568278 114.948110 116.662294
14.220000 109.442413 112.993257 114.126908 114.162616 115.605021 117.203998
14.230000 109.574138 113.118222 114.226516 114.262941 115.718198 117.273400
14.270000 111.293488 113.592320 114.756837 114.772645 116.256179 117.734774
14.320000 111.990977 114.190372 115.406754 115.407154 116.887502 118.403444
14.410000 113.889830 115.317014 116.698642 116.676339 118.152503 119.645448
14.490000 114.734299 116.261020 117.700757 117.653591 119.062291 120.525573
14.570000 115.873840 117.218136 118.705303 118.627757 120.006731 121.239300
14.670000 117.371488 118.715383 120.094840 120.027770 121.301868 122.287236
14.770000 118.574059 119.937774 121.221024 121.115385 122.311676 123.172597
14.790000 118.748594 120.126914 121.375081 121.298528 122.464739 123.337709
14.870000 119.559144 120.863405 122.082181 121.950745 123.060637 123.907377
14.970000 120.599884 121.683049 122.820573 122.730621 123.709073 124.515896
15.070000 121.469478 122.413224 123.540311 123.443054 124.362214 125.140467
15.170000 122.391165 123.245000 124.252273 124.162616 124.996374 125.713562
15.220000 122.781559 123.646585 124.643489 124.540159 125.341688 126.068514
15.270000 123.196571 124.073468 125.010810 124.920451 125.696001 126.486156
15.320000 123.602933 124.447781 125.369824 125.305528 126.101532 126.866470
15.370000 124.019769 124.857652 125.740002 125.696394 126.503071 127.263110
15.420000 124.431959 125.306546 126.161335 126.120978 126.920436 127.716892
15.470000 124.937983 125.767450 126.598278 126.582386 127.396099 128.196811
15.520000 125.384586 126.262267 127.074835 127.078528 127.899112 128.794788
15.570000 125.741698 126.750507 127.589044 127.608310 128.494381 129.485763
15.620000 126.205688 127.230487 128.085899 128.112565 129.011596 130.004096
15.695000 126.990543 127.956045 128.920285 128.996032 130.044790 131.296856
15.770000 127.808919 128.778488 129.883684 129.988344 131.121358 132.868904
15.870000 128.886957 130.069668 131.304427 131.473778 132.977148 135.006534
15.970000 129.939334 131.308827 132.817603 132.928646 134.553732 136.380935
16.103333 131.287286 132.841147 134.510058 134.627751 136.490762 138.197584
16.236667 132.757053 134.419062 136.204231 136.214731 138.028948 139.703360
16.370000 134.360645 136.061507 137.864280 137.806166 139.524939 141.224228
16.450000 135.093044 136.777317 138.686303 138.579755 140.235410 141.968044
16.550000 136.206207 137.686627 139.641431 139.500353 141.179334 142.822523
16.650000 136.962258 138.607019 140.637382 140.400805 141.851279 143.781204
16.745000 137.589041 139.304122 141.439907 141.213998 142.689369 144.706029
16.840000 138.389624 140.072172 142.283621 142.030114 143.508617 145.815213
16.850000 138.480541 140.154278 142.357914 142.114227 143.580055 145.890977
16.950000 139.340662 141.021320 143.029400 142.911331 144.475424 146.577575
17.050000 140.099863 141.962660 143.777188 143.711832 145.293513 147.337519
17.150000 140.877174 142.910580 144.508159 144.530431 146.194002 148.030518
17.250000 141.628398 143.711899 145.266817 145.368766 147.141716 149.013674
17.350000 142.381595 144.487159 146.029999 146.202248 148.096703 150.087207
17.450000 143.104438 145.183667 146.884354 146.993227 148.988492 150.928869
17.550000 143.908168 145.908661 147.632030 147.761117 149.854972 151.638979
17.650000 144.653316 146.665220 148.428800 148.563085 150.703030 152.419852
17.750000 145.428095 147.400743 149.304822 149.341583 151.466210 153.059532
17.850000 146.154925 148.048420 150.106268 150.104664 152.349604 153.777847
17.950000 146.899525 148.845233 150.844666 150.848683 153.013147 154.454662
18.050000 147.536230 149.588074 151.606793 151.593161 153.750385 155.109394
18.150000 148.153800 150.296190 152.492518 152.367898 154.505868 155.778717
18.250000 148.775997 151.066605 153.281340 153.109903 155.173654 156.347427
18.350000 149.293265 151.835621 154.066350 153.852215 155.905067 156.976787
18.450000 150.089565 152.582506 154.820745 154.578834 156.541420 157.634172
18.550000 150.877923 153.332876 155.533116 155.297061 157.177308 158.284407
18.650000 151.577081 154.104673 156.224816 156.008232 157.839919 158.893184
18.750000 152.156921 154.955227 156.937889 156.698980 158.460434 159.549556
18.850000 152.914425 155.756245 157.654132 157.396174 159.119378 160.151440
18.950000 153.908185 156.450061 158.307923 158.077505 159.705285 160.821241
19.050000 154.779218 157.203418 158.978675 158.740546 160.319330 161.553773
19.150000 155.358126 157.888107 159.618239 159.416334 160.938195 162.149585
19.250000 156.110905 158.616867 160.323866 160.112091 161.554305 162.862301
19.350000 156.767589 159.304847 160.988716 160.790694 162.308236 163.630240
19.450000 157.464956 160.031812 161.633935 161.457488 162.936942 164.519167
19.550000 158.194396 160.718329 162.371880 162.181101 163.674441 165.313117
19.650000 159.078420 161.375311 163.051708 162.891794 164.338199 166.157304
19.750000 159.758997 162.126797 163.699528 163.632245 165.105563 167.176667
19.850000 160.525118 162.811210 164.362028 164.380647 165.953584 168.561758
19.983333 161.426469 163.634555 165.294464 165.377855 167.002975 170.389289
20.116667 162.209399 164.472815 166.220804 166.390372 168.215792 171.930782
20.250000 163.266477 165.507193 167.136027 167.417001 169.318409 173.471817
20.350000 164.212686 166.229371 167.857403 168.281619 170.442954 174.569604
20.450000 165.134657 167.042800 168.665042 169.148486 171.506223 175.786473
20.550000 165.860176 167.748031 169.505342 170.085165 172.774655 176.808570
20.650000 166.603855 168.538207 170.473689 171.059788 174.242284 177.599082
20.783333 167.946932 169.529369 171.645510 172.390911 176.019292 178.652265
20.916667 169.036185 170.611385 173.104022 173.727036 177.523062 179.559920
21.050000 170.056045 171.696139 174.746919 175.055126 178.987932 180.622902
21.150000 170.910471 172.628169 175.771813 176.023062 180.046850 181.489331
21.250000 171.803441 173.561927 176.832443 177.002126 180.974995 182.306123
21.345000 172.646000 174.548533 177.861048 177.971346 181.763377 183.146402
21.440000 173.497332 175.545420 178.892035 178.937060 182.528419 183.928787
21.545000 174.576087 176.528819 180.106816 180.000465 183.349501 184.848637
21.650000 175.575308 177.558192 181.271579 181.026288 184.228543 185.684133
21.750000 176.349888 178.533922 182.408229 181.988155 185.111628 186.617428
21.850000 177.425334 179.619366 183.554020 182.963371 185.923323 187.358055
21.983333 178.637660 181.115797 184.923540 184.336805 187.044024 188.523587
22.116667 179.914942 182.747960 186.238871 185.711742 188.239689 189.760908
22.250000 181.536307 184.614722 187.460593 187.055705 189.227139 190.921554
22.383333 183.071561 186.062158 188.603890 188.322481 190.290485 192.072620
22.516667 184.704916 187.677267 189.883761 189.602542 191.415953 193.488605
22.650000 186.915477 189.062370 190.924731 190.884300 192.578485 194.737840
22.783333 188.315212 190.230551 191.941121 192.042103 193.862259 196.727563
22.916667 189.821650 191.438648 192.954010 193.211424 195.010756 198.422870
23.050000 190.953091 192.538278 194.005668 194.394305 196.183467 199.843670
23.150000 191.887163 193.370226 194.838531 195.306050 197.271752 201.042812
23.250000 192.857440 194.285526 195.765315 196.275044 198.367852 201.885075
23.350000 193.763707 195.220391 196.839164 197.295677 199.527637 202.793916
23.450000 194.795732 196.150781 197.869643 198.315809 200.714878 203.918537
23.550000 195.681915 197.087764 199.067806 199.386980 201.849419 205.169569
23.650000 196.780374 198.067360 200.130284 200.419932 202.912143 206.184689
23.750000 197.550530 199.209008 201.302586 201.550837 204.059261 206.868039
23.850000 198.368866 200.433576 202.589839 202.712518 205.128069 207.601993
23.950000 199.362409 201.566990 203.722172 203.848329 206.212415 208.428625
24.050000 200.209985 202.631819 204.984275 204.940709 207.241443 209.237965
24.150000 201.575052 203.783136 206.136275 206.030882 208.207288 210.024858
24.250000 202.734067 205.043345 207.358057 207.150269 209.205536 210.739507
24.350000 203.836554 206.283899 208.439818 208.264751 210.174649 211.498955
24.450000 205.009599 207.595143 209.632144 209.392560 211.143094 212.288679
24.550000 206.569677 209.059381 210.891584 210.590691 212.095293 213.046943
24.650000 207.988157 210.645728 211.977159 211.763015 213.004619 213.752649
24.745000 209.291301 211.755848 213.012837 212.762228 213.850150 214.465822
24.840000 210.184349 212.983752 214.003420 213.764360 214.652286 215.273693
24.850000 210.331196 213.100673 214.104612 213.863115 214.746031 215.366505
24.950000 212.144022 214.089501 214.927009 214.766592 215.545346 216.201361
25.050000 213.824303 215.013776 215.717873 215.666618 216.363033 217.250053
25.145000 214.920087 215.798233 216.466144 216.485360 217.157658 218.213895
25.240000 215.902446 216.574634 217.194690 217.318038 217.974116 219.171954
25.250000 215.992965 216.664318 217.293508 217.419015 218.102917 219.319235
25.360000 217.061540 217.741807 218.560098 218.818551 219.729266 222.696816
25.480000 218.031017 218.921885 220.182154 220.526678 222.121328 225.231424
25.600000 218.982431 220.339742 222.028259 222.317755 224.467274 226.987843
25.720000 220.233040 221.927106 224.081046 224.082366 226.236792 228.251814
25.840000 221.813766 223.904550 225.855624 225.798915 227.871326 229.430898
25.940000 223.012707 225.079484 226.992967 226.942505 228.869200 230.408779
26.040000 224.582549 226.466878 228.171085 228.108349 229.828414 231.207556
26.135000 225.620322 227.479826 229.132024 229.077351 230.685943 231.946350
26.230000 226.744550 228.414646 230.094141 229.977184 231.485112 232.525261
26.335000 227.825668 229.546900 230.998207 230.905309 232.309215 233.274711
26.440000 229.168993 230.632117 231.924609 231.856790 233.097997 233.960491
26.580000 230.863292 232.034093 233.190884 233.117425 234.185899 235.053349
26.640000 231.627013 232.708715 233.758825 233.717597 234.727948 235.671959
26.650000 231.738036 232.821148 233.862558 233.822997 234.822018 235.765640
26.780000 233.711575 234.412295 235.408226 235.381050 236.309213 237.307436
26.840000 234.386302 235.163028 236.082360 236.117006 237.096683 238.034821
26.900000 235.014604 235.890254 236.897933 236.891073 237.845929 238.726419
27.030000 236.065393 237.405252 238.539904 238.443613 239.465192 240.279294
27.040000 236.184884 237.490389 238.643714 238.557806 239.568786 240.401106
