depth(m) lower_95(kyr) lower_68(kyr) median(kyr) mean(kyr) upper_68(kyr) upper_95(kyr)
0.400000 10.036319 10.717775 11.302999 11.315459 11.937531 12.529448
0.500000 11.246443 11.857219 12.446808 12.453520 13.079197 13.654856
0.600000 12.313069 12.936312 13.568474 13.562642 14.177828 14.802780
0.680000 13.197838 13.806462 14.424167 14.454765 15.122545 15.895266
0.800000 14.642585 15.249092 15.922792 16.014039 16.781433 17.831364
0.900000 15.828781 16.510585 17.329147 17.479267 18.399374 20.086058
0.980000 16.811471 17.581729 18.505089 18.678609 19.796465 21.553537
1.100000 18.338542 19.185923 20.292798 20.486679 21.765046 23.648409
1.200000 19.423715 20.497817 21.845697 22.048406 23.580141 25.535012
1.300000 20.845536 22.039227 23.533630 23.718977 25.468369 27.273326
1.400000 22.059735 23.588143 25.254246 25.402250 27.344773 29.204595
1.500000 23.397327 25.319325 27.138307 27.274761 29.325156 31.089616
1.600000 25.338500 27.127607 29.174072 29.247134 31.347791 33.348451
1.700000 27.388558 29.213464 31.320320 31.392280 33.567663 35.786040
1.800000 29.238340 31.021965 33.142408 33.340526 35.576672 38.192705
1.900000 30.872309 32.845636 35.076594 35.225594 37.660679 40.021286
2.000000 32.597378 34.727199 36.982500 37.053360 39.623964 42.167990
2.100000 34.247858 36.393956 38.889071 38.889807 41.303451 44.266515
2.200000 35.924418 38.204679 40.836343 40.750820 43.160554 45.753172
2.300000 37.282384 39.850522 42.687634 42.550041 44.951169 47.541818
2.400000 39.008717 41.590565 44.422352 44.298382 46.757391 49.126254
2.470000 40.294965 42.921883 45.684853 45.513741 47.970306 50.229914
2.580000 42.377485 44.956985 47.625352 47.416069 49.627328 51.978559
2.700000 44.444111 47.146714 49.698929 49.453311 51.566609 53.561873
2.800000 46.244772 49.060035 51.369278 51.153803 53.143066 55.191703
2.900000 48.188383 50.798698 52.972355 52.819271 54.703609 56.676717
3.000000 49.767861 52.519294 54.568387 54.427919 56.305501 58.200379
3.100000 51.347903 54.103645 56.255006 56.032278 58.020738 59.715613
3.200000 52.967198 55.678005 57.814212 57.641569 59.545049 61.318488
3.300000 55.015071 57.550066 59.460079 59.357022 61.233515 63.058576
3.400000 56.874466 59.466353 61.286522 61.185417 63.010059 64.678394
3.500000 59.239223 61.291853 63.198756 63.083122 64.809962 66.598707
3.600000 61.426818 63.282799 65.047551 64.964325 66.643179 68.477602
3.700000 63.359835 65.103417 66.899506 66.818247 68.416774 69.953084
3.800000 65.240103 67.276318 68.837734 68.753540 70.301586 71.595303
3.900000 68.199511 69.508511 70.864828 70.903846 72.352085 73.870625
3.970000 69.419709 70.791323 72.180462 72.292103 73.861202 75.585430
4.000000 70.069498 71.511180 72.903020 73.035948 74.644499 76.518330
4.100000 72.044986 73.942815 76.019738 76.235184 78.524531 80.553404
4.200000 75.126622 78.421373 81.142482 81.040738 82.946575 86.307733
4.300000 77.914964 82.135770 83.816548 84.094641 85.445841 95.637744
4.400000 79.966389 84.503291 86.121226 86.990071 89.306532 98.779539
4.500000 81.708357 87.292241 90.298511 90.995472 95.495948 100.952206
4.600000 83.955804 90.123739 95.568273 94.744382 98.983583 103.079049
4.700000 85.763608 93.630597 98.127419 97.512515 101.520748 104.810285
4.780000 87.885326 95.617855 99.862288 99.375559 103.316871 106.657958
4.900000 92.806144 98.259471 102.523134 102.128041 105.949455 109.246428
5.000000 96.159884 100.175766 104.757174 104.374032 108.347527 111.423969
5.100000 98.531550 102.330732 106.805553 106.572257 110.768319 113.430552
5.200000 100.542538 104.599997 109.181524 108.867232 113.105290 115.236198
5.300000 102.523912 107.063553 111.548324 111.075215 114.926148 116.893757
5.400000 104.571858 110.054964 113.749478 113.264439 116.663600 118.571580
5.500000 107.528748 112.428618 115.704096 115.275941 118.331926 120.139438
5.600000 110.613678 114.552814 117.632072 117.278664 120.146464 121.711405
5.700000 113.703506 116.727943 119.584218 119.376858 122.036211 123.627308
5.800000 116.079033 118.871028 121.492271 121.343090 123.952413 125.662525
5.900000 117.959374 120.560747 123.317650 123.160989 125.645567 127.476527
6.000000 119.883206 122.518688 125.379176 125.051969 127.346194 128.868370
6.100000 122.673592 125.086885 127.278408 127.043610 128.911500 130.436149
6.200000 125.976886 127.798384 129.413334 129.301528 130.841870 132.311173
6.280000 128.507075 129.969508 131.388144 131.358768 132.712144 134.297203
6.400000 131.372304 133.003099 134.360083 134.420328 135.782800 137.626526
6.500000 133.331234 134.986593 136.467445 136.572640 138.120976 140.212858
6.600000 135.336033 137.101051 138.595976 138.757336 140.347922 143.155399
6.700000 137.442503 138.924064 140.644613 140.846526 142.592459 145.759685
6.800000 139.144526 140.840252 142.782536 143.007763 145.001758 148.900446
6.900000 140.803045 142.763134 145.091249 145.413740 147.959004 151.884895
7.000000 142.622662 144.676362 147.297519 147.733203 150.845297 154.818648
7.100000 144.208927 146.574279 149.870071 150.090074 153.667084 157.586099
7.200000 145.886008 148.788982 152.449957 152.456237 156.022029 159.397244
7.300000 147.705162 150.888000 154.896473 154.717190 158.152462 161.273033
7.400000 150.045723 153.089797 157.403047 156.995784 160.222614 163.296108
7.500000 152.163201 155.699015 159.574260 159.339689 162.548469 166.490360
7.600000 154.673167 158.146664 161.589620 161.715471 165.027806 170.709211
7.700000 157.542038 160.494371 163.476954 164.142567 167.574173 175.478170
7.780000 159.998417 162.474138 165.301432 166.324648 170.867056 177.986237
7.840000 161.941463 164.074015 166.763591 168.074911 174.074343 179.903716
7.900000 163.535761 165.622002 168.316719 169.905381 176.351455 181.952020
7.930000 164.355868 166.476764 169.137540 170.764130 177.257797 182.751839
8.000000 165.970029 168.446055 171.301534 173.087295 179.999276 184.568182
8.050000 167.419740 170.142395 173.210590 174.759248 181.444261 186.270633
8.100000 168.568603 171.456185 175.216306 176.585556 183.204980 187.452733
8.170000 170.635918 173.912063 178.276950 179.417305 186.213523 190.051631
8.300000 175.018027 181.355146 189.450269 188.471163 194.183723 198.780097
8.430000 190.296814 194.350491 197.007968 196.957559 199.499850 202.992170
8.540000 193.686283 197.631443 200.497955 200.394091 203.272366 206.073652
8.640000 196.264450 200.315218 203.654075 203.256801 206.317673 208.147506
8.740000 198.505089 202.803997 206.459411 205.892629 208.917219 210.342226
8.840000 200.985017 205.451430 209.124979 208.386909 210.910969 212.316722
8.945000 203.786209 208.228379 211.375473 210.715056 212.896196 214.266174
9.050000 207.312821 211.145726 213.506465 213.007647 214.820529 215.984791
9.150000 209.967673 213.689873 215.409273 215.125560 216.720227 218.221790
9.255000 213.435567 216.142000 217.564602 217.506780 219.010118 221.086173
9.360000 217.106867 218.513038 219.804073 219.930409 221.445401 223.330427
9.500000 219.504592 220.976251 222.593161 222.707230 224.530787 226.473235
9.590000 221.126727 222.568732 224.419700 224.528436 226.493796 228.626136
9.680000 222.702019 224.360813 226.246219 226.341305 228.354996 230.504401
9.786667 224.597616 226.548732 228.534739 228.619118 230.695414 232.955165
9.893333 227.199152 229.112227 230.948969 231.045267 232.965191 235.137648
10.000000 229.575541 231.853621 233.527151 233.596414 235.364541 237.687023
10.075000 231.682028 233.889733 235.574302 235.695994 237.771290 239.558699
10.150000 234.206406 236.086375 237.828757 237.848198 239.831939 241.372570
10.225000 236.336069 238.448181 240.157026 240.076538 241.876344 243.351527
10.300000 238.734316 241.002866 242.332793 242.274181 243.738918 245.160223
10.375000 241.170956 242.961579 244.320007 244.433784 245.950014 248.026823
10.450000 243.604642 244.826174 246.287229 246.527873 248.102999 251.618593
10.540000 245.288980 246.672384 248.317430 248.689388 250.507091 254.967793
10.640000 247.323729 248.801644 250.621724 251.042879 252.965900 257.930674
10.740000 249.049950 250.702773 252.840465 253.399426 256.044920 261.074614
10.840000 250.678946 252.584814 255.305430 255.842422 259.303585 263.570710
10.940000 252.438317 254.615958 257.896570 258.381835 262.231171 265.633422
11.030000 254.196300 256.989280 260.776951 260.809216 264.387567 267.735746
11.170000 257.353304 261.228391 264.867694 264.443250 267.496502 270.101319
11.250000 259.614801 263.555805 266.954251 266.515594 269.107710 271.679614
11.350000 262.466149 266.850741 269.450706 269.035901 271.040848 273.761875
11.445000 264.892052 269.485827 271.645104 271.343748 273.460707 275.673123
11.540000 267.447336 271.976192 273.895184 273.700135 275.768765 277.546973
11.640000 271.054540 274.376903 276.381332 276.166549 278.099983 279.440391
11.740000 274.927768 277.185729 278.912663 278.708294 280.255762 281.432537
11.840000 278.385056 280.060447 281.430634 281.345977 282.627198 283.741146
11.930000 280.631208 281.926143 283.309160 283.238716 284.481881 285.510010
12.020000 282.746446 283.969557 285.119382 285.109105 286.185270 287.157463
12.140000 285.406998 286.530289 287.660823 287.787022 289.088989 290.937583
12.240000 287.363860 288.553544 289.840822 290.137081 291.900110 294.276885
12.360000 289.626760 290.753401 292.557521 292.966388 295.348771 297.862673
12.420000 290.648635 292.003287 294.167161 294.504845 296.988357 300.023621
12.540000 292.840482 294.612814 297.522337 297.670843 300.452468 304.010000
