depth(m) lower_95(kyr) lower_68(kyr) median(kyr) mean(kyr) upper_68(kyr) upper_95(kyr)
0.200000 0.026253 0.130159 0.400960 0.453471 0.738850 1.229458
0.300000 0.311797 0.505253 0.795586 0.831189 1.136484 1.615128
0.400000 0.616252 0.858346 1.164485 1.194615 1.534724 1.972315
0.500000 0.939344 1.194377 1.521018 1.557177 1.899156 2.402962
0.600000 1.233190 1.558152 1.891098 1.914302 2.278549 2.716120
0.700000 1.602674 1.907315 2.250835 2.272490 2.650855 3.055058
0.800000 1.946117 2.250289 2.606191 2.638032 3.041583 3.400576
0.900000 2.275098 2.617955 2.981138 2.999908 3.401323 3.764068
1.000000 2.652875 2.982747 3.349029 3.365916 3.748295 4.156356
1.100000 2.995248 3.321153 3.728366 3.736246 4.140721 4.545510
1.190000 3.333876 3.663758 4.073607 4.070708 4.468636 4.866082
1.280000 3.631443 4.011928 4.413742 4.412928 4.803612 5.197748
1.380000 4.024491 4.387062 4.803915 4.791929 5.172461 5.640495
1.480000 4.444027 4.793048 5.191409 5.185678 5.563258 5.969595
1.510000 4.563684 4.928676 5.322394 5.316819 5.702034 6.100410
1.580000 4.831981 5.232518 5.619015 5.617514 6.007459 6.444790
1.680000 5.167745 5.619145 6.024914 6.032856 6.451110 6.900471
1.780000 5.547249 6.006548 6.429130 6.446728 6.883621 7.368518
1.880000 5.906275 6.411716 6.850613 6.867447 7.335771 7.806365
1.980000 6.356885 6.825608 7.269258 7.292640 7.784110 8.270793
2.080000 6.805478 7.264880 7.680683 7.721787 8.208891 8.745885
2.180000 7.217425 7.674065 8.116534 8.160203 8.690950 9.266007
2.280000 7.693317 8.096312 8.571313 8.621981 9.185688 9.674365
2.380000 8.152389 8.542262 9.069928 9.094350 9.669463 10.178454
2.480000 8.614021 9.028338 9.590350 9.600757 10.174062 10.629572
2.580000 9.045635 9.581360 10.110628 10.119106 10.703341 11.101329
2.680000 9.553551 10.102360 10.665035 10.641477 11.209594 11.575463
2.770000 10.109411 10.629389 11.172157 11.132757 11.646443 12.009853
2.870000 10.675724 11.156001 11.693697 11.645752 12.096387 12.440194
2.970000 11.194145 11.681372 12.162808 12.125912 12.549814 12.860003
3.070000 11.688736 12.190817 12.625274 12.596312 12.993140 13.323340
3.170000 12.185809 12.689028 13.047731 13.035794 13.407146 13.731983
3.270000 12.690345 13.144372 13.479965 13.464049 13.807624 14.110733
3.300000 12.803388 13.287777 13.617892 13.599954 13.949509 14.245157
3.385000 13.211356 13.621260 13.968143 13.946643 14.277240 14.563296
3.470000 13.571959 13.975560 14.317466 14.299814 14.627223 14.972966
3.570000 14.039824 14.392058 14.704462 14.703814 15.031214 15.353668
3.670000 14.477902 14.790068 15.130647 15.126950 15.459336 15.804583
3.700000 14.581291 14.938191 15.275004 15.271622 15.616915 15.959268
3.770000 14.966300 15.285907 15.626579 15.638190 15.987141 16.357855
3.870000 15.448625 15.766280 16.130397 16.136449 16.522360 16.888272
3.970000 15.874727 16.240302 16.616501 16.636424 17.021621 17.455880
4.070000 16.315328 16.682025 17.100834 17.113965 17.501175 17.953302
4.180000 16.778504 17.178186 17.608438 17.611830 18.005759 18.522015
4.270000 17.140410 17.560333 17.997600 18.006944 18.409696 18.941649
4.370000 17.588395 18.003084 18.418312 18.445723 18.855491 19.449895
4.470000 18.009219 18.433279 18.860086 18.883043 19.279868 19.981354
4.510000 18.191647 18.626784 19.071247 19.075119 19.465825 20.195127
4.570000 18.450023 18.882497 19.326420 19.350949 19.750308 20.518960
4.670000 18.853825 19.316645 19.776026 19.803693 20.237585 20.915875
4.700000 19.013266 19.461362 19.914012 19.952219 20.388935 21.092934
4.770000 19.343741 19.765812 20.243239 20.284275 20.729176 21.537652
4.870000 19.760602 20.208994 20.699685 20.753944 21.277330 22.005086
4.970000 20.152213 20.626563 21.148673 21.215607 21.792140 22.522713
5.070000 20.575216 21.055692 21.630443 21.690842 22.303412 23.241473
5.170000 21.046078 21.478837 22.096526 22.179787 22.833668 23.825608
5.300000 21.525125 22.034416 22.735700 22.809547 23.520177 24.603785
5.370000 21.861260 22.369467 23.097846 23.172896 23.930439 25.109686
5.470000 22.309847 22.836486 23.621916 23.689551 24.478618 25.669747
5.570000 22.744905 23.362928 24.147261 24.230839 25.062632 26.168313
5.680000 23.230160 23.928890 24.766591 24.844658 25.762291 26.757776
5.770000 23.638059 24.394907 25.291596 25.356027 26.309439 27.311959
5.870000 24.143035 24.938054 25.883344 25.970993 27.001205 28.274523
5.900000 24.325272 25.119391 26.075034 26.165930 27.221547 28.448845
5.970000 24.727269 25.565942 26.569600 26.655134 27.709765 29.046864
6.070000 25.406483 26.221785 27.353758 27.451822 28.626235 30.017952
6.170000 26.022219 26.921709 28.147396 28.239722 29.463394 31.337794
6.270000 26.563346 27.609310 28.941807 29.027866 30.384993 32.191007
6.370000 27.059926 28.236766 29.716496 29.790962 31.251918 33.114935
6.470000 27.692758 28.928006 30.483345 30.576533 32.191133 33.898891
6.570000 28.368325 29.662115 31.207335 31.328463 33.018825 34.729636
6.670000 29.039550 30.414532 31.970410 32.098976 33.940631 35.571193
6.770000 29.681168 31.205867 32.706842 32.857595 34.720946 36.412020
6.870000 30.249507 31.894606 33.374834 33.577747 35.447996 37.237215
6.970000 30.878207 32.544962 34.182686 34.340973 36.338151 38.144746
7.070000 31.598251 33.182944 34.965169 35.135892 37.323557 39.001323
7.170000 32.309296 33.927565 35.847115 35.946377 38.130855 39.807430
7.270000 33.237966 34.678626 36.620546 36.734410 38.881829 40.760683
7.370000 33.974160 35.408894 37.417150 37.524248 39.706598 41.526005
7.470000 34.610038 36.095879 38.303621 38.316832 40.522399 42.603021
7.570000 35.343435 36.865765 39.044521 39.072576 41.344220 43.383882
7.670000 36.005324 37.648765 39.740030 39.832985 42.130488 44.085795
7.770000 36.653276 38.348845 40.561254 40.607046 42.864947 44.994985
7.870000 37.262194 39.119067 41.323837 41.384717 43.787499 45.835474
7.970000 37.913701 39.873040 42.071792 42.202577 44.656671 46.463749
8.070000 38.787950 40.761481 43.014422 43.071340 45.413284 47.192226
8.170000 39.512537 41.624118 44.013231 43.966105 46.259544 47.987233
8.270000 40.532265 42.611114 45.003134 44.880591 47.132987 48.733122
8.370000 41.336682 43.540417 45.959310 45.771841 47.920359 49.451589
8.470000 42.193483 44.559235 46.849748 46.614664 48.617482 50.081400
8.570000 42.940393 45.563407 47.665280 47.490049 49.372666 50.855636
8.670000 44.453291 46.508859 48.500578 48.355991 50.127216 51.661055
8.770000 45.441895 47.606482 49.384549 49.254919 50.947067 52.446859
8.870000 46.517169 48.659397 50.302780 50.232511 51.879816 53.374204
8.970000 47.611939 49.716523 51.290161 51.240624 52.779531 54.453542
9.070000 48.656920 50.683924 52.171286 52.150205 53.668544 55.498743
9.170000 49.557967 51.619919 53.137718 53.090915 54.635142 56.296569
9.270000 50.454465 52.629860 54.045116 54.011928 55.502803 57.148895
9.370000 51.369590 53.623647 54.922807 54.915288 56.390562 58.039343
9.470000 52.221284 54.508928 55.828778 55.803982 57.285599 58.957763
9.570000 53.309696 55.392826 56.691708 56.674631 58.100103 59.637453
9.670000 54.422875 56.266326 57.608220 57.594775 59.062998 60.437460
9.770000 55.518780 57.224454 58.658666 58.588659 60.001374 61.286827
9.870000 56.644915 58.271516 59.699455 59.652608 61.091645 62.340126
9.970000 58.128478 59.506628 61.034091 60.990546 62.389937 63.970147
10.070000 59.394044 60.783398 62.248259 62.249530 63.684480 65.128887
10.180000 60.732241 62.103427 63.494290 63.502900 64.916202 66.324911
10.270000 61.583978 63.124840 64.413671 64.448771 65.876567 67.213310
10.370000 62.656303 64.117125 65.415380 65.474413 66.852931 68.253811
10.470000 63.629907 65.075807 66.584053 66.523087 67.913746 69.335882
10.570000 64.544334 66.163812 67.671471 67.598648 68.971660 70.498562
10.670000 65.449729 67.270173 68.820946 68.803353 70.263492 72.090097
10.770000 66.812833 68.716354 70.320747 70.350717 71.969218 74.019318
10.870000 67.841035 69.918546 71.490208 71.580181 73.439191 74.990616
10.970000 69.205992 71.113993 73.108626 73.096003 75.064533 76.840632
11.070000 71.608562 73.441734 75.478049 75.403905 77.347798 78.914437
11.170000 73.747733 75.441967 77.149959 77.115404 78.746526 80.079311
11.270000 75.044053 77.106323 78.631181 78.498178 79.990202 81.121836
11.370000 76.834379 78.381724 79.804738 79.688336 80.996873 81.991362
11.470000 78.222500 79.683548 80.877036 80.809270 81.914937 82.927971
11.570000 79.504568 80.790510 81.891703 81.855240 82.883380 83.931176
11.680000 80.867508 81.938517 82.974572 82.963533 83.968588 84.889802
11.770000 82.017775 82.926497 83.889554 83.873951 84.823390 85.658540
11.870000 82.898208 83.914969 84.869758 84.850574 85.759307 86.746963
11.970000 83.790898 84.947409 85.851963 85.832088 86.711875 87.791277
12.070000 85.025991 86.079728 86.931004 87.016545 87.943123 89.457433
12.170000 86.351811 87.251211 88.167304 88.323453 89.401171 91.077616
12.270000 87.608273 88.468570 89.514121 89.631872 90.883572 92.216974
12.370000 88.543584 89.586258 90.826110 90.908210 92.192117 93.624174
12.470000 89.664629 90.827254 92.243745 92.215352 93.519191 94.823853
12.570000 90.699709 92.143224 93.517958 93.518270 94.958850 96.187741
12.670000 91.870724 93.341061 94.709834 94.757182 96.161099 97.542389
12.770000 93.104052 94.491491 95.958825 95.972592 97.411844 99.062057
12.870000 94.170400 95.664990 97.050511 97.087660 98.535178 100.238076
12.970000 95.219337 96.692925 98.086019 98.130828 99.524764 101.155215
13.070000 96.289411 97.576213 99.083800 99.105661 100.561722 102.147200
13.170000 97.241294 98.575751 100.112733 100.089504 101.581649 103.300007
13.270000 98.097076 99.451641 100.982840 101.041652 102.653320 104.462821
13.370000 98.933878 100.341082 101.886610 101.970926 103.595593 105.321694
13.470000 99.872790 101.246801 102.901554 102.941730 104.502494 106.464007
13.570000 100.803443 102.227225 103.874535 103.896644 105.464805 107.307463
13.670000 101.863312 103.267925 104.838632 104.880260 106.497503 108.311853
13.770000 102.775245 104.249358 105.965095 105.940168 107.588853 109.561032
13.910000 104.083204 105.670851 107.399098 107.380152 108.989275 110.870340
13.990000 105.027203 106.654250 108.282486 108.294112 109.921217 111.961035
14.090000 106.310656 107.887528 109.493460 109.503334 111.042682 113.100349
14.190000 107.673499 109.252265 110.739026 110.792155 112.367819 114.311426
14.290000 108.869050 110.561630 112.122370 112.164475 113.796345 115.648906
14.390000 110.370288 112.088939 113.722125 113.745350 115.435672 117.309470
14.490000 112.471689 113.963972 115.692738 115.772347 117.523917 119.598253
14.600000 114.417642 116.018839 117.762763 117.796346 119.529080 121.128491
14.690000 115.952687 117.723893 119.412135 119.363539 121.019056 122.386704
14.790000 117.494078 119.341926 120.898619 120.836876 122.359651 123.674799
14.890000 119.193336 120.855765 122.284911 122.218643 123.613839 124.790465
14.990000 120.811146 122.161518 123.484867 123.437599 124.759550 125.731240
15.090000 122.083466 123.398090 124.603643 124.580796 125.852156 126.743093
15.190000 123.272351 124.607977 125.835931 125.762930 126.943871 127.951082
15.290000 124.811488 125.941223 127.149018 127.090873 128.217158 129.276772
15.390000 126.442979 127.572894 128.780939 128.750987 129.873584 131.293580
15.490000 127.848360 129.143564 130.237975 130.280233 131.443846 132.850301
15.590000 129.587468 130.749417 132.005780 132.050790 133.325304 134.904338
15.690000 131.385678 132.625982 134.113412 134.272736 135.978212 138.014144
15.790000 132.939036 134.169103 135.793970 135.951464 137.782606 139.663833
15.890000 134.301855 135.808927 137.533276 137.573023 139.302666 141.230076
15.990000 135.682718 137.267998 138.983753 138.981205 140.753696 142.534747
16.100000 136.851243 138.561165 140.357489 140.367555 142.216227 144.171781
16.195000 138.080451 139.713465 141.493917 141.530882 143.294127 145.384246
16.290000 139.035512 140.747744 142.590385 142.628462 144.432857 146.532071
16.390000 140.088187 141.852239 143.738825 143.792319 145.701623 147.896742
16.490000 141.197677 142.919752 144.904679 144.966672 146.901075 149.439576
16.590000 142.445928 144.055946 146.027860 146.119067 148.077402 150.565542
16.690000 143.405420 145.057210 147.135476 147.271748 149.317145 151.960490
16.790000 144.473926 146.162223 148.306099 148.414073 150.493686 153.390978
16.890000 145.448628 147.239186 149.455899 149.547726 151.727711 154.582806
16.990000 146.552386 148.215590 150.634338 150.674834 152.853758 155.622087
17.090000 147.602186 149.353760 151.820355 151.817710 154.020968 156.841450
17.190000 148.478900 150.472417 152.948272 152.954566 155.226055 157.744642
17.290000 149.609944 151.735791 154.149258 154.122078 156.465841 158.794054
17.390000 150.924417 153.028033 155.247076 155.277310 157.601929 159.910341
17.490000 152.171007 154.339327 156.376091 156.432622 158.551120 160.765601
17.590000 153.276423 155.555216 157.595803 157.598190 159.665222 161.863758
17.690000 154.470101 156.787484 158.747682 158.768541 160.866468 162.865886
17.790000 155.737402 158.029565 160.012580 159.994594 162.061385 163.939978
17.890000 157.062245 159.259252 161.158487 161.213260 163.262759 165.226052
17.990000 158.371348 160.428094 162.567747 162.508141 164.516030 166.687840
18.090000 159.928188 161.727018 163.801897 163.825693 165.881554 168.323699
18.190000 161.022745 162.922072 164.982272 165.070769 167.096452 169.815980
18.290000 162.228229 164.149909 166.320655 166.333579 168.431430 171.026324
18.390000 163.460085 165.212120 167.555282 167.555121 169.671159 172.476332
18.490000 164.660134 166.414536 168.768782 168.765610 170.890812 173.821514
18.590000 165.834625 167.633962 170.017452 170.038717 172.296075 175.026029
18.690000 166.766934 168.925657 171.264767 171.321032 173.600217 176.428975
18.790000 167.663840 170.138426 172.610488 172.618599 175.072093 177.472835
18.890000 168.664375 171.433715 173.959271 173.893477 176.349935 178.911261
18.995000 169.567222 172.762428 175.311557 175.220507 177.740061 180.096709
19.100000 170.811435 174.105014 176.708728 176.582550 179.117906 181.402312
19.195000 172.195954 175.242079 177.894174 177.785125 180.351643 182.381990
19.290000 173.697652 176.494793 179.052423 178.974211 181.549790 183.308774
19.390000 175.153972 177.770670 180.327875 180.240296 182.734113 184.420251
19.490000 176.290237 179.150180 181.631418 181.506861 183.928988 185.491188
19.590000 177.710423 180.679065 183.041486 182.840890 185.117930 186.549963
19.690000 179.143377 182.090058 184.422558 184.162164 186.370498 187.956719
19.790000 180.832182 183.553400 185.772503 185.569641 187.649457 189.229710
19.890000 182.539866 185.132511 187.184459 187.047853 188.992588 190.409968
19.990000 184.774971 186.880991 188.852440 188.698921 190.446120 191.842319
20.090000 187.047689 188.774621 190.349332 190.322287 191.941624 193.581696
20.190000 188.189359 190.046568 191.535716 191.580829 193.218152 194.817269
20.290000 189.674635 191.346751 192.761929 192.829701 194.348242 196.091607
20.390000 191.037833 192.603147 194.058736 194.151772 195.718992 197.609557
20.490000 192.419516 193.921674 195.280600 195.391965 196.887832 198.847727
20.590000 193.584561 195.019940 196.396650 196.570374 198.100942 200.351712
20.690000 194.850658 196.072677 197.576089 197.743673 199.409013 201.743478
20.790000 195.813194 197.074136 198.728724 198.904829 200.649932 203.151705
20.890000 196.758148 198.215980 199.868533 200.071603 201.999922 204.352584
20.990000 197.709841 199.201565 201.123324 201.287486 203.346904 205.569798
21.090000 198.735471 200.263752 202.468175 202.493146 204.690741 206.655341
21.190000 199.849383 201.573780 203.849355 203.774950 205.885926 207.845714
21.290000 201.099248 202.963586 205.185237 205.094218 207.134645 208.759793
21.390000 202.187889 204.318887 206.554882 206.340353 208.226952 209.510226
21.490000 203.671601 205.841980 207.803845 207.600349 209.269009 210.452776
21.590000 205.110092 207.221010 208.969205 208.799872 210.342856 211.487916
21.690000 206.720539 208.547953 210.199385 210.004859 211.398981 212.400352
21.790000 208.178645 209.871721 211.263058 211.135717 212.422507 213.507552
21.890000 209.685225 211.078437 212.346705 212.234373 213.359515 214.452253
21.995000 211.007395 212.316184 213.523744 213.425076 214.518475 215.678886
22.100000 212.267762 213.542703 214.651825 214.630084 215.726773 216.948950
22.195000 213.612169 214.879341 215.937822 216.041495 217.225851 218.695393
22.290000 215.058818 216.144879 217.379217 217.524046 218.818319 220.855766
22.390000 216.389742 217.616036 218.912341 219.157619 220.716272 223.356039
22.490000 217.782822 219.086988 220.583819 220.842170 222.592628 225.293360
22.590000 218.844464 220.458350 222.136015 222.361617 224.274449 226.813014
22.690000 220.305990 221.856020 223.726840 223.924867 225.944481 228.494431
22.790000 221.464893 223.493561 225.593791 225.679854 227.920896 230.199499
22.890000 223.076446 225.206533 227.457079 227.425321 229.680811 231.619395
22.990000 224.572134 226.947376 229.381623 229.184273 231.307197 232.875676
23.090000 226.478837 229.175821 231.302508 230.986189 232.863021 234.116981
23.190000 228.517319 231.234259 233.067405 232.843954 234.406834 235.677816
23.290000 231.227713 233.306506 234.709611 234.565287 235.878115 237.066628
23.390000 233.063273 234.799575 236.084596 235.955004 237.194727 238.179702
23.490000 234.624025 236.181488 237.326783 237.255779 238.352702 239.252570
23.590000 236.187011 237.445011 238.496150 238.439795 239.483085 240.442754
23.690000 237.560871 238.501394 239.667702 239.569024 240.590553 241.400892
23.790000 238.755992 239.739715 240.826502 240.750036 241.714169 242.565083
23.890000 239.914157 240.929008 241.955480 241.918677 242.848815 243.871076
23.990000 241.197896 242.062665 243.018510 243.051887 244.042089 245.166872
24.090000 242.222051 243.102206 244.078338 244.171525 245.275501 246.508419
24.190000 243.139793 244.124472 245.180990 245.303736 246.535496 248.036813
24.290000 244.068670 245.106514 246.319523 246.453814 247.764015 249.471850
24.390000 244.933608 246.098959 247.495751 247.620024 249.032159 250.926143
24.490000 245.835725 247.099763 248.661012 248.749240 250.276118 252.258853
24.590000 246.823378 248.145988 249.762535 249.841769 251.532465 253.564220
24.690000 247.705161 249.041688 250.836132 250.871467 252.591100 254.715201
24.790000 248.544252 249.957771 251.852883 251.917376 253.774810 255.931884
24.890000 249.482351 250.952459 252.853802 252.931856 254.777664 257.103134
24.995000 250.540190 252.004900 253.931140 254.021683 255.906430 258.382587
25.100000 251.439511 253.063529 254.953162 255.043177 256.973387 259.338133
25.195000 252.211301 253.895642 255.934670 256.020984 257.982447 260.668288
25.290000 253.064581 254.848723 256.993027 257.011664 259.022290 261.590545
25.390000 254.038201 255.816096 257.977364 258.024287 260.094282 262.613285
25.490000 255.101587 256.750129 259.021228 259.058704 261.138620 263.606685
25.590000 255.861554 257.820921 260.015312 260.069837 262.228689 264.716589
25.690000 256.954094 258.925959 261.101801 261.112323 263.253290 265.647118
25.790000 257.989488 260.031555 262.130700 262.166748 264.291277 266.638426
25.890000 258.931659 261.124113 263.177932 263.222719 265.415995 267.593021
25.990000 259.805550 262.104098 264.259134 264.257048 266.331516 268.727993
26.090000 260.871910 263.314615 265.293926 265.317738 267.371544 269.701736
26.190000 261.812693 264.442751 266.397702 266.381176 268.264568 270.604032
26.290000 262.797978 265.574851 267.491717 267.405080 269.153110 271.531041
26.390000 263.782593 266.828784 268.551428 268.489228 270.252449 272.425996
26.490000 264.714170 267.989326 269.645483 269.563425 271.280762 273.455758
26.590000 265.915892 269.086925 270.801703 270.693818 272.441639 274.373453
26.690000 267.463728 270.208138 271.972713 271.873345 273.636353 275.238910
26.790000 268.808628 271.416771 273.154185 273.034171 274.858190 276.160526
26.890000 270.395784 272.538329 274.371087 274.253345 275.962616 277.283519
26.990000 271.776519 273.897827 275.636810 275.537500 277.285055 278.465891
27.090000 273.405480 275.307117 276.977268 276.875471 278.446235 279.529433
