depth(m) lower_95(kyr) lower_68(kyr) median(kyr) mean(kyr) upper_68(kyr) upper_95(kyr)
0.170000 0.013376 0.082348 0.311281 0.388342 0.712615 1.149366
0.300000 0.158931 0.285016 0.537057 0.601068 0.941428 1.360774
0.430000 0.313892 0.466405 0.748422 0.804776 1.150433 1.557281
0.550000 0.459027 0.640555 0.952581 0.998011 1.368211 1.751099
0.670000 0.609679 0.813988 1.142868 1.189553 1.575486 1.973826
0.795000 0.758580 0.986295 1.345115 1.387250 1.795533 2.157623
0.920000 0.912613 1.177937 1.558663 1.584244 2.005096 2.330850
1.050000 1.082996 1.378768 1.767917 1.789909 2.218108 2.521205
1.180000 1.263447 1.578047 1.998689 1.998846 2.429467 2.758178
1.300000 1.423016 1.757837 2.203748 2.192259 2.612086 2.903116
1.420000 1.588166 1.946050 2.417427 2.389779 2.816423 3.100678
1.545000 1.808259 2.141742 2.640718 2.595004 3.006008 3.312022
1.670000 1.988589 2.336012 2.854139 2.799758 3.199803 3.516691
1.800000 2.145156 2.538050 3.069586 3.005892 3.389752 3.703448
1.930000 2.359346 2.762344 3.276452 3.219479 3.591103 3.890838
2.060000 2.592272 3.010649 3.478239 3.428256 3.787565 4.076593
2.190000 2.804483 3.256101 3.687059 3.644586 3.984119 4.283002
2.305000 2.993023 3.465290 3.876585 3.832572 4.146631 4.514898
2.420000 3.193301 3.688916 4.066532 4.023103 4.321151 4.664029
2.550000 3.458027 3.922809 4.266914 4.232137 4.511744 4.891049
2.680000 3.680128 4.142780 4.446755 4.432954 4.700880 5.166391
2.800000 3.853640 4.339543 4.637831 4.623300 4.889821 5.361698
2.920000 4.092034 4.524687 4.819715 4.810629 5.053077 5.557241
3.025000 4.247721 4.712298 4.981666 4.975305 5.208680 5.793421
3.130000 4.427059 4.888942 5.137141 5.141934 5.366956 5.949051
3.230000 4.633531 5.054447 5.294026 5.303178 5.542245 6.185034
3.330000 4.834629 5.219828 5.441844 5.464034 5.697056 6.331983
3.430000 5.030689 5.390137 5.595817 5.625378 5.851400 6.489494
3.530000 5.226308 5.560852 5.762088 5.787653 5.998823 6.712284
3.630000 5.353245 5.717424 5.920241 5.952414 6.171471 6.894158
3.670000 5.414326 5.795292 5.990731 6.023549 6.232872 6.946313
3.750000 5.551713 5.925147 6.127697 6.165625 6.369164 7.170257
3.830000 5.685588 6.055495 6.258706 6.302844 6.510075 7.313586
3.930000 5.904189 6.217258 6.429503 6.475467 6.692149 7.498633
4.030000 6.072963 6.381753 6.595013 6.651045 6.896749 7.665491
4.130000 6.313860 6.555959 6.778657 6.841969 7.100096 7.866919
4.180000 6.424285 6.652881 6.874886 6.943650 7.212366 7.958144
4.230000 6.529368 6.751774 6.980351 7.049148 7.312157 8.071031
4.310000 6.664115 6.909793 7.143523 7.218456 7.506179 8.236959
4.330000 6.714340 6.952374 7.186536 7.260283 7.553830 8.270653
4.430000 6.899003 7.136171 7.386803 7.462680 7.769104 8.433421
4.530000 7.093331 7.317753 7.610772 7.670200 7.997586 8.620516
4.630000 7.271845 7.524911 7.823537 7.886181 8.252368 8.793900
4.730000 7.438522 7.711712 8.059666 8.098098 8.498208 8.938856
4.830000 7.616791 7.903483 8.275867 8.304939 8.720200 9.101125
4.930000 7.817594 8.125558 8.494556 8.516723 8.933707 9.276782
5.070000 8.083659 8.445193 8.825978 8.821820 9.210566 9.527874
5.120000 8.189456 8.535214 8.932056 8.927795 9.319708 9.623593
5.225000 8.407029 8.787207 9.163284 9.152198 9.520692 9.802818
5.330000 8.631183 9.042201 9.392889 9.377803 9.724937 9.952235
5.430000 8.894520 9.285936 9.618499 9.600412 9.939202 10.126266
5.530000 9.118453 9.540212 9.838413 9.817260 10.124127 10.302166
5.630000 9.319310 9.764806 10.062912 10.027548 10.293439 10.468040
5.680000 9.409441 9.873760 10.167491 10.128340 10.383544 10.573728
5.730000 9.486666 9.982685 10.272332 10.225763 10.472732 10.669166
5.820000 9.617182 10.153961 10.466181 10.403529 10.639281 10.840622
5.920000 9.769437 10.332060 10.656807 10.595504 10.821172 10.999738
5.930000 9.788920 10.350752 10.676915 10.616370 10.847907 11.012765
6.030000 10.048667 10.531614 10.885603 10.821595 11.060011 11.262984
6.110000 10.243862 10.695720 11.035143 10.985642 11.236087 11.454806
6.130000 10.290571 10.730821 11.077050 11.027208 11.281842 11.504052
6.230000 10.532765 10.913002 11.261901 11.220038 11.479185 11.748726
6.330000 10.787916 11.094819 11.441494 11.406813 11.673717 11.953154
6.430000 10.952589 11.269576 11.629818 11.592355 11.859646 12.165764
6.530000 11.157473 11.447614 11.816912 11.776802 12.036626 12.372344
6.630000 11.348393 11.619344 11.989169 11.962246 12.229672 12.676197
6.670000 11.418239 11.689263 12.069104 12.037516 12.310113 12.740749
6.795000 11.644984 11.939723 12.292723 12.271013 12.542493 13.017924
6.920000 11.897347 12.203071 12.525292 12.520574 12.763227 13.366647
6.940000 11.931804 12.257423 12.559618 12.562369 12.800415 13.403917
7.020000 12.111112 12.451031 12.729939 12.738131 12.984666 13.628285
7.120000 12.346162 12.711334 12.935496 12.966563 13.201286 13.840675
7.160000 12.461302 12.813017 13.024371 13.065129 13.288271 13.927615
7.180000 12.510168 12.855746 13.073862 13.113290 13.346869 13.979755
7.210000 12.582215 12.932317 13.151853 13.194324 13.439615 14.036318
7.320000 12.987264 13.312172 13.621576 13.696739 14.153238 14.562456
7.420000 13.333301 13.634397 14.007285 14.041796 14.466494 14.870535
7.520000 13.628067 13.965608 14.355143 14.360471 14.744097 15.155197
7.620000 13.916727 14.300332 14.666100 14.669492 15.048549 15.439072
7.720000 14.251335 14.610721 14.953644 14.961920 15.308241 15.734343
7.830000 14.528085 14.908450 15.252199 15.249536 15.596865 15.999978
7.930000 14.810052 15.161366 15.510563 15.507842 15.850050 16.300517
8.030000 15.016501 15.400138 15.766780 15.771451 16.130271 16.588127
8.130000 15.279261 15.643605 16.029922 16.050726 16.462107 17.020736
8.230000 15.537816 15.906844 16.299482 16.329486 16.726697 17.408198
8.330000 15.754257 16.175560 16.593672 16.648281 17.081167 18.038222
8.430000 16.026554 16.456889 16.889987 16.983647 17.466674 18.752640
8.530000 16.288306 16.758287 17.151813 17.315813 17.871242 19.516321
8.630000 16.538877 17.030547 17.404582 17.621406 18.287933 19.905329
8.720000 16.774712 17.233718 17.635961 17.863905 18.561626 20.282811
8.740000 16.820943 17.282402 17.677589 17.908952 18.603588 20.309013
8.820000 17.031550 17.439059 17.855887 18.091525 18.808009 20.450262
8.930000 17.314059 17.632829 18.106526 18.342789 19.081498 20.675070
9.020000 17.520941 17.799328 18.302690 18.532646 19.269067 20.829393
9.120000 17.700100 17.999968 18.541200 18.755301 19.477914 21.021203
9.250000 17.935139 18.254620 18.839141 19.040182 19.714185 21.268410
9.330000 18.095019 18.415465 19.003786 19.216144 19.873167 21.407161
9.430000 18.257545 18.619408 19.212940 19.432321 20.070381 21.566504
9.490000 18.373353 18.744927 19.309843 19.564453 20.199836 21.693008
9.500000 18.397917 18.765522 19.345727 19.586743 20.223178 21.704775
9.630000 18.661023 18.997920 19.685282 19.869541 20.535427 21.960161
9.730000 18.826148 19.174268 19.952511 20.082194 20.800873 22.117078
9.830000 18.977145 19.366375 20.235425 20.294027 21.033416 22.302147
9.925000 19.137067 19.554471 20.455189 20.492330 21.242740 22.447779
10.020000 19.309623 19.742714 20.691438 20.695197 21.468862 22.602374
10.120000 19.477950 19.943732 20.915814 20.910700 21.678794 22.775509
10.230000 19.669037 20.182903 21.196318 21.150256 21.914703 22.964428
10.330000 19.850753 20.401412 21.431058 21.369956 22.106811 23.140009
10.430000 20.017321 20.631038 21.685950 21.593827 22.288113 23.323089
10.530000 20.218282 20.841307 21.928237 21.808915 22.495849 23.510774
10.620000 20.390045 21.014912 22.147135 22.000271 22.722074 23.690541
10.730000 20.624682 21.213106 22.389840 22.227095 22.946315 23.913884
10.820000 20.772915 21.391775 22.579362 22.404633 23.153740 24.070623
10.860000 20.846731 21.487670 22.655709 22.485880 23.228476 24.157590
10.920000 20.995227 21.630858 22.761457 22.609592 23.369305 24.266629
10.990000 21.124331 21.794512 22.884162 22.746603 23.514092 24.448397
11.030000 21.213094 21.877806 22.949158 22.825411 23.580182 24.529419
11.120000 21.410992 22.059522 23.090276 22.991539 23.734324 24.744899
11.230000 21.658886 22.304388 23.260801 23.197661 24.006321 24.956726
11.320000 21.847310 22.503727 23.402018 23.366594 24.216547 25.125194
11.440000 22.236767 22.754134 23.570022 23.599032 24.468257 25.504631
11.520000 22.433074 22.930692 23.685039 23.750227 24.620587 25.650334
11.630000 22.712034 23.177261 23.849082 23.951970 24.821535 25.918740
11.730000 22.981743 23.389460 23.998594 24.143153 25.058884 26.182704
11.740000 23.009675 23.407167 24.015595 24.162749 25.075080 26.205991
11.830000 23.189704 23.626140 24.177231 24.348858 25.288921 26.405074
11.930000 23.377271 23.858690 24.353015 24.554119 25.484859 26.592742
12.030000 23.562420 24.098097 24.529467 24.762526 25.668967 26.818752
12.130000 23.776214 24.332630 24.736298 24.983761 25.925282 27.099036
12.246667 24.017123 24.577588 25.026073 25.249308 26.243902 27.485405
12.363333 24.273199 24.797088 25.287374 25.509550 26.484984 27.762689
12.480000 24.480372 25.002048 25.551661 25.784618 26.708385 28.121486
12.606667 24.719960 25.221025 25.827252 26.084299 26.988575 28.551477
12.733333 24.986104 25.469719 26.142671 26.398016 27.352073 28.980424
12.860000 25.247533 25.717741 26.461953 26.704770 27.624419 29.408379
12.986667 25.489487 25.970545 26.777271 27.018686 28.021487 29.804365
13.113333 25.706908 26.265052 27.104278 27.343048 28.416707 30.371680
13.240000 25.904024 26.525945 27.402481 27.648530 28.839020 30.877099
13.365000 26.107152 26.817465 27.696639 27.959773 29.286025 31.320048
13.490000 26.330352 27.093494 28.012792 28.260735 29.568599 31.746538
13.615000 26.591444 27.368753 28.313384 28.587119 29.976034 32.140589
13.740000 26.918173 27.678331 28.625411 28.919676 30.358000 32.419102
13.865000 27.222168 28.007687 28.897183 29.237675 30.729409 32.678225
13.990000 27.491933 28.327851 29.199080 29.558114 31.048806 32.987324
14.107500 27.738526 28.608748 29.497835 29.860219 31.391047 33.325315
14.225000 27.991795 28.912000 29.806544 30.157650 31.651296 33.638503
14.342500 28.250560 29.163564 30.100531 30.456902 31.986150 33.917460
14.460000 28.558549 29.457483 30.405495 30.747456 32.303118 34.145294
14.595000 28.993985 29.774331 30.762429 31.109735 32.759319 34.498539
14.730000 29.292974 30.134742 31.096253 31.463513 33.199301 34.833604
14.855000 29.630857 30.456520 31.393575 31.791644 33.661735 35.074742
14.980000 30.007315 30.767384 31.692823 32.103969 34.064187 35.415664
15.085000 30.228973 31.058774 31.936737 32.371568 34.355034 35.643450
15.190000 30.421513 31.288821 32.163400 32.617533 34.590643 35.823866
15.260000 30.571419 31.446366 32.307754 32.777711 34.788355 36.001415
15.350000 30.809238 31.660692 32.480959 32.981311 35.087516 36.196879
15.440000 30.978934 31.866496 32.646613 33.189377 35.345073 36.387533
15.490000 31.101293 31.984875 32.739799 33.297173 35.466911 36.516698
15.590000 31.311684 32.266660 32.935535 33.533465 35.701839 36.773863
15.690000 31.619916 32.526294 33.107515 33.768652 35.942347 37.024189
15.770000 31.799163 32.744311 33.242040 33.949598 36.176171 37.219026
15.850000 31.948797 32.924147 33.398788 34.125820 36.393802 37.370700
15.930000 32.091536 33.122917 33.535201 34.301520 36.595722 37.541044
15.980000 32.191991 33.224601 33.612747 34.408233 36.698508 37.611736
16.100000 32.527383 33.479244 33.821981 34.696925 36.987701 37.858972
16.220000 33.500104 33.717878 34.018021 34.997612 37.309293 38.120455
16.230000 33.519274 33.733963 34.033339 35.017269 37.331586 38.133522
16.335000 33.668590 33.888632 34.201154 35.213090 37.548757 38.352319
16.440000 33.832034 34.049683 34.366225 35.415574 37.772456 38.647225
16.490000 33.914856 34.123206 34.479063 35.515892 37.876979 38.771399
16.590000 34.116618 34.269998 34.666155 35.715198 38.098294 39.143917
16.690000 34.244069 34.416206 34.866011 35.907693 38.311044 39.435866
16.760000 34.353989 34.525516 35.044318 36.039380 38.473656 39.620345
16.845000 34.517973 34.640737 35.230671 36.201996 38.645940 39.928319
16.930000 34.654229 34.765536 35.406785 36.368534 38.845751 40.137503
16.940000 34.671828 34.781124 35.448571 36.388500 38.871322 40.157453
17.065000 34.842096 34.961754 35.863456 36.667762 39.170133 40.434575
17.190000 35.007986 35.143931 36.288388 36.963171 39.488135 40.685045
17.240000 35.077367 35.222081 36.479953 37.070363 39.614058 40.758115
17.280000 35.144259 35.292650 36.561798 37.156780 39.714236 40.845231
17.355000 35.259179 35.414316 36.724398 37.316568 39.856465 41.013800
17.430000 35.362722 35.532322 36.877809 37.477189 40.006315 41.164328
17.530000 35.513628 35.694837 37.135323 37.693601 40.219589 41.397316
17.630000 35.665596 35.868574 37.374991 37.912889 40.407558 41.629551
17.730000 35.807651 36.044624 37.630899 38.131629 40.674640 41.902487
17.845000 35.981553 36.221023 37.881845 38.378990 40.905684 42.186223
17.960000 36.146290 36.415163 38.153728 38.643228 41.163425 42.478055
18.010000 36.233083 36.505852 38.251512 38.754168 41.288607 42.598096
18.123333 36.429622 36.713721 38.548345 39.054569 41.582512 42.928849
18.236667 36.612372 36.952545 38.869972 39.358613 41.908740 43.279501
18.350000 36.776076 37.204645 39.246802 39.697010 42.286598 43.680862
18.460000 36.964903 37.431029 39.562941 39.990500 42.519019 44.090977
18.585000 37.153875 37.693662 40.031102 40.309724 42.893372 44.439995
18.710000 37.377109 37.937199 40.463368 40.638287 43.233324 44.690540
18.836667 37.575790 38.249706 40.860842 40.981406 43.617168 45.088634
18.963333 37.780419 38.498695 41.227461 41.324250 44.008943 45.339818
19.090000 37.969249 38.798081 41.636016 41.671527 44.377890 45.669642
19.216667 38.199739 39.085227 42.072607 42.030416 44.745468 46.029836
19.343333 38.454681 39.404927 42.540826 42.383690 45.060531 46.362783
19.470000 38.672563 39.803333 42.839519 42.723872 45.400889 46.885270
19.596667 38.947852 40.193124 43.202574 43.070667 45.689430 47.109027
19.723333 39.184697 40.484575 43.609205 43.416001 46.039723 47.450210
19.850000 39.398987 40.869364 44.015355 43.789483 46.376824 47.747572
19.935000 39.544742 41.049149 44.240383 44.000044 46.593252 47.941336
20.020000 39.683248 41.226892 44.479640 44.199429 46.796451 48.111101
20.145000 39.953483 41.646247 44.797879 44.511657 47.061425 48.298724
20.270000 40.176533 41.985747 45.063114 44.815387 47.336081 48.586800
20.376667 40.450286 42.299846 45.290594 45.097326 47.600640 48.758158
20.483333 40.715610 42.658909 45.555983 45.355300 47.818315 48.969448
20.590000 40.976173 43.065511 45.824632 45.621801 48.020921 49.178194
20.700000 41.224142 43.365212 46.050315 45.898712 48.227106 49.348831
20.810000 41.428987 43.765674 46.313507 46.179280 48.508126 49.567231
20.935000 41.689151 44.125349 46.586904 46.498391 48.789334 49.781792
21.060000 41.940954 44.615547 46.847489 46.841633 49.104168 50.065067
21.185000 42.300325 45.083129 47.113704 47.180496 49.398404 50.385853
21.310000 42.461574 45.415200 47.398369 47.493179 49.688096 50.669241
21.350000 42.609648 45.509062 47.472062 47.582822 49.766755 50.776926
21.455000 42.791944 45.792277 47.658795 47.822896 50.058948 50.963049
21.560000 43.134714 46.057102 47.868331 48.069975 50.261730 51.112033
21.682500 43.437499 46.369502 48.184497 48.368017 50.551205 51.351803
21.805000 43.693881 46.677936 48.490165 48.665313 50.814439 51.623101
21.927500 43.952332 46.986351 48.837146 48.960914 51.091045 51.896283
22.050000 44.228608 47.288004 49.176137 49.238890 51.373181 52.173856
22.090000 44.314950 47.365109 49.322394 49.327944 51.476341 52.281231
22.220000 44.615551 47.656710 49.596580 49.618828 51.757828 52.561524
22.350000 44.857457 47.986884 50.035108 49.924654 51.998064 52.818105
22.485000 45.129686 48.345660 50.540576 50.229020 52.309008 53.151306
22.620000 45.412106 48.668815 50.744581 50.509496 52.594071 53.500902
22.735000 45.677193 48.911522 51.084821 50.747452 52.847733 53.791656
22.850000 45.946848 49.135540 51.584734 50.984345 53.071133 54.009657
22.870000 45.988576 49.163190 51.657766 51.024591 53.117315 54.057545
22.995000 46.278142 49.377451 51.917363 51.257040 53.340540 54.224833
23.120000 46.602018 49.566528 52.130998 51.486357 53.546217 54.447610
23.246667 46.996835 49.805645 52.350173 51.719548 53.753320 54.709013
23.373333 47.444079 49.994947 52.615612 51.947747 53.966209 54.972617
23.500000 48.187987 50.227144 52.801866 52.183311 54.170430 55.199159
23.626667 48.480695 50.432193 52.968916 52.412951 54.368092 55.430605
23.753333 48.800681 50.643322 53.191594 52.642068 54.580574 55.651827
23.880000 49.092412 50.863291 53.320505 52.863531 54.780668 55.931884
23.985000 49.367186 51.040971 53.588906 53.055803 54.949392 56.120842
24.090000 49.605360 51.235679 53.741816 53.250641 55.140194 56.300303
24.220000 49.958137 51.469485 53.961423 53.492893 55.392053 56.542197
24.350000 50.301428 51.687766 54.112606 53.733368 55.604057 56.798940
24.470000 50.560798 51.916485 54.356388 53.958096 55.799020 56.977801
24.590000 50.911211 52.159350 54.519171 54.184037 55.993730 57.217662
24.730000 51.236648 52.387001 54.839846 54.442772 56.243322 57.461579
24.870000 51.523564 52.645084 55.021224 54.700589 56.495147 57.740625
25.013333 51.959365 52.912919 55.246823 54.970626 56.768043 57.970160
25.156667 52.379544 53.206518 55.520355 55.241213 56.962425 58.225322
25.300000 52.722342 53.527212 55.732632 55.512367 57.250539 58.451214
25.445000 53.123822 53.891530 55.982544 55.796015 57.550524 58.680269
25.590000 53.453454 54.195837 56.190278 56.071598 57.765895 58.935075
25.650000 53.545575 54.324101 56.305847 56.187601 57.863278 59.048652
25.762500 53.794157 54.548175 56.514345 56.396410 58.035396 59.204467
25.875000 54.071255 54.787444 56.710947 56.609265 58.208925 59.441696
25.987500 54.360643 54.997726 56.897192 56.826469 58.378154 59.657726
26.100000 54.623456 55.187073 57.078899 57.035454 58.590499 59.825815
26.235000 55.035862 55.448436 57.294703 57.286559 58.877055 60.045596
26.370000 55.320782 55.674103 57.514347 57.535717 59.270861 60.282548
26.380000 55.339269 55.691233 57.534476 57.556079 59.296856 60.296078
26.400000 55.381134 55.732394 57.574930 57.596293 59.336336 60.323855
26.525000 55.643781 55.977260 57.791771 57.831165 59.662931 60.506622
26.650000 55.879399 56.222554 57.987623 58.069980 60.074079 60.732782
26.700000 55.980974 56.347027 58.088983 58.171227 60.162451 60.841150
26.800000 56.193926 56.560823 58.276355 58.372321 60.313870 61.028482
26.900000 56.385945 56.845076 58.456264 58.581402 60.451702 61.203088
26.985000 56.549181 57.073695 58.629964 58.763168 60.586808 61.339516
27.070000 56.734321 57.272025 58.814633 58.944895 60.756710 61.534581
27.160000 56.954715 57.536216 59.023101 59.154854 60.882359 61.769949
27.305000 57.217598 58.003991 59.383649 59.523420 61.161432 62.201111
27.450000 57.593810 58.465462 59.766676 59.927240 61.444368 62.763875
27.560000 57.868961 58.818035 60.074034 60.256415 61.760498 63.190738
27.670000 58.196522 59.237135 60.392093 60.587623 62.075424 63.540993
27.740000 58.388381 59.443961 60.609835 60.798569 62.237953 63.746590
27.876667 58.997761 60.004448 61.251411 61.365894 62.756282 64.331612
28.013333 59.518591 60.586687 61.892822 61.969857 63.330155 64.925283
28.150000 60.108720 61.070630 62.480588 62.538003 63.979201 65.376033
28.275000 60.606096 61.612416 62.935055 62.968303 64.422053 65.743887
28.400000 61.014382 62.041794 63.372530 63.413876 64.819497 66.093021
28.545000 61.401951 62.530468 63.838826 63.891069 65.300670 66.639040
28.690000 61.833544 63.036663 64.353636 64.356439 65.774479 66.976055
28.795000 62.119251 63.310540 64.698533 64.664261 66.100155 67.269068
28.900000 62.360974 63.572491 65.047541 64.978358 66.353127 67.599495
29.025000 62.634911 63.915801 65.433736 65.359113 66.718760 68.023206
29.150000 62.922217 64.324796 65.766279 65.738393 67.099481 68.390442
29.275000 63.273807 64.666041 66.137635 66.127715 67.502659 68.814732
29.400000 63.545465 65.070486 66.515711 66.512839 67.890845 69.398049
29.525000 63.852543 65.516170 66.904353 66.928102 68.305454 69.916465
29.650000 64.264007 65.990175 67.329325 67.417361 68.827076 70.582570
29.760000 65.495837 67.586430 80.133292 78.464584 89.426842 94.368001
