depth(m) lower_95(kyr) lower_68(kyr) median(kyr) mean(kyr) upper_68(kyr) upper_95(kyr)
0.020000 3.470345 4.199691 4.846446 4.830510 5.484253 6.095636
0.050000 3.802504 4.502851 5.147309 5.147241 5.779192 6.387022
0.120000 4.480693 5.161209 5.867350 5.865014 6.524850 7.216540
0.150000 4.769362 5.500657 6.215751 6.206108 6.906066 7.686300
0.180000 5.093868 5.840350 6.582250 6.590169 7.324749 8.150956
0.250000 5.930665 6.746670 7.524339 7.594605 8.505528 9.624238
0.280000 6.296768 7.124658 7.996373 8.044923 8.993301 10.036737
0.380000 8.087663 9.205156 10.338720 10.241231 11.262919 11.948228
0.420000 9.619601 10.539687 11.355034 11.307481 12.077102 12.736657
0.450000 10.236128 11.172198 11.910844 11.838813 12.531990 13.028731
0.480000 10.823373 11.666569 12.355449 12.294837 12.927836 13.387968
0.520000 11.501477 12.271314 12.896741 12.848886 13.424285 13.850781
0.550000 12.105323 12.733470 13.310126 13.249690 13.756545 14.221323
0.580000 12.643278 13.194417 13.703635 13.669273 14.135854 14.596069
0.620000 13.251465 13.747510 14.173758 14.165512 14.592729 15.023782
0.650000 13.663067 14.156329 14.558631 14.573918 14.998657 15.451577
0.680000 14.109324 14.502320 14.925403 14.931349 15.354225 15.819273
0.720000 14.539704 14.929729 15.352034 15.369050 15.808287 16.274659
0.750000 14.845214 15.239495 15.670194 15.693050 16.153580 16.641922
0.780000 15.181468 15.582459 16.008978 16.042047 16.493920 17.073416
0.820000 15.601703 16.068582 16.515533 16.534961 17.006874 17.571644
0.850000 15.933700 16.403958 16.862911 16.891284 17.371005 17.961234
0.880000 16.215080 16.695257 17.213122 17.226279 17.775506 18.305674
0.920000 16.576831 17.064923 17.626362 17.636752 18.193834 18.785563
0.950000 16.883896 17.352189 17.932811 17.941841 18.539448 19.119652
0.980000 17.148352 17.649175 18.238370 18.245668 18.817587 19.420177
1.020000 17.528089 18.026673 18.614736 18.634423 19.214644 19.863829
1.050000 17.797195 18.287101 18.902437 18.922189 19.522073 20.187584
1.080000 18.002530 18.552234 19.210223 19.201666 19.780907 20.490630
1.120000 18.360030 18.930372 19.581470 19.568660 20.147299 20.876502
1.150000 18.647735 19.216210 19.860431 19.846607 20.417129 21.221021
1.180000 18.900298 19.491787 20.144168 20.125029 20.708235 21.534083
1.220000 19.199941 19.852814 20.512703 20.490275 21.057790 21.944862
1.250000 19.439075 20.130331 20.772874 20.761913 21.369240 22.249732
1.280000 19.704805 20.402645 21.052668 21.046193 21.659608 22.519821
1.320000 20.025617 20.779864 21.404784 21.421684 22.047497 22.911056
1.350000 20.265340 21.073743 21.690803 21.710532 22.361344 23.272176
1.380000 20.633128 21.366353 21.982232 22.006964 22.644705 23.585396
1.420000 21.018486 21.765796 22.362693 22.385935 23.062478 23.917935
1.450000 21.354746 22.037536 22.638894 22.676759 23.344280 24.206876
1.480000 21.616909 22.287122 22.917595 22.966803 23.627990 24.526261
1.520000 22.000539 22.681561 23.310246 23.353977 24.045916 24.904471
1.550000 22.327553 22.976528 23.605496 23.649998 24.327406 25.223764
1.580000 22.608922 23.267697 23.883773 23.949345 24.619882 25.466934
1.620000 23.019699 23.670434 24.304157 24.346303 25.011780 25.820885
1.650000 23.279497 23.995676 24.624205 24.656331 25.336077 26.087024
1.680000 23.587045 24.304123 24.924207 24.958411 25.627076 26.376659
1.720000 24.033558 24.709268 25.326502 25.358208 26.014836 26.770544
1.750000 24.373276 25.013042 25.642752 25.672410 26.321704 27.014784
1.780000 24.658911 25.328439 25.953275 25.982936 26.652957 27.341404
1.820000 25.145736 25.751607 26.348414 26.393640 27.055210 27.782829
1.850000 25.440439 26.062736 26.676636 26.709618 27.369866 28.061082
1.880000 25.805138 26.380748 27.014895 27.030685 27.690355 28.459931
1.920000 26.264049 26.825317 27.432588 27.471179 28.097812 28.951165
1.950000 26.533998 27.159222 27.761846 27.800387 28.413640 29.312273
1.980000 26.907465 27.483075 28.115971 28.141812 28.744996 29.645672
2.020000 27.342598 27.943758 28.565357 28.585681 29.190200 30.124860
2.050000 27.598259 28.248444 28.891474 28.919042 29.546746 30.518704
2.080000 27.889674 28.588397 29.195583 29.242397 29.880388 30.887205
2.120000 28.261337 28.984991 29.581527 29.663422 30.346344 31.394887
2.150000 28.525579 29.283419 29.884278 29.976260 30.736672 31.688818
2.180000 28.860084 29.550496 30.150121 30.278924 31.095626 32.078409
2.220000 29.216170 29.946030 30.530225 30.674838 31.530574 32.616468
2.250000 29.536649 30.195418 30.784478 30.961637 31.873231 33.050244
2.280000 29.837864 30.480106 31.059007 31.265872 32.232790 33.456402
2.320000 30.195099 30.802489 31.393823 31.656025 32.646780 34.061543
2.350000 30.420057 31.092141 31.694070 31.951295 32.964049 34.439524
2.380000 30.736030 31.374822 32.009108 32.258345 33.281308 34.835192
2.420000 31.126446 31.729753 32.409148 32.661552 33.749950 35.387549
2.450000 31.440090 32.007796 32.699751 32.982101 34.056761 35.829812
2.480000 31.773525 32.297291 33.049172 33.309303 34.379293 36.208492
2.520000 32.123615 32.712752 33.480748 33.751444 34.846511 36.736415
2.550000 32.463115 33.019271 33.831268 34.105170 35.214572 37.200274
2.580000 32.795846 33.370530 34.203731 34.471347 35.697630 37.653440
2.620000 33.264773 33.817332 34.740200 35.007888 36.334221 38.368779
2.680000 33.851330 34.469590 35.422618 35.765645 37.255858 39.403905
2.720000 34.268568 34.877258 35.837323 36.247916 37.803141 39.928611
2.750000 34.533237 35.192101 36.208248 36.602679 38.226018 40.304213
2.780000 34.873415 35.517997 36.557531 36.976654 38.612851 40.784128
2.820000 35.242060 35.977501 37.019722 37.456236 39.133780 41.307525
2.850000 35.601054 36.318834 37.361654 37.801288 39.523909 41.610851
2.880000 35.924702 36.658244 37.705710 38.141595 39.846216 41.943236
2.920000 36.379646 37.130660 38.159569 38.592078 40.325797 42.291797
2.950000 36.714940 37.478719 38.528716 38.946376 40.681254 42.688066
2.980000 37.043656 37.824970 38.890219 39.304707 40.998428 43.129178
3.020000 37.491504 38.270757 39.374408 39.767218 41.465656 43.655394
3.050000 37.768626 38.599858 39.727165 40.130392 41.812422 44.079169
3.080000 38.062460 38.983497 40.123180 40.494884 42.127217 44.418271
3.120000 38.558721 39.492148 40.646705 40.979480 42.650680 44.892273
3.150000 38.901241 39.877139 41.038805 41.350463 42.989719 45.152080
3.180000 39.288711 40.260507 41.457816 41.738401 43.377000 45.555425
3.220000 39.840749 40.740611 42.057818 42.279478 43.953885 46.012325
3.250000 40.201592 41.114102 42.490935 42.676203 44.313242 46.316302
3.280000 40.544389 41.504407 42.865907 43.065285 44.652009 46.675412
3.320000 41.084060 42.042274 43.436398 43.589340 45.141164 47.140765
3.350000 41.399497 42.464407 43.832844 43.976052 45.524214 47.411456
3.380000 41.751506 42.854026 44.243431 44.353543 45.905403 47.703408
3.420000 42.284603 43.362236 44.778035 44.861959 46.344623 48.037710
3.450000 42.702261 43.768061 45.170612 45.238221 46.684860 48.337564
3.480000 43.065071 44.151073 45.590130 45.620065 47.088307 48.631352
3.520000 43.499129 44.655524 46.097288 46.123203 47.624177 49.024325
3.550000 43.869339 45.042172 46.501945 46.500154 48.012915 49.287082
3.580000 44.306172 45.467971 46.868596 46.865855 48.322245 49.528164
3.620000 44.846152 45.972546 47.349940 47.359664 48.765152 49.977941
3.650000 45.309813 46.378371 47.757714 47.745735 49.127270 50.251502
3.680000 45.661809 46.800010 48.149529 48.136622 49.484757 50.536578
3.720000 46.091299 47.369835 48.632636 48.621488 49.937892 50.927239
3.750000 46.452811 47.751913 48.991559 48.982061 50.289660 51.270503
3.780000 46.858263 48.154512 49.352748 49.335948 50.637686 51.564468
3.820000 47.384164 48.723958 49.832336 49.826007 51.068330 51.892493
3.850000 47.840989 49.098519 50.209500 50.190369 51.361803 52.138460
3.880000 48.306377 49.493762 50.567015 50.550010 51.675896 52.410579
3.920000 48.872537 50.096994 51.053607 51.040198 52.103067 52.802111
3.950000 49.229928 50.445369 51.422008 51.399524 52.431809 53.113755
3.980000 49.653830 50.886052 51.806728 51.780796 52.773338 53.433593
4.020000 50.182999 51.342504 52.312475 52.273748 53.241480 53.930028
4.050000 50.541042 51.702632 52.684564 52.632267 53.571290 54.245999
4.080000 50.871976 52.053655 53.075525 52.973651 53.907312 54.519053
4.120000 51.293992 52.496964 53.552724 53.425786 54.310754 54.936883
4.150000 51.605550 52.819546 53.901966 53.767028 54.674940 55.292037
4.180000 51.911027 53.116654 54.253858 54.116269 55.027453 55.651148
4.220000 52.457096 53.534231 54.733930 54.581031 55.559704 56.213327
4.250000 52.751732 53.843021 55.082072 54.923812 55.921368 56.556399
4.280000 53.026456 54.135342 55.410763 55.261535 56.259315 56.836678
4.320000 53.540133 54.568840 55.903092 55.727119 56.704831 57.291518
4.350000 53.862322 54.957287 56.256072 56.078297 57.035442 57.616612
4.380000 54.222976 55.320127 56.619977 56.433413 57.360349 57.981936
4.420000 54.714472 55.880094 57.127115 56.914666 57.821188 58.449652
4.450000 55.023877 56.293688 57.462906 57.265384 58.147556 58.768860
4.480000 55.455069 56.648328 57.815053 57.612796 58.439641 59.099219
4.520000 55.928875 57.129035 58.248388 58.064625 58.850490 59.509821
4.550000 56.229909 57.572598 58.567856 58.403767 59.135597 59.798267
4.580000 56.540429 58.022255 58.912382 58.751566 59.463462 60.124736
4.620000 57.018904 58.523510 59.361008 59.202831 59.856484 60.503083
4.650000 57.380388 58.891165 59.677265 59.537451 60.153337 60.803758
4.680000 57.861847 59.256916 60.004236 59.878507 60.498702 61.100826
4.700000 58.153480 59.490972 60.214807 60.100639 60.729249 61.296329
4.720000 58.462062 59.735864 60.428172 60.329431 60.933593 61.506715
4.750000 58.829541 60.126459 60.749547 60.656593 61.235074 61.756511
4.780000 59.233392 60.443605 61.050428 60.980164 61.559224 62.096138
4.820000 59.771766 60.894720 61.480115 61.418009 62.005681 62.500977
4.850000 60.164303 61.227766 61.801094 61.751313 62.354818 62.814161
4.880000 60.588029 61.540901 62.131945 62.102924 62.736924 63.172281
4.920000 61.191439 62.008738 62.585411 62.566230 63.162825 63.692323
4.950000 61.501483 62.334604 62.920610 62.909545 63.516631 64.102852
4.980000 61.912946 62.685583 63.242574 63.249029 63.852548 64.439830
5.020000 62.420374 63.101832 63.646636 63.679046 64.289949 64.947590
5.080000 63.114238 63.701606 64.304001 64.314475 64.913812 65.679918
5.120000 63.557653 64.144134 64.713991 64.743982 65.376069 66.086427
5.150000 63.817473 64.463205 65.036652 65.082730 65.708126 66.451331
5.180000 64.161176 64.820530 65.370223 65.426638 66.072045 66.821370
5.220000 64.623047 65.242674 65.815819 65.885275 66.582849 67.283444
5.250000 64.971140 65.585213 66.181546 66.238368 66.933718 67.622276
5.280000 65.270110 65.917324 66.507311 66.576667 67.287916 67.990285
5.320000 65.719216 66.337705 66.976543 67.035303 67.777814 68.428919
5.350000 66.037356 66.686819 67.344140 67.380569 68.121765 68.836865
5.380000 66.410664 67.028822 67.696108 67.730913 68.453543 69.237290
5.420000 66.917941 67.468241 68.163285 68.201571 68.922388 69.708118
5.450000 67.224298 67.836267 68.518823 68.567291 69.281417 70.080311
5.520000 67.959471 68.664742 69.394547 69.435923 70.190822 70.995201
5.550000 68.348300 69.047070 69.819448 69.830413 70.626029 71.428604
5.580000 68.723046 69.477352 70.204727 70.228174 71.055443 71.838058
5.620000 69.217516 69.980490 70.747238 70.782096 71.602512 72.540700
5.650000 69.571378 70.381406 71.212793 71.223363 72.050036 73.010138
5.680000 69.935663 70.813680 71.635706 71.677335 72.535187 73.447533
5.720000 70.489995 71.378123 72.304970 72.312278 73.213708 74.213388
5.750000 70.974077 71.850420 72.791880 72.813457 73.827225 74.809116
5.780000 71.441217 72.291347 73.260156 73.298547 74.342453 75.249063
5.820000 72.147270 73.077035 74.093683 74.108048 75.180627 76.032417
5.850000 72.578832 73.560502 74.688584 74.671630 75.722738 76.742601
5.880000 73.231506 74.166940 75.267026 75.233938 76.256813 77.277676
5.920000 73.931343 75.077758 76.106851 76.097081 77.146063 78.089132
5.950000 74.490663 75.645410 76.677870 76.655952 77.696664 78.606356
6.020000 76.004793 77.095033 78.034996 78.097927 79.009217 79.942159
6.050000 76.651645 77.622348 78.563744 78.624572 79.512265 80.479030
6.080000 77.152924 78.145788 79.098354 79.128405 79.965973 80.914863
6.120000 77.954701 78.870622 79.792798 79.816448 80.584946 81.417993
6.150000 78.460651 79.423422 80.250966 80.289503 81.054516 81.721828
6.180000 78.991252 79.936198 80.698328 80.742990 81.475882 82.137961
6.220000 79.761337 80.649627 81.347269 81.376045 82.005845 82.659101
6.250000 80.421913 81.138573 81.783181 81.835853 82.423628 83.041633
6.280000 80.899996 81.628633 82.238902 82.278735 82.819349 83.396313
6.320000 81.486202 82.211262 82.794510 82.824093 83.320613 83.843949
6.350000 81.934824 82.612767 83.166551 83.201678 83.683291 84.141557
6.380000 82.349165 83.011296 83.505825 83.553525 84.016631 84.465662
6.420000 82.843050 83.426338 83.962687 84.006372 84.456384 84.951702
6.450000 83.214578 83.788761 84.293122 84.350397 84.772943 85.284030
6.480000 83.624063 84.115165 84.635979 84.693151 85.106338 85.602982
6.520000 84.071343 84.568219 85.080704 85.135642 85.559117 86.066132
6.550000 84.434388 84.932010 85.421489 85.501280 85.937953 86.400157
6.580000 84.762595 85.270286 85.778418 85.860528 86.301541 86.828444
6.620000 85.189941 85.759917 86.257443 86.416990 86.806228 87.883243
6.650000 85.619131 86.134739 86.643980 86.902837 87.308718 90.628720
6.680000 86.067021 86.516763 87.102109 87.481830 87.935840 92.673203
6.720000 86.592907 87.118975 87.926977 88.766688 90.623285 94.939203
6.750000 87.019298 87.554775 88.643450 89.517354 91.846682 95.454325
6.780000 87.465437 88.179020 89.570022 90.346172 92.939320 95.913721
6.820000 88.070396 89.228219 91.368376 91.743436 94.305560 96.958726
6.850000 88.548142 90.231067 92.665358 92.744339 95.107830 97.692803
6.880000 89.298168 91.369487 93.799977 93.858554 96.150049 98.838953
6.920000 91.248340 93.410634 95.369080 95.506225 97.650568 100.164775
6.950000 92.566850 94.520857 96.320060 96.506252 98.635249 101.159171
6.980000 93.428754 95.318159 97.079948 97.267124 99.353189 101.611142
7.020000 94.857218 96.395003 98.153028 98.344421 100.443241 102.532377
7.050000 95.540911 97.011356 98.840793 99.027531 101.180904 103.388716
7.080000 96.043367 97.584123 99.504307 99.641306 101.785145 103.858224
7.120000 96.831836 98.379055 100.303138 100.480355 102.793811 104.651732
7.150000 97.323709 98.912476 100.869674 101.058962 103.323034 105.174333
7.180000 97.890081 99.510427 101.453282 101.645183 103.925675 105.651559
7.220000 98.674328 100.310008 102.360361 102.438798 104.613623 106.294166
7.250000 99.078889 100.861419 102.866537 103.004841 105.157048 107.000864
7.280000 99.545010 101.457748 103.588106 103.581968 105.668207 107.539717
7.320000 100.550931 102.364572 104.571989 104.428956 106.438175 108.134387
7.350000 101.138852 103.024333 105.302298 105.098052 107.050425 108.615197
7.380000 101.954393 103.691102 105.977608 105.749666 107.633778 109.026792
7.420000 103.036162 104.715557 106.977041 106.739498 108.526888 109.825763
7.450000 103.522729 105.387088 107.545743 107.359189 109.111573 110.513862
7.480000 104.361597 106.122834 108.243244 108.024821 109.707400 111.151082
7.520000 105.474569 107.241083 109.218962 109.029775 110.643504 112.023357
7.550000 106.000038 107.865814 109.856334 109.672482 111.265999 112.603539
7.580000 106.569581 108.518019 110.524341 110.325457 111.918527 113.298002
7.620000 107.239064 109.590746 111.468441 111.326915 113.005933 114.740489
7.650000 107.676587 110.322602 112.357506 112.154526 113.971394 115.977744
7.680000 108.239500 111.200676 113.266857 113.149523 115.136152 117.310061
7.720000 109.621137 112.715886 114.787019 114.879161 117.228306 119.427635
7.750000 110.283282 113.753476 116.081736 116.014544 118.549799 120.458578
7.780000 113.509874 115.630676 118.186175 117.994934 120.314298 121.795159
7.820000 116.385638 118.247623 120.207743 120.011185 121.636907 122.848914
7.850000 117.372301 119.359551 121.051329 120.860489 122.302445 123.411399
7.880000 118.413087 120.169326 121.688300 121.558841 122.909095 123.936849
7.920000 119.656648 121.127944 122.491385 122.364696 123.588520 124.475762
7.950000 120.291656 121.807863 123.048591 122.935429 124.051437 124.966234
7.980000 120.991848 122.372804 123.598980 123.449356 124.536851 125.352380
8.020000 121.726374 123.090622 124.213348 124.103246 125.105497 125.948261
8.050000 122.427252 123.642346 124.655805 124.567952 125.566829 126.330295
8.080000 122.883400 124.130084 125.132129 125.033770 126.015603 126.786488
8.120000 123.533981 124.726291 125.757016 125.680383 126.628033 127.308531
8.150000 124.159556 125.281822 126.244696 126.195308 127.098251 127.781093
8.180000 124.670696 125.853384 126.804219 126.738434 127.619760 128.336238
8.220000 125.603208 126.713400 127.603858 127.570797 128.433723 129.193807
8.250000 126.391544 127.518396 128.312467 128.314285 129.176115 129.950629
8.280000 127.435799 128.286542 129.067173 129.097171 129.940705 130.813535
8.320000 128.373973 129.242497 130.036036 130.038177 130.817629 131.705238
8.350000 129.025104 129.828817 130.605447 130.609081 131.432619 132.173449
8.380000 129.719389 130.441371 131.194850 131.199912 131.968822 132.705474
8.400000 130.028945 130.820948 131.585059 131.570824 132.349032 133.025677
8.420000 130.471443 131.202641 131.939917 131.932487 132.689256 133.350164
8.450000 130.946709 131.735441 132.463653 132.464976 133.206484 133.835474
8.480000 131.541685 132.240185 132.984695 132.980255 133.691614 134.401305
8.520000 132.243654 132.931426 133.628332 133.636008 134.364251 135.104983
8.550000 132.844148 133.521051 134.176431 134.189026 134.859054 135.696861
8.580000 133.393126 134.037931 134.690449 134.706061 135.364058 136.171766
8.600000 133.671874 134.359079 134.992039 135.018623 135.696270 136.477235
8.620000 133.976285 134.661271 135.294304 135.319097 136.018365 136.780346
8.650000 134.384592 135.059183 135.714028 135.733935 136.401632 137.224975
8.680000 134.793788 135.486718 136.109610 136.141489 136.802495 137.636168
8.720000 135.319903 135.981130 136.616552 136.660236 137.342805 138.225282
8.750000 135.805598 136.417350 137.006483 137.071579 137.769321 138.685789
8.780000 136.178767 136.826261 137.454512 137.519054 138.221501 139.298802
8.800000 136.458725 137.117687 137.744546 137.818032 138.559958 139.585736
8.820000 136.718881 137.390660 138.035396 138.125917 138.907310 139.930396
8.850000 137.092589 137.858762 138.541451 138.621457 139.376430 140.515357
8.880000 137.569582 138.355064 139.078319 139.142727 139.933929 141.079588
8.920000 138.233830 139.054616 139.773922 139.852197 140.710443 141.768354
8.950000 138.723124 139.528700 140.332486 140.381256 141.258138 142.227914
8.980000 139.133954 139.977304 140.852352 140.901836 141.839042 142.748152
9.000000 139.425023 140.321363 141.223725 141.257668 142.248304 143.098208
9.020000 139.902802 140.674680 141.572967 141.604976 142.600768 143.431065
9.050000 140.395445 141.170393 142.076781 142.087447 143.039888 143.965341
9.080000 140.737423 141.636767 142.530553 142.556525 143.489901 144.398320
9.120000 141.304346 142.269869 143.163308 143.145981 144.056131 144.939404
9.150000 141.702685 142.698472 143.587283 143.570369 144.478418 145.332437
9.180000 142.178605 143.151057 144.006819 143.980916 144.870673 145.660629
9.220000 142.713839 143.702495 144.533196 144.531143 145.393358 146.215982
9.250000 143.173979 144.100655 144.959750 144.963082 145.843678 146.584520
9.280000 143.628443 144.598540 145.400611 145.406146 146.272904 147.099316
9.300000 143.988711 144.935569 145.687731 145.711211 146.593387 147.388662
9.320000 144.325896 145.237331 145.986189 146.026178 146.887945 147.673238
9.350000 144.819397 145.680192 146.457675 146.486515 147.349214 148.249263
9.380000 145.237502 146.099424 146.888583 146.926849 147.781945 148.739108
9.420000 145.877828 146.601782 147.508645 147.497348 148.338458 149.312527
9.450000 146.290385 147.005635 147.939099 147.917210 148.747620 149.746254
