depth(m) lower_95(kyr) lower_68(kyr) median(kyr) mean(kyr) upper_68(kyr) upper_95(kyr)
158.810000 2684.459646 2690.316620 2695.381528 2694.606938 2698.651108 2701.093880
158.900000 2687.154290 2693.033480 2697.237969 2696.586186 2700.177203 2702.605425
158.990000 2689.019771 2695.393811 2699.158131 2698.541078 2701.637266 2704.001351
159.110000 2692.960966 2698.231066 2701.439891 2700.945287 2703.692783 2705.835381
159.190000 2695.607189 2700.036711 2702.882232 2702.489638 2704.933667 2707.024699
159.290000 2698.326811 2702.011991 2704.610275 2704.269733 2706.523911 2708.633074
159.410000 2700.869195 2704.228444 2706.509834 2706.272680 2708.312374 2710.371706
159.500000 2702.889364 2705.834595 2707.908220 2707.686991 2709.531505 2711.505139
159.590000 2704.689105 2707.326840 2709.263845 2709.091548 2710.864516 2712.715129
159.710000 2707.089874 2709.311224 2710.913953 2710.900254 2712.490473 2714.267611
159.790000 2708.655040 2710.587142 2712.169054 2712.149947 2713.769278 2715.551653
159.840000 2709.636239 2711.400484 2713.001889 2712.978664 2714.545898 2716.328920
159.887000 2710.436995 2712.148464 2713.795520 2713.759480 2715.276780 2717.204923
160.010000 2712.383931 2714.149822 2715.718435 2715.688550 2717.355724 2718.954952
160.090000 2713.753228 2715.467094 2717.058786 2717.030338 2718.608911 2720.511958
160.180000 2715.127340 2716.920323 2718.595382 2718.597395 2720.217756 2721.943332
160.310000 2717.342182 2719.012200 2720.774257 2720.806119 2722.577278 2724.676349
160.400000 2719.120267 2720.631398 2722.384595 2722.524095 2724.493910 2726.825368
160.490000 2720.609395 2722.366193 2724.181636 2724.356317 2726.377480 2729.031314
160.610000 2722.925179 2725.040088 2727.084235 2727.236921 2729.445482 2732.374074
160.690000 2724.664852 2727.072453 2729.305996 2729.438439 2731.874949 2734.840357
160.790000 2727.318686 2729.438396 2731.926869 2732.054278 2734.589692 2738.240479
160.910000 2730.116142 2732.233759 2735.039189 2735.190769 2738.136365 2741.258326
161.000000 2731.908027 2734.105908 2737.177366 2737.362792 2740.489865 2743.959326
161.090000 2733.594170 2736.072489 2739.255915 2739.422687 2742.755938 2745.904703
161.210000 2735.661187 2738.619536 2742.089373 2742.090190 2745.458089 2749.268734
161.290000 2737.312765 2740.251985 2744.024076 2743.999201 2747.370654 2751.344122
161.370000 2738.743567 2742.298200 2745.951756 2745.925114 2749.375833 2753.166950
161.510000 2741.841126 2745.749891 2749.451510 2749.383254 2753.115500 2757.018442
161.590000 2743.749609 2747.823014 2751.557557 2751.505386 2755.330265 2758.931938
161.690000 2746.407214 2750.345688 2754.128683 2754.102270 2757.729646 2761.613215
161.810000 2750.350105 2753.840414 2757.290476 2757.366271 2760.981874 2764.569526
161.900000 2752.763093 2755.939671 2759.656703 2759.566323 2763.315149 2766.617574
161.990000 2754.633981 2757.804608 2761.617825 2761.577680 2765.296520 2768.492132
162.110000 2756.668731 2760.200250 2764.181156 2764.064542 2768.008689 2771.219596
162.190000 2758.417318 2761.825204 2765.877580 2765.834915 2769.802102 2773.164307
162.290000 2760.479839 2764.007165 2768.062399 2768.024049 2772.034652 2775.548062
162.410000 2763.078377 2766.496855 2770.741768 2770.704498 2774.711690 2778.017611
162.500000 2765.157700 2768.685914 2772.917159 2772.920971 2777.027163 2780.184100
162.590000 2767.698895 2771.010443 2775.274021 2775.199924 2779.242563 2782.332682
162.710000 2770.313409 2773.937300 2778.295171 2777.970625 2781.768236 2784.672596
162.790000 2772.204576 2775.839374 2780.033078 2779.736632 2783.559841 2786.418603
162.870000 2773.866124 2777.837173 2781.744282 2781.473994 2785.318892 2787.681433
163.010000 2776.623116 2781.111298 2784.833152 2784.520087 2788.049638 2790.326030
163.090000 2778.500850 2783.031970 2786.682236 2786.368049 2789.597125 2791.655570
163.190000 2781.738388 2785.908898 2789.248845 2788.874754 2791.779385 2793.693400
163.310000 2786.168716 2789.948091 2792.898808 2792.613386 2795.296657 2797.251404
163.400000 2790.028940 2793.501472 2796.270998 2796.153285 2798.742749 2801.594260
163.490000 2794.882829 2797.383851 2799.433408 2799.550596 2801.715584 2804.728125
163.610000 2798.243486 2800.314323 2802.472213 2802.675090 2804.865122 2808.786578
163.690000 2799.925602 2802.150595 2804.420081 2804.672995 2807.090941 2811.173643
163.790000 2802.066084 2804.443246 2806.877315 2807.172765 2809.903279 2814.235650
163.910000 2805.068915 2807.303234 2810.176867 2810.580001 2814.065647 2818.094328
164.000000 2807.276778 2810.287975 2813.539132 2813.733868 2817.496454 2820.733143
164.090000 2810.036217 2813.280063 2817.311088 2817.092057 2820.559872 2823.402036
164.210000 2814.781815 2819.512070 2822.258580 2822.076169 2824.990254 2827.506845
164.290000 2817.861987 2822.399488 2825.033032 2824.885671 2827.594380 2829.671789
164.370000 2821.455129 2824.491835 2827.156357 2827.024213 2829.685829 2831.802098
164.510000 2824.949525 2827.576869 2830.342479 2830.200563 2832.588135 2834.909069
164.590000 2826.663985 2829.467569 2832.245679 2832.097119 2834.510679 2837.089193
164.700000 2829.358401 2832.178954 2834.729459 2834.683857 2837.151775 2839.650565
164.810000 2832.344211 2834.717795 2837.380026 2837.300905 2839.826736 2842.380205
164.900000 2834.511859 2837.375359 2839.837842 2839.822300 2842.302917 2844.597667
164.990000 2837.327862 2840.050584 2842.297626 2842.315591 2844.657078 2847.187265
165.110000 2840.603587 2842.991706 2845.315763 2845.231367 2847.474007 2849.693362
165.190000 2842.695003 2844.941861 2847.101098 2847.103491 2849.270753 2851.609422
165.290000 2844.573355 2847.163780 2849.301282 2849.282521 2851.597569 2853.708255
165.410000 2846.992093 2849.632021 2851.900789 2851.898222 2854.084551 2856.771069
165.500000 2849.201437 2851.642587 2853.981568 2854.163462 2856.610631 2859.687382
165.590000 2851.736648 2853.953119 2856.218417 2856.599316 2859.247514 2863.930829
165.710000 2855.121561 2857.015994 2859.670215 2860.124720 2863.468563 2867.993183
165.790000 2856.772300 2859.127130 2861.992576 2862.522135 2866.073795 2870.352341
165.900000 2858.873935 2861.872960 2865.506453 2865.805825 2869.867086 2874.353483
166.010000 2861.100709 2864.767952 2868.901760 2869.143089 2873.480733 2878.289515
166.090000 2862.747602 2866.590363 2871.055486 2871.309527 2875.897761 2880.799797
166.190000 2865.470681 2869.247126 2873.820062 2874.115732 2879.205637 2883.500559
166.290000 2867.596325 2872.008989 2876.803263 2876.915931 2882.095525 2886.147765
166.390000 2870.248574 2874.731314 2879.924454 2879.751735 2884.759890 2888.717191
166.500000 2874.167335 2878.381632 2883.500999 2883.245172 2887.728819 2891.177150
166.590000 2876.683995 2881.615069 2886.600517 2886.116008 2890.119399 2892.960845
166.690000 2880.818523 2885.557630 2890.100908 2889.546904 2893.153858 2896.904216
166.790000 2885.252890 2889.539649 2893.253088 2893.039242 2896.262829 2900.896299
166.890000 2889.966280 2893.678917 2896.980143 2897.086441 2900.678132 2905.402842
166.990000 2893.957123 2896.914378 2900.568057 2900.676129 2904.417626 2908.000482
167.090000 2896.508063 2900.030773 2903.993501 2903.872176 2907.564698 2910.757654
167.190000 2899.145170 2903.183556 2907.144910 2906.931823 2910.719475 2913.569573
167.290000 2902.627416 2906.311814 2910.034688 2909.838179 2913.402346 2916.133547
167.400000 2905.821798 2909.994909 2913.363244 2913.147191 2916.506663 2918.811773
167.440000 2906.846648 2911.166074 2914.596044 2914.313677 2917.506503 2919.826813
167.560000 2910.940538 2914.589504 2917.707345 2917.417160 2920.281313 2922.496458
167.640000 2912.960097 2916.888171 2919.756011 2919.513366 2922.168074 2924.269516
167.740000 2916.965657 2919.825008 2922.455032 2922.283701 2924.587503 2926.767295
167.860000 2920.443063 2923.261403 2925.545135 2925.402721 2927.590117 2929.546437
167.950000 2922.870155 2925.521505 2927.666479 2927.639320 2929.776947 2932.423244
168.040000 2925.679832 2928.110931 2930.096485 2930.055165 2932.078728 2934.639185
168.160000 2929.963769 2931.947355 2933.889476 2933.992996 2936.082218 2938.215306
168.240000 2933.826500 2935.534326 2937.612093 2937.791144 2940.046103 2942.938796
168.310000 2936.749958 2938.456270 2940.723087 2940.898004 2943.314936 2946.176832
168.385000 2938.867987 2940.821029 2943.210150 2943.472340 2946.172690 2949.022711
168.460000 2940.773774 2943.180498 2945.785177 2945.858886 2948.464954 2951.224560
168.540000 2942.879012 2945.471600 2948.201251 2948.156239 2950.646931 2953.771170
168.640000 2945.583087 2948.255485 2951.051332 2951.070094 2953.683345 2957.053555
168.760000 2948.770027 2951.616430 2954.549238 2954.633312 2957.689932 2961.454435
168.850000 2950.996458 2954.086610 2957.023812 2957.191423 2960.417667 2964.506572
168.940000 2953.797399 2957.024969 2959.688631 2959.914375 2963.066517 2967.032809
169.060000 2959.053218 2961.578333 2964.271010 2964.557471 2967.597289 2971.905702
169.140000 2962.656499 2965.320338 2968.788738 2968.888389 2972.245316 2976.053294
169.240000 2966.907453 2970.208920 2973.612852 2973.625936 2977.170601 2980.270312
169.360000 2971.522197 2974.995558 2978.978713 2978.800777 2982.263330 2985.840862
169.450000 2975.343222 2979.502671 2983.214340 2983.089562 2986.668621 2990.750685
169.540000 2980.386885 2983.945919 2987.247781 2987.250283 2990.381438 2994.156843
169.660000 2985.562931 2988.496961 2991.808238 2991.860460 2995.252063 2998.754854
169.740000 2987.909540 2991.506478 2995.176992 2995.028047 2998.353038 3001.283917
169.850000 2992.268428 2996.168325 2999.676538 2999.523190 3002.744301 3006.243934
169.960000 2997.567273 3000.751738 3003.618556 3003.661766 3006.758613 3009.718673
170.040000 3000.443579 3003.272506 3006.082141 3006.218207 3009.422934 3012.527700
170.140000 3003.514809 3005.793117 3008.795680 3008.954155 3012.004023 3015.248031
170.260000 3006.015399 3008.547075 3011.668687 3011.824316 3014.898498 3018.339360
170.350000 3008.020227 3010.729156 3013.803733 3014.076826 3017.243082 3021.463765
170.440000 3010.164840 3012.869721 3015.992587 3016.256907 3019.460678 3024.466088
170.560000 3012.907936 3015.656760 3018.837296 3019.288127 3022.542130 3028.125381
170.640000 3014.888716 3018.099205 3021.144882 3021.590609 3024.801417 3031.837638
170.740000 3017.525652 3020.898115 3024.035021 3024.834517 3028.708779 3038.490270
170.860000 3020.761774 3023.921722 3027.608907 3028.558742 3033.173111 3043.244127
170.950000 3023.459867 3026.932443 3030.826112 3031.714159 3036.534004 3047.179942
171.040000 3026.563074 3029.952455 3034.373923 3035.072100 3039.702315 3049.674198
171.160000 3030.523632 3034.434719 3038.892564 3039.724741 3044.870667 3053.417544
171.240000 3032.905920 3037.492883 3042.250899 3042.889211 3048.269458 3055.786886
171.310000 3035.607394 3040.276189 3045.152571 3045.644558 3051.206116 3057.900020
171.385000 3038.442896 3043.565443 3048.422653 3048.765535 3053.947506 3059.857560
171.460000 3042.362101 3046.869151 3051.901905 3052.047731 3057.322795 3062.563948
171.540000 3046.015145 3050.828717 3056.193286 3056.027465 3061.078903 3065.466859
171.640000 3051.435292 3056.912730 3062.244512 3062.110503 3067.246867 3072.274597
171.760000 3055.795674 3063.345457 3068.396692 3068.239861 3073.316999 3079.131481
171.850000 3060.372372 3066.994045 3072.260700 3072.216842 3077.574184 3083.549164
171.940000 3063.384657 3070.756999 3075.885113 3076.011556 3081.874555 3088.084970
172.060000 3068.188725 3075.406333 3081.315247 3081.345635 3087.813973 3094.516338
172.140000 3070.331009 3078.641240 3084.415036 3084.543988 3091.077195 3097.246427
172.240000 3074.634380 3081.854408 3088.721716 3088.428060 3095.233704 3100.586707
172.360000 3079.083918 3086.210691 3093.112862 3092.816920 3099.586785 3104.608581
172.450000 3083.054116 3089.404667 3096.573974 3096.049734 3102.515138 3106.775205
172.540000 3086.381084 3093.291806 3100.174610 3099.428505 3105.416945 3109.123663
172.660000 3090.350702 3097.437006 3104.499034 3103.551206 3109.110096 3112.410650
172.740000 3092.451554 3100.505508 3107.420845 3106.206898 3111.425115 3114.733872
172.810000 3095.118642 3103.207579 3109.250032 3108.377434 3113.447454 3116.254837
172.885000 3098.004765 3105.900214 3111.374334 3110.636181 3115.357785 3118.919461
172.960000 3100.511604 3108.212721 3113.610880 3112.825407 3117.356868 3121.003250
173.040000 3103.533316 3110.930290 3115.836717 3115.118575 3119.390645 3122.901302
173.140000 3107.027438 3113.958429 3118.395317 3117.951335 3122.034399 3125.164700
173.260000 3112.095210 3117.940702 3121.663164 3121.488353 3125.257787 3128.648487
173.360000 3115.880273 3120.640679 3124.143969 3124.225942 3128.087914 3131.747715
173.460000 3119.640608 3123.487563 3126.990141 3127.040584 3130.751894 3134.718466
173.560000 3123.651561 3126.404952 3129.679856 3129.842637 3133.309207 3137.027095
173.640000 3125.767004 3128.567096 3131.971449 3132.073007 3135.551688 3139.164783
173.740000 3128.609438 3131.271614 3134.522197 3134.761434 3138.173109 3142.029081
173.860000 3131.819413 3134.629816 3137.815157 3137.980136 3141.253944 3145.004489
173.950000 3134.397200 3137.141279 3140.612536 3140.699903 3144.131437 3147.581391
174.040000 3137.065833 3140.290771 3143.481575 3143.525162 3146.570375 3150.722893
174.160000 3141.815358 3144.860110 3147.893928 3148.233054 3151.393578 3156.765222
174.240000 3144.657630 3147.720234 3150.723862 3151.114582 3154.387427 3159.684540
174.310000 3146.459400 3149.466176 3152.872382 3153.216862 3156.842876 3161.777952
174.385000 3148.375499 3151.323236 3154.850648 3155.285428 3159.171186 3164.945324
174.460000 3149.898468 3153.017752 3156.785810 3157.258462 3161.559459 3167.385992
174.540000 3151.642044 3154.722100 3158.880149 3159.308422 3163.769711 3170.293327
174.640000 3153.903555 3156.825067 3161.378355 3161.951817 3166.690291 3174.115089
174.760000 3156.466445 3159.236771 3164.486194 3165.041795 3170.518242 3179.278799
174.850000 3158.267495 3161.247940 3166.619617 3167.334982 3173.214362 3182.211747
174.940000 3159.889355 3163.243807 3168.818290 3169.582776 3175.607696 3184.649751
175.060000 3162.497327 3165.867447 3171.753838 3172.542032 3179.247365 3188.080355
175.140000 3164.235011 3167.806589 3173.608820 3174.603905 3181.564650 3190.132630
175.240000 3165.973760 3170.104190 3176.263866 3177.233330 3184.432921 3192.755697
175.360000 3168.657380 3173.047770 3179.544722 3180.471620 3188.415544 3196.161893
175.450000 3170.996818 3175.690185 3182.224085 3183.017812 3190.716790 3198.582311
175.540000 3173.323860 3178.222584 3184.915374 3185.518074 3192.939582 3200.487606
175.660000 3175.562210 3181.567833 3188.370501 3188.776571 3196.281759 3202.965833
175.740000 3177.147852 3183.753405 3190.625334 3190.989028 3198.487966 3204.825554
175.810000 3178.611049 3186.141381 3192.871526 3192.944790 3200.520970 3206.437654
175.885000 3180.597798 3187.921415 3195.074881 3194.909688 3202.319387 3207.801856
175.960000 3182.763073 3190.278698 3196.990192 3196.924903 3204.005864 3209.479696
176.050000 3184.869341 3192.676535 3199.147273 3199.121887 3205.979796 3211.085622
176.140000 3187.676328 3195.355055 3201.607904 3201.396455 3207.661666 3212.886369
176.280000 3191.953861 3198.425348 3205.013547 3204.703226 3210.701501 3216.048759
176.420000 3195.489244 3202.484415 3208.285520 3207.974490 3213.627126 3218.812892
176.520000 3197.583179 3204.874175 3210.562001 3210.256569 3215.773454 3220.960042
176.620000 3200.219323 3207.201911 3212.889249 3212.570089 3217.990560 3222.748496
176.700000 3202.549813 3209.247115 3214.558769 3214.374897 3219.470212 3224.219491
176.820000 3206.860112 3212.203028 3217.126917 3217.034175 3221.802020 3226.373860
176.920000 3209.639465 3214.416715 3219.357722 3219.216631 3223.974681 3228.095735
177.020000 3212.049513 3216.992210 3221.745474 3221.518953 3226.016874 3230.094843
177.120000 3214.430776 3219.284885 3224.135162 3223.759402 3228.073330 3231.896228
177.220000 3216.760054 3221.758767 3226.363801 3225.914915 3230.193557 3233.494056
177.300000 3218.450089 3223.369969 3228.142081 3227.707175 3232.022812 3235.254121
177.420000 3221.109035 3226.364454 3230.688725 3230.373476 3234.447934 3237.733385
177.520000 3223.728855 3228.763538 3232.910885 3232.678082 3236.874037 3239.935940
177.620000 3226.428031 3231.283978 3234.952889 3234.905218 3238.822823 3241.909450
177.720000 3229.200253 3233.828481 3237.422940 3237.329311 3241.150179 3244.336578
177.800000 3231.243957 3235.820469 3239.263899 3239.249765 3242.893538 3246.135604
177.890000 3233.793657 3238.016233 3241.426601 3241.292821 3244.665041 3247.878802
177.990000 3236.558382 3240.297578 3243.839057 3243.572135 3246.688591 3249.709753
178.090000 3238.813899 3242.767624 3246.194150 3245.902330 3248.882167 3251.878700
178.190000 3242.206905 3245.271153 3248.540301 3248.316865 3251.374032 3254.195824
178.290000 3245.010532 3247.866637 3250.843098 3250.831018 3253.879933 3256.346063
178.390000 3247.878130 3250.640045 3253.506750 3253.498004 3256.259325 3259.220209
178.490000 3250.437479 3253.180020 3256.136479 3255.994089 3258.709679 3261.157030
178.590000 3252.763565 3255.486172 3258.462128 3258.339473 3261.106910 3263.702494
178.690000 3254.755747 3257.720908 3260.537877 3260.484437 3263.335816 3265.875958
178.790000 3256.677338 3259.543531 3262.694293 3262.603492 3265.482051 3268.410724
178.890000 3258.778050 3261.678723 3264.673380 3264.724256 3267.877692 3270.809613
178.990000 3260.458284 3263.600081 3266.678535 3266.764993 3269.931664 3273.079529
179.090000 3262.458897 3265.776913 3268.882582 3268.939504 3272.286601 3275.237592
179.190000 3264.725075 3267.814446 3271.155536 3271.171635 3274.461232 3277.740760
179.280000 3266.949633 3269.965359 3273.307139 3273.328552 3276.634407 3280.354131
179.360000 3269.114593 3272.086405 3275.673467 3275.581159 3278.906134 3282.241082
179.440000 3271.432940 3274.545886 3278.077461 3277.976317 3281.256841 3284.321811
179.520000 3274.032033 3277.413342 3281.098427 3280.858913 3284.083630 3286.630372
179.620000 3278.643616 3282.530372 3285.677650 3285.426732 3288.196394 3290.961618
179.740000 3283.098550 3286.288725 3288.980625 3288.903246 3291.571987 3294.014952
179.830000 3285.464352 3288.403930 3291.051864 3291.013105 3293.695295 3296.109546
179.920000 3287.823989 3290.438115 3293.031546 3293.030412 3295.642504 3298.071454
180.040000 3290.664451 3292.831415 3295.486219 3295.490842 3298.136460 3300.600463
180.120000 3292.306474 3294.463300 3297.123477 3297.193899 3299.921221 3302.523982
180.220000 3294.457244 3296.548217 3299.333640 3299.324471 3302.036999 3304.822600
180.340000 3297.030468 3299.196868 3301.996301 3301.986872 3304.724223 3306.967132
180.430000 3299.076119 3301.664496 3304.330503 3304.301120 3307.015087 3309.383148
180.520000 3301.370917 3304.206608 3306.742912 3306.790009 3309.350931 3311.926524
180.640000 3305.521501 3308.028164 3310.716318 3310.879234 3313.746190 3317.896189
180.720000 3307.545055 3310.136671 3312.932838 3313.207923 3316.149030 3321.272958
180.790000 3309.462079 3312.048334 3314.943186 3315.323106 3318.509795 3323.656696
180.865000 3311.747991 3314.142973 3317.182545 3317.588637 3321.081114 3325.554271
180.940000 3313.513662 3316.402756 3319.668113 3319.978941 3323.700701 3327.597293
181.020000 3315.679499 3318.504379 3322.324642 3322.419245 3326.267299 3330.181538
181.120000 3318.335498 3321.453297 3325.613447 3325.707727 3329.919466 3333.914923
181.240000 3321.081299 3325.109283 3329.570979 3329.745921 3334.546097 3339.048482
181.330000 3323.427295 3327.774191 3332.364967 3332.465060 3337.255168 3341.639810
181.420000 3325.814388 3330.437509 3335.107310 3335.149960 3339.830508 3344.182304
181.540000 3329.105401 3333.630386 3338.414007 3338.404995 3343.044699 3347.133749
181.630000 3332.127002 3336.338257 3340.965474 3340.809783 3345.460836 3349.133771
181.720000 3334.291678 3338.918810 3343.461820 3343.179003 3347.639354 3351.009750
181.840000 3338.093115 3342.175489 3346.597268 3346.387421 3350.467871 3353.561639
