depth(m) lower_95(kyr) lower_68(kyr) median(kyr) mean(kyr) upper_68(kyr) upper_95(kyr)
160.620000 2680.082993 2680.480038 2681.938202 2682.710505 2684.695062 2689.977401
160.745000 2680.942504 2681.832272 2683.510129 2684.204518 2686.361428 2691.431516
160.870000 2682.014006 2683.093909 2685.007681 2685.651827 2688.049807 2693.497598
160.995000 2683.000503 2684.296182 2686.567213 2687.070288 2689.648929 2694.833073
161.120000 2684.119079 2685.584228 2688.008517 2688.469602 2691.066962 2696.520010
161.220000 2685.096725 2686.715343 2689.240236 2689.635084 2692.240830 2697.753561
161.295000 2685.913411 2687.532283 2690.083670 2690.526342 2693.197636 2698.702217
161.370000 2686.651433 2688.476476 2691.100085 2691.456107 2694.131405 2699.491102
161.445000 2687.459536 2689.363776 2692.086518 2692.382399 2695.117226 2700.203120
161.520000 2688.171299 2690.220271 2692.943460 2693.283247 2696.077942 2701.205275
161.620000 2689.104871 2691.406953 2694.203871 2694.490051 2697.267182 2702.483007
161.720000 2690.002469 2692.576524 2695.367514 2695.698808 2698.557822 2704.572647
161.820000 2690.990718 2693.783440 2696.542752 2696.891070 2699.837377 2706.405688
161.895000 2691.748923 2694.608283 2697.443129 2697.844715 2700.850042 2707.694681
161.970000 2692.575510 2695.559478 2698.429800 2698.790799 2701.728372 2708.953037
162.045000 2693.363491 2696.397651 2699.360074 2699.765963 2702.815879 2710.168541
162.120000 2694.211120 2697.311491 2700.275083 2700.707434 2703.795300 2711.245275
162.195000 2694.960094 2698.231818 2701.166082 2701.661921 2704.852640 2712.118768
162.270000 2695.726056 2699.127455 2702.072445 2702.667366 2706.256909 2713.144866
162.370000 2696.937751 2700.332203 2703.372810 2704.111027 2708.571175 2715.000832
162.470000 2698.083358 2701.501191 2704.604737 2705.542513 2710.498834 2716.594146
162.570000 2699.228703 2702.667333 2705.886739 2706.984700 2712.803800 2718.033121
162.620000 2700.023530 2703.385560 2706.564941 2707.752953 2713.657111 2718.589150
162.720000 2701.548588 2704.953689 2708.279793 2709.444148 2715.137079 2719.839466
162.820000 2703.065297 2706.648784 2710.330841 2711.224891 2716.778056 2720.970883
162.920000 2704.461840 2708.310155 2712.402264 2713.004825 2718.528345 2722.151221
163.020000 2705.871210 2709.913729 2714.753355 2714.784039 2719.874722 2723.497652
163.095000 2707.526892 2711.404155 2716.133954 2716.109342 2721.011288 2724.201581
163.170000 2708.715296 2712.855235 2717.553104 2717.429279 2721.938274 2725.106924
163.245000 2710.424626 2714.427324 2718.966238 2718.791152 2723.173406 2726.347548
163.320000 2711.773365 2716.203935 2720.311612 2720.223337 2724.540910 2727.831858
163.395000 2713.843573 2717.766218 2721.660211 2721.762242 2725.905438 2730.284886
163.470000 2715.160787 2719.494825 2722.986965 2723.326599 2727.509734 2732.925386
163.570000 2717.481533 2721.203038 2724.718840 2725.576516 2730.013617 2737.637601
163.670000 2719.316271 2723.163597 2726.586079 2727.924010 2733.234773 2742.781178
163.770000 2721.567264 2724.687713 2728.163862 2730.345863 2738.029880 2748.168643
163.845000 2722.685516 2725.861206 2729.782562 2731.916824 2740.236761 2750.867571
163.920000 2723.771713 2726.969440 2730.756928 2733.444508 2742.977049 2752.804008
163.995000 2725.043795 2728.155398 2731.968769 2734.944605 2745.012499 2754.721883
164.070000 2726.308677 2729.429114 2733.518390 2736.531486 2747.334616 2756.618493
164.145000 2727.310103 2730.661958 2735.099111 2738.059180 2749.000246 2758.327932
164.220000 2728.531327 2731.962203 2736.902707 2739.674245 2750.537002 2759.562003
164.340000 2730.662077 2734.725060 2740.831847 2742.699665 2752.882173 2761.517064
164.460000 2732.606716 2737.589909 2744.132995 2745.800813 2755.256450 2764.110119
164.580000 2735.025918 2740.814130 2747.942815 2748.858589 2758.012755 2766.050803
164.700000 2737.488969 2743.921898 2751.453216 2751.925574 2760.179505 2768.067429
164.820000 2739.622093 2747.094113 2754.958077 2754.731301 2762.465045 2770.183839
164.932500 2741.770229 2749.427453 2757.368562 2756.966380 2764.121035 2772.708892
165.045000 2744.074555 2751.873663 2759.710771 2759.137484 2766.060486 2773.906942
165.157500 2746.401102 2754.447208 2761.809997 2761.302444 2767.797077 2775.789103
165.270000 2748.137982 2756.822582 2763.879561 2763.466318 2769.721754 2777.859211
165.345000 2749.624721 2758.288633 2765.013753 2764.824497 2771.186274 2778.940300
165.420000 2751.345656 2759.812108 2766.242580 2766.156931 2772.560269 2780.203264
165.536667 2753.000472 2761.689931 2768.356503 2768.204339 2774.596260 2781.715511
165.653333 2754.561671 2763.347470 2770.432753 2770.275709 2776.850178 2783.802066
165.770000 2756.843346 2765.140567 2772.703613 2772.312510 2779.264941 2785.418723
165.895000 2759.266237 2767.012448 2775.196893 2774.518363 2781.763588 2788.604869
166.020000 2760.726197 2769.153299 2777.581865 2776.796600 2784.229694 2790.319882
166.145000 2762.641123 2771.218258 2779.734286 2778.985868 2786.423251 2792.265799
166.270000 2765.194709 2773.250671 2782.212248 2781.242651 2788.493686 2794.105466
166.370000 2767.436970 2775.015459 2784.062391 2782.986547 2789.898286 2795.496061
166.490000 2770.064967 2777.914669 2785.926270 2785.123930 2791.417763 2797.561914
166.610000 2772.301453 2781.088185 2788.000419 2787.323920 2793.035727 2799.087059
166.730000 2775.436447 2784.177919 2790.046170 2789.494043 2794.724903 2800.966995
166.850000 2779.894767 2787.184886 2792.151391 2791.809746 2796.380157 2802.228081
166.970000 2783.679205 2789.912157 2794.275771 2793.896755 2797.805313 2803.516744
167.070000 2786.031356 2791.757191 2795.565015 2795.434565 2799.032047 2804.548525
167.170000 2788.630691 2793.564278 2797.027632 2797.001211 2800.395396 2805.682886
167.270000 2791.082572 2795.206834 2798.354847 2798.469370 2801.560285 2807.398262
167.370000 2793.139356 2796.633696 2799.638920 2799.847254 2802.866349 2808.562154
167.470000 2795.254652 2798.099667 2800.953084 2801.244279 2804.178684 2810.014415
167.570000 2797.175230 2799.505003 2802.220505 2802.613008 2805.450178 2811.064346
167.645000 2798.770815 2800.605914 2803.259944 2803.702294 2806.589273 2812.267005
167.720000 2799.758073 2801.679718 2804.426249 2804.766210 2807.588433 2813.358203
167.795000 2800.922046 2802.793459 2805.589660 2805.871647 2808.723299 2814.724825
167.870000 2801.824311 2803.827988 2806.716612 2807.035577 2809.913951 2816.003683
167.945000 2802.862945 2804.996095 2808.008058 2808.328132 2811.174871 2817.293253
168.020000 2804.104509 2806.223144 2809.345545 2809.733451 2812.805182 2818.618273
168.120000 2805.306912 2808.081095 2811.168589 2811.703171 2815.118800 2820.890909
168.220000 2806.822150 2809.951006 2813.294092 2813.866868 2817.449891 2824.352372
168.320000 2808.532350 2811.690641 2815.520475 2816.124755 2820.178446 2828.612596
168.395000 2809.875402 2812.905127 2817.369069 2818.047349 2822.354237 2832.602676
168.470000 2811.178105 2814.313230 2819.451851 2820.025625 2824.854880 2835.733397
168.573333 2812.691730 2816.402261 2823.271343 2823.735124 2830.721500 2838.121829
168.676667 2814.121584 2818.305237 2827.968893 2827.517240 2835.380577 2841.289436
168.780000 2815.667062 2820.559579 2833.975810 2831.369349 2839.617594 2845.492245
168.910000 2817.520033 2826.531244 2838.573819 2836.405008 2842.408931 2848.644612
169.050000 2819.476993 2839.531172 2841.355197 2841.224629 2844.677378 2852.158087
169.060000 2819.645942 2839.729910 2841.532435 2841.436317 2844.849668 2852.275160
169.110000 2820.676582 2840.718982 2842.276198 2842.334374 2845.609126 2853.810843
169.210000 2823.028986 2842.220426 2843.816564 2844.159830 2847.050270 2856.176144
169.220000 2823.356232 2842.389443 2844.003241 2844.348285 2847.214084 2856.331289
169.295000 2831.600101 2843.515357 2845.227475 2845.883650 2848.408322 2860.415787
169.370000 2836.872616 2844.515606 2846.444410 2847.379097 2849.645003 2865.298286
169.460000 2842.180365 2845.804760 2847.883609 2849.120350 2851.161317 2868.857635
169.520000 2843.493161 2846.684385 2848.952455 2850.279509 2852.593217 2871.165922
169.590000 2845.380031 2847.725155 2850.163346 2851.620059 2854.294799 2872.609613
169.670000 2846.977084 2848.944609 2851.577192 2853.333131 2856.888697 2873.730255
169.745000 2848.101568 2850.085942 2852.917520 2855.283370 2861.557306 2874.737959
169.820000 2849.193534 2851.258084 2854.633794 2857.272018 2865.697028 2876.037809
169.960000 2851.160457 2853.700973 2867.131040 2864.439655 2873.903413 2878.670559
169.970000 2851.308080 2853.897376 2867.449243 2864.694726 2874.113844 2878.852441
170.045000 2852.606869 2856.212271 2869.735330 2867.316100 2875.643099 2880.053389
170.120000 2853.662717 2858.332727 2872.996182 2870.086703 2877.050387 2881.481308
170.150000 2854.340413 2859.063223 2873.687811 2870.858342 2877.709212 2882.165537
170.270000 2858.275457 2870.717217 2876.501901 2875.082072 2879.576464 2884.077273
170.410000 2872.893479 2874.997746 2879.457245 2878.912439 2881.764924 2886.059290
170.420000 2873.186680 2875.248156 2879.661799 2879.133120 2881.942966 2886.186173
170.520000 2875.238583 2876.982385 2881.660042 2881.021493 2883.894369 2887.922914
170.570000 2876.201693 2877.940784 2882.626059 2881.995873 2884.869634 2888.630557
170.680000 2878.083934 2879.697323 2884.699959 2884.058464 2887.073484 2890.708138
170.700000 2878.621901 2880.122233 2885.123158 2884.475560 2887.590803 2891.061711
170.710000 2878.887930 2880.305491 2885.347131 2884.698560 2887.833709 2891.231987
170.790000 2880.501946 2882.371616 2886.826551 2886.445650 2889.562748 2892.963414
170.870000 2882.004770 2884.546627 2888.397106 2888.247089 2891.218040 2894.633504
170.980000 2884.121095 2888.070701 2891.096632 2891.187107 2894.307730 2899.011950
171.065000 2886.316938 2890.487220 2893.296576 2893.781484 2897.147496 2903.349726
171.150000 2889.431706 2892.643564 2895.941781 2896.458136 2900.513064 2906.055954
171.230000 2892.024776 2895.195366 2898.637526 2899.053389 2903.481665 2907.936996
171.310000 2894.986427 2897.707569 2901.527366 2901.808374 2906.026108 2910.246740
171.425000 2898.176436 2901.583689 2905.746192 2905.899056 2910.157006 2914.030442
171.540000 2901.256783 2906.000244 2910.192005 2910.036491 2914.343034 2917.824645
171.610000 2903.468910 2908.392696 2912.721074 2912.533069 2916.737084 2919.746753
171.695000 2907.250031 2911.899257 2916.472060 2916.297675 2920.621196 2924.658301
171.780000 2911.164895 2916.063823 2920.203620 2920.099974 2924.437012 2927.860317
171.880000 2914.800584 2919.842830 2924.510753 2924.129985 2928.522960 2930.973415
171.980000 2919.355789 2923.944447 2929.088814 2928.145101 2931.849181 2933.932940
172.020000 2920.950212 2925.435963 2930.380034 2929.600137 2933.352951 2935.578720
172.115000 2925.286720 2929.961524 2934.401006 2934.457964 2938.601883 2945.099848
172.210000 2931.761000 2935.472279 2938.868924 2939.710972 2944.062705 2952.713271
172.340000 2937.050798 2940.817667 2948.029821 2948.307020 2956.480961 2960.113954
172.440000 2941.693221 2947.068959 2954.529283 2953.803986 2960.343832 2963.796848
172.540000 2947.053063 2954.657277 2960.170881 2959.249554 2964.033652 2966.890244
172.660000 2960.944509 2963.665521 2966.071417 2965.898138 2968.382874 2970.583152
172.735000 2963.512520 2966.096241 2968.432055 2968.191419 2970.503750 2972.596593
172.810000 2965.994457 2968.176469 2970.401618 2970.233291 2972.473143 2974.536892
172.840000 2966.773484 2968.997995 2971.116752 2970.957968 2973.279822 2975.066805
172.920000 2968.479870 2970.552856 2972.625704 2972.499962 2974.782465 2976.554359
173.000000 2969.856259 2972.016323 2974.149348 2973.982873 2976.325941 2978.073653
173.110000 2971.848139 2973.873040 2976.020547 2975.882558 2978.267783 2980.159138
173.230000 2973.800743 2975.762124 2977.992875 2977.865810 2980.052388 2982.002638
173.375000 2975.990018 2978.208890 2980.278129 2980.155028 2982.282158 2984.361683
173.520000 2978.420547 2980.632060 2982.452386 2982.488017 2984.626695 2986.677166
173.560000 2979.180258 2981.349981 2983.127898 2983.213500 2985.340031 2987.358374
173.666667 2980.959492 2983.023704 2984.933292 2984.954685 2987.117129 2989.244300
173.773333 2982.917439 2984.779279 2986.647431 2986.673552 2988.677904 2990.890901
173.880000 2984.615560 2986.498742 2988.402034 2988.406179 2990.337781 2992.721742
173.975000 2986.039884 2987.994673 2989.944250 2989.961939 2991.940351 2994.358457
174.070000 2987.839271 2989.635553 2991.449525 2991.497369 2993.420450 2995.816492
174.200000 2989.777720 2991.584834 2993.425056 2993.534288 2995.547516 2998.008983
174.330000 2991.647444 2993.542056 2995.542615 2995.579723 2997.631536 3000.182259
174.460000 2993.830135 2995.570578 2997.516743 2997.630687 2999.615816 3002.155989
174.535000 2995.073248 2996.844537 2998.824176 2998.897191 3000.974055 3003.388475
174.610000 2996.439300 2998.056171 2999.974419 3000.179096 3002.289338 3004.786031
174.730000 2998.459667 3000.120371 3002.004914 3002.291035 3004.428348 3007.173509
174.820000 3000.006953 3001.783967 3003.778502 3004.047103 3006.399573 3009.388123
174.910000 3001.431538 3003.372405 3005.498065 3005.775507 3008.186491 3011.262317
175.020000 3003.553501 3005.386511 3007.664447 3007.933154 3010.380992 3014.059880
175.130000 3005.514639 3007.473097 3009.884347 3010.163108 3012.736631 3016.656776
175.210000 3006.819805 3008.920898 3011.405281 3011.824926 3014.588281 3019.010777
175.310000 3008.445896 3010.844846 3013.519195 3014.015029 3017.268575 3022.429658
175.395000 3010.134120 3012.426325 3015.435754 3016.052196 3019.644704 3026.628708
175.480000 3011.586422 3014.192040 3017.395385 3018.152344 3021.907436 3030.274859
175.590000 3013.502271 3016.363311 3020.101738 3021.398099 3026.452294 3037.107192
175.700000 3015.532473 3018.818379 3023.222901 3024.854608 3031.757474 3041.728225
175.810000 3017.794329 3021.607152 3027.343358 3028.855454 3037.155141 3045.625423
175.950000 3020.300651 3025.415089 3033.815531 3034.340184 3043.493338 3050.633197
176.040000 3022.075124 3028.210622 3038.055519 3037.809276 3046.703193 3053.772405
176.130000 3023.652798 3031.436884 3041.841768 3041.391116 3050.270579 3058.451904
176.230000 3025.620142 3035.400497 3046.005524 3045.461617 3054.330877 3064.916858
176.320000 3027.799370 3038.746055 3049.896422 3049.505809 3058.241197 3074.017040
176.410000 3030.382110 3041.973017 3053.994575 3053.629163 3063.119495 3081.218558
176.485000 3031.891340 3044.660459 3057.532737 3057.431761 3069.447939 3085.759348
176.560000 3034.121699 3046.961503 3060.905843 3061.253360 3075.654339 3091.631631
176.685000 3037.438093 3050.622997 3072.908659 3071.331758 3088.317740 3102.284873
176.810000 3043.564348 3054.833965 3086.478942 3081.690219 3101.227457 3109.869821
176.885000 3045.890323 3057.992053 3092.401089 3086.445575 3105.817858 3112.810904
176.960000 3050.707775 3060.811315 3098.336390 3091.149758 3110.024967 3116.026338
177.055000 3056.385271 3070.904523 3104.485628 3097.056513 3113.572219 3119.217353
177.150000 3060.525024 3082.714064 3109.548505 3102.856047 3117.123254 3122.333581
177.250000 3071.488034 3092.847665 3113.724412 3108.569539 3120.220049 3125.034576
177.350000 3085.354630 3102.826625 3117.655967 3114.046464 3123.202872 3127.807708
177.450000 3099.163180 3112.072385 3121.494735 3119.472865 3126.279523 3130.441046
177.530000 3106.584534 3117.327857 3123.969703 3123.114605 3128.811742 3132.638341
177.610000 3116.256993 3122.095286 3126.761642 3126.629211 3131.421203 3135.128990
177.650000 3118.185208 3123.964906 3128.194265 3128.202158 3132.671671 3136.744352
177.750000 3123.899109 3128.236750 3132.106929 3132.274231 3136.389900 3141.050865
177.825000 3126.830424 3131.341220 3135.172006 3135.379287 3139.228071 3144.546085
177.900000 3130.792263 3134.507699 3138.523587 3138.678718 3142.547607 3147.573967
178.013333 3135.335910 3139.430441 3144.243046 3145.335475 3150.198291 3163.437714
178.126667 3139.304468 3144.308677 3150.879524 3152.727240 3161.439755 3176.151625
178.240000 3142.895034 3149.258167 3157.944285 3159.735168 3170.664159 3184.801839
178.325000 3145.932981 3152.673353 3163.643852 3164.775062 3176.487466 3190.387552
178.410000 3148.977583 3155.793741 3168.930123 3169.720404 3181.968273 3196.449401
178.490000 3151.901711 3159.587567 3173.778204 3174.463870 3188.582963 3201.181520
178.580000 3155.631305 3163.669625 3179.833149 3179.873689 3195.187926 3207.346618
178.670000 3158.675468 3167.955642 3185.508744 3185.210925 3201.341391 3211.790394
178.755000 3161.293505 3171.937214 3190.684024 3189.925920 3205.864471 3215.865380
178.840000 3165.796379 3176.885486 3196.185662 3194.625395 3210.556081 3219.294097
178.900000 3168.236976 3179.842353 3200.186359 3197.887168 3213.352662 3221.642448
179.030000 3173.380519 3187.398313 3207.571810 3204.925121 3219.001833 3227.238243
179.160000 3179.327717 3195.496365 3214.908596 3211.784354 3224.019860 3232.223405
179.240000 3183.176685 3199.619401 3219.144124 3215.801579 3227.257089 3236.074909
179.310000 3186.434372 3203.962585 3222.324936 3219.092148 3230.068403 3241.291271
179.450000 3194.542555 3210.565149 3228.502130 3225.314500 3235.408819 3250.060873
179.530000 3198.872590 3214.812274 3232.179485 3229.196537 3238.703311 3257.466490
179.610000 3202.056701 3219.478800 3235.597192 3233.009775 3242.059342 3263.973563
179.650000 3203.952799 3221.572425 3237.334034 3234.987297 3244.059183 3266.510923
179.750000 3208.951392 3227.152241 3241.090241 3239.773048 3247.973407 3274.041338
179.850000 3216.023290 3232.215677 3244.949266 3245.141933 3252.350889 3287.859992
179.950000 3222.640977 3237.775514 3248.612838 3250.550570 3256.819018 3306.457287
180.050000 3228.414731 3243.394976 3252.158212 3255.714730 3261.292788 3318.876687
180.170000 3236.909707 3249.517823 3256.712046 3262.118215 3266.657256 3327.769992
180.260000 3244.492164 3253.718848 3260.865845 3267.260769 3271.393034 3335.592528
180.350000 3251.359554 3257.808277 3264.734874 3272.354789 3275.318003 3342.047645
180.400000 3254.296096 3260.358770 3267.161432 3275.205979 3278.599613 3347.449276
180.510000 3259.354252 3266.210283 3273.166290 3282.125950 3294.278224 3355.665954
180.605000 3264.243613 3271.537498 3279.528677 3289.712226 3313.707953 3361.439422
180.700000 3269.577788 3277.268823 3286.610645 3297.869492 3326.108353 3366.804555
180.825000 3277.373448 3287.745500 3301.032001 3310.821565 3335.824706 3371.900097
180.950000 3288.183150 3301.457676 3313.050312 3323.768807 3344.312665 3377.625716
181.030000 3295.810383 3306.938134 3330.039293 3331.369835 3348.013615 3381.125256
181.110000 3303.512589 3311.260652 3339.179952 3338.692463 3352.212179 3385.073868
181.150000 3305.810650 3313.770562 3341.869521 3341.255569 3354.709632 3386.637875
181.250000 3310.507339 3322.657327 3347.738261 3347.359436 3370.203630 3390.682660
181.350000 3314.806530 3331.152879 3352.850117 3352.914942 3378.628605 3395.218290
181.450000 3318.815245 3337.943572 3357.752260 3358.417364 3385.858180 3400.040600
181.550000 3322.962798 3346.920619 3363.039698 3364.053633 3391.779534 3404.278693
181.672000 3328.050891 3354.946854 3369.905492 3371.081813 3396.394424 3410.405636
181.794000 3333.997284 3361.618473 3376.200494 3377.820635 3401.023545 3416.167277
181.916000 3339.740823 3367.534544 3382.793045 3384.593771 3406.897224 3420.953802
182.038000 3345.722736 3374.508716 3390.012756 3391.302023 3413.485277 3430.026288
182.160000 3351.245914 3381.605414 3397.042962 3397.790311 3420.491157 3435.985224
182.295000 3356.843497 3387.311643 3404.181045 3404.656069 3427.277870 3444.950567
182.430000 3363.027201 3393.062422 3411.314685 3411.248973 3434.993133 3451.045076
182.572500 3369.179439 3399.095129 3418.610213 3418.393979 3441.508479 3460.269616
182.715000 3376.086073 3404.250596 3425.566263 3425.276608 3448.627929 3467.780653
182.857500 3383.036617 3409.254916 3432.097945 3432.158140 3456.114447 3475.318820
183.000000 3390.610575 3414.991728 3439.211202 3439.008628 3463.503819 3482.459090
