depth(m) lower_95(kyr) lower_68(kyr) median(kyr) mean(kyr) upper_68(kyr) upper_95(kyr)
86.570000 2683.863605 2690.670528 2697.983367 2697.594717 2703.971459 2709.735837
86.676667 2689.520145 2695.176319 2702.172109 2701.613155 2707.419635 2712.239540
86.783333 2694.130122 2700.171785 2705.974846 2705.566326 2711.026630 2714.730529
86.890000 2699.249297 2705.406658 2710.069849 2709.642819 2714.098097 2717.561254
86.980000 2703.106402 2708.956328 2713.392925 2713.005987 2717.010638 2720.292514
87.090000 2708.669958 2713.799942 2717.543458 2717.150302 2720.684044 2724.079648
87.200000 2714.837507 2719.053081 2722.247768 2722.335705 2725.824951 2728.963137
87.300000 2722.202820 2725.209329 2728.541752 2728.517131 2731.792439 2735.018433
87.380000 2724.913944 2728.341733 2731.384455 2731.410334 2734.545235 2738.034534
87.500000 2728.547033 2731.341019 2734.456079 2734.571051 2737.642315 2741.907349
87.600000 2730.878539 2733.747891 2736.763246 2736.939037 2739.923633 2744.573706
87.700000 2733.083610 2735.874129 2738.995452 2739.254221 2742.405103 2747.109124
87.800000 2735.154997 2737.991606 2741.056533 2741.466285 2744.789575 2750.404734
87.900000 2737.309721 2740.106182 2743.269880 2743.768592 2747.383986 2753.462977
88.000000 2739.555777 2742.338845 2745.478929 2746.063851 2749.711494 2756.668796
88.090000 2741.322877 2744.278039 2747.538941 2748.273345 2752.336735 2759.261503
88.195000 2743.485514 2746.485040 2749.823141 2751.062113 2755.669399 2765.780664
88.300000 2745.779481 2748.769526 2752.339596 2753.983815 2759.484504 2769.499843
88.400000 2748.199359 2751.075415 2755.027774 2756.883947 2763.620628 2772.750728
88.500000 2750.557731 2753.850554 2758.373903 2760.268142 2768.189479 2775.104240
88.600000 2753.157176 2756.979372 2762.518723 2763.798874 2771.317021 2777.526868
88.700000 2755.643085 2760.604303 2767.086364 2767.549674 2774.197833 2780.274926
88.800000 2758.334323 2764.142974 2771.379910 2771.200578 2777.224292 2782.273161
88.900000 2762.580123 2768.154887 2774.453755 2774.435850 2779.520292 2784.359310
89.000000 2766.547027 2771.741688 2777.208652 2777.441894 2781.885626 2786.742897
89.100000 2770.286324 2775.024838 2779.838399 2780.194562 2784.087584 2788.311226
89.200000 2773.583920 2777.953468 2782.292673 2782.771246 2786.283689 2790.373938
89.300000 2776.464323 2780.842687 2785.015328 2785.336481 2788.688320 2792.429509
89.380000 2778.852325 2783.420546 2787.188570 2787.571512 2790.609335 2794.245557
89.510000 2783.188942 2787.733348 2791.008128 2791.439907 2794.012543 2797.130312
89.590000 2787.049922 2790.964507 2794.244478 2794.685430 2797.246240 2800.744823
89.710000 2792.678448 2796.439815 2799.723829 2800.835231 2804.530669 2811.680398
89.800000 2795.783968 2800.278550 2804.506548 2805.199629 2809.192592 2816.762881
89.900000 2798.588785 2804.436920 2809.953113 2809.982797 2813.966842 2823.174141
90.000000 2801.621645 2808.185733 2813.636592 2813.631746 2817.330030 2828.637690
90.100000 2806.201561 2812.057732 2817.108326 2817.250635 2820.721111 2835.944990
90.200000 2809.913685 2815.455425 2820.651127 2820.851760 2824.572923 2840.172077
90.300000 2812.860819 2819.127465 2824.441673 2824.647881 2828.614246 2853.357040
90.380000 2814.637334 2821.361163 2827.912142 2827.785550 2832.676794 2855.286610
90.500000 2816.717262 2823.963845 2833.200902 2832.757424 2839.205526 2858.760526
90.600000 2819.163273 2826.039594 2843.070669 2839.728325 2849.706877 2861.209807
90.700000 2821.465193 2828.174596 2850.052865 2844.788976 2856.368630 2863.913102
90.800000 2823.915858 2830.371679 2856.030113 2849.016280 2860.714185 2867.121692
90.910000 2827.097143 2832.836774 2860.481326 2853.029459 2865.104596 2871.114108
91.000000 2829.920487 2834.975930 2863.466219 2856.151764 2869.111089 2875.342271
91.090000 2832.640802 2837.221108 2866.573882 2859.329910 2872.572981 2879.964258
91.210000 2836.890034 2841.221343 2871.787272 2864.801140 2879.842656 2886.677552
91.300000 2840.520548 2846.216610 2876.600719 2869.443753 2885.175610 2889.911949
91.390000 2844.883881 2851.776578 2882.217654 2874.285333 2889.776011 2893.437936
91.500000 2851.866348 2856.748774 2890.016448 2879.952669 2894.342942 2897.504537
91.600000 2856.487941 2859.950156 2894.087628 2883.814071 2897.811542 2901.241833
91.700000 2859.179258 2862.297319 2896.724799 2886.592821 2900.668012 2903.964846
91.800000 2861.386433 2864.640777 2898.831851 2889.010164 2903.046804 2906.785948
91.900000 2863.438921 2866.838494 2900.908806 2891.326791 2905.537065 2909.258233
92.000000 2865.805417 2869.253386 2903.011836 2893.638841 2907.780296 2911.459620
92.100000 2867.977815 2872.015873 2904.950652 2896.047121 2910.362592 2913.841368
92.200000 2870.868866 2875.565929 2907.058838 2898.797006 2912.662743 2916.360948
92.300000 2873.968011 2880.064479 2909.046243 2901.662754 2914.846270 2918.878033
92.445000 2877.936197 2886.584154 2911.894615 2905.682188 2917.900830 2921.888060
92.590000 2881.654179 2892.359678 2914.728642 2909.509859 2920.921944 2924.345055
92.610000 2882.053038 2892.975455 2915.199211 2910.056067 2921.330391 2924.823780
92.710000 2885.978017 2895.742555 2917.511240 2912.631617 2923.708165 2927.666524
92.810000 2889.429534 2899.019243 2919.699496 2915.304955 2926.194904 2929.688169
92.910000 2893.326739 2903.150551 2921.910994 2918.023693 2928.806281 2932.047364
93.010000 2897.643568 2906.765263 2924.357101 2920.725981 2931.048356 2934.151802
93.110000 2901.837571 2910.468555 2926.832044 2923.401546 2932.876840 2936.124703
93.210000 2905.874907 2914.068952 2929.661671 2926.101885 2934.915541 2937.992664
93.310000 2909.744710 2918.006394 2932.181818 2928.849057 2936.899750 2939.816770
93.430000 2914.969897 2922.695424 2934.757593 2932.155482 2939.266370 2942.392235
93.550000 2919.163961 2927.632184 2937.383460 2935.409641 2941.821747 2945.314637
93.670000 2924.409312 2931.745413 2940.212977 2938.606953 2944.588155 2947.764731
93.790000 2929.263252 2936.278815 2942.997378 2941.920052 2947.076328 2950.434677
93.910000 2935.753944 2940.678581 2945.744208 2945.182973 2949.620439 2952.786279
94.010000 2938.798857 2943.750908 2948.313266 2947.817426 2951.759568 2954.718906
94.110000 2942.287771 2946.808210 2950.750204 2950.490993 2954.151827 2956.599585
94.210000 2944.810815 2949.835356 2953.515108 2953.241494 2956.661215 2959.283635
94.310000 2948.383491 2952.846502 2956.222264 2956.020426 2959.377513 2962.129180
94.410000 2951.934642 2955.895682 2959.216019 2959.152472 2962.327250 2965.746716
94.510000 2955.713470 2959.425910 2962.308702 2962.473672 2965.752470 2968.953612
94.610000 2959.134376 2962.466400 2965.622407 2965.839598 2969.644276 2973.054823
94.710000 2961.564016 2964.942998 2968.756086 2968.815943 2972.775493 2976.188756
94.810000 2964.086623 2967.409788 2971.521052 2971.658883 2975.922857 2979.492396
94.910000 2966.785276 2970.108069 2974.636600 2974.595485 2978.730247 2982.328423
95.042667 2970.143156 2973.702081 2978.431640 2978.319752 2982.165099 2987.477952
95.175333 2972.999252 2977.880613 2982.104567 2982.156041 2986.088757 2993.101388
95.308000 2975.631740 2982.048311 2986.179070 2985.878558 2990.684656 2999.490064
95.310000 2975.672097 2982.133374 2986.236479 2985.933071 2990.755219 2999.518530
95.410000 2977.911115 2984.757469 2988.391300 2988.689069 2993.394357 3001.489684
95.510000 2981.072347 2986.993227 2990.767473 2991.330418 2995.693840 3003.194628
95.610000 2985.298084 2989.567274 2993.444519 2993.928311 2997.931982 3004.680567
95.710000 2988.341370 2992.745613 2996.688224 2996.856711 3000.955613 3006.374974
95.810000 2990.779343 2995.180066 2999.512877 2999.714109 3004.083625 3009.640270
95.910000 2993.862438 2997.903898 3002.218599 3002.499881 3006.909263 3011.577888
96.050000 2997.522962 3001.352368 3005.976538 3006.279819 3010.914917 3016.091993
96.190000 3001.456434 3005.142522 3009.646281 3010.023459 3014.742810 3020.108518
96.290000 3003.806347 3007.958269 3012.626471 3012.875027 3017.689749 3023.048250
96.390000 3006.271287 3010.944137 3015.738086 3015.756432 3020.080168 3026.424358
96.490000 3009.580971 3014.052080 3018.470276 3018.744180 3023.054622 3029.316101
96.590000 3012.486017 3017.600731 3021.558446 3021.821625 3025.757575 3032.249449
96.690000 3016.009164 3021.132448 3024.736073 3025.156221 3028.824641 3035.475431
96.790000 3020.571720 3024.154235 3027.575926 3028.134697 3031.737596 3039.441588
96.890000 3023.475924 3027.043496 3030.334786 3030.943332 3034.875230 3041.787620
96.990000 3026.108250 3029.622215 3033.237347 3033.833531 3037.897642 3045.413782
97.090000 3029.114664 3032.230273 3036.252862 3036.944469 3041.496628 3049.940605
97.190000 3032.012870 3035.242342 3039.843723 3040.488884 3045.555632 3053.672204
97.290000 3035.005884 3038.692940 3043.657424 3044.147927 3049.842808 3055.939783
97.390000 3038.775627 3043.026509 3047.967822 3048.279802 3053.661409 3058.351182
97.490000 3041.904002 3047.444182 3052.843623 3052.513542 3057.366222 3061.093933
97.590000 3046.303372 3052.945744 3057.680838 3057.152607 3061.295223 3065.484654
97.690000 3051.011054 3056.983449 3060.623379 3060.378539 3063.728368 3068.312578
97.790000 3055.217913 3059.653983 3063.003050 3062.908128 3065.751784 3070.884504
97.890000 3058.195602 3062.042243 3064.968186 3065.094866 3067.677315 3073.431495
97.990000 3061.097449 3064.212693 3066.809073 3067.024030 3069.515448 3075.521918
98.090000 3063.346564 3066.066454 3068.584675 3068.934404 3071.439241 3077.753135
98.190000 3065.551265 3067.934199 3070.263503 3070.713936 3073.349114 3079.568745
98.290000 3067.391489 3069.639338 3071.789840 3072.406797 3075.067326 3081.318845
98.390000 3069.093831 3071.221018 3073.461593 3074.159093 3076.839492 3083.159647
98.490000 3070.756083 3072.883836 3075.026100 3075.880822 3079.001790 3085.318931
98.590000 3072.382404 3074.465763 3076.859519 3077.683338 3081.147283 3087.374553
98.690000 3073.751240 3075.936888 3078.489610 3079.406992 3083.252782 3089.243471
98.790000 3075.409045 3077.552446 3080.146055 3081.102641 3085.202329 3091.044344
98.890000 3076.715793 3079.010877 3081.718191 3082.745296 3086.883012 3092.702885
99.035000 3078.464820 3080.989155 3083.914767 3084.901992 3089.228012 3095.853800
99.180000 3080.359596 3082.968028 3086.120360 3087.031971 3091.358055 3098.447401
99.325000 3082.361238 3084.949330 3088.230757 3089.149750 3093.420455 3100.562640
99.470000 3084.252661 3087.004899 3090.225539 3091.206668 3095.378091 3103.365255
99.615000 3086.236173 3089.022322 3092.195595 3093.303355 3097.448997 3106.223378
99.760000 3087.983302 3090.959323 3094.371101 3095.423691 3099.531280 3109.761489
99.905000 3089.918072 3092.905642 3096.394186 3097.458791 3101.499783 3112.362209
100.050000 3091.631294 3094.985339 3098.484333 3099.515530 3103.444691 3115.848448
100.195000 3093.588160 3096.876755 3100.622720 3101.572601 3105.413226 3120.509562
100.340000 3095.436471 3098.779071 3102.630905 3103.671190 3107.292273 3124.111571
100.485000 3097.427277 3100.867785 3104.792803 3105.787737 3109.309154 3127.841872
100.630000 3099.167944 3102.769909 3107.015938 3107.917996 3111.252587 3131.069746
100.775000 3100.964788 3105.012331 3109.182393 3110.063347 3113.400546 3135.307371
100.920000 3103.115837 3107.001608 3111.369693 3112.201315 3115.443272 3141.634586
101.065000 3105.230383 3109.048520 3113.504780 3114.434447 3117.601423 3149.630304
101.210000 3106.923896 3111.432941 3115.561697 3116.714662 3119.679602 3152.793298
101.310000 3109.455510 3113.242648 3117.285408 3118.482081 3121.318973 3155.880738
101.410000 3111.415839 3115.283960 3119.274120 3120.475708 3123.263978 3158.672443
101.510000 3113.710202 3117.493555 3121.562932 3122.850779 3125.804149 3160.032841
101.610000 3115.966958 3119.954484 3124.359967 3125.658245 3129.272886 3161.801531
101.710000 3118.344352 3122.474142 3127.233719 3128.546570 3132.812998 3164.129270
101.810000 3120.817275 3125.241427 3130.411678 3131.554665 3136.359922 3166.042788
101.910000 3123.787098 3127.828915 3133.637694 3134.713584 3140.041676 3168.252744
102.010000 3126.705555 3131.227520 3137.541643 3138.107703 3142.906991 3169.883968
102.110000 3129.867888 3135.411406 3141.456376 3141.635282 3145.581722 3170.829126
102.210000 3133.850868 3140.427316 3145.068245 3145.238236 3148.082264 3172.400931
102.310000 3138.135137 3143.732059 3147.173285 3147.850053 3150.306541 3175.269789
102.410000 3143.162101 3146.508498 3149.052762 3150.244682 3152.528881 3176.783192
102.510000 3146.274301 3148.698695 3150.987956 3152.347278 3154.405139 3179.324151
102.610000 3148.545529 3150.504495 3152.731581 3154.242434 3156.171102 3181.891714
102.710000 3150.003815 3152.132396 3154.357658 3156.007421 3158.110165 3184.357176
102.810000 3151.545823 3153.631168 3156.001903 3157.798165 3160.325081 3186.810977
102.910000 3153.056919 3155.201910 3157.581254 3159.555218 3162.362108 3188.333713
103.010000 3154.693453 3156.751258 3159.482591 3161.495583 3164.492569 3190.125377
103.110000 3156.364791 3158.375547 3161.371152 3163.376648 3166.784810 3191.213947
103.210000 3157.848567 3160.064894 3163.291240 3165.359727 3169.429260 3192.774076
103.310000 3159.394373 3161.628057 3165.424649 3167.390195 3172.192847 3194.721919
103.410000 3160.949833 3163.269846 3167.561772 3169.517050 3174.801108 3196.108029
103.510000 3162.498465 3165.104806 3169.896966 3171.651788 3177.015275 3197.868627
103.610000 3164.053573 3167.284812 3172.189629 3173.855293 3179.025883 3200.268298
103.710000 3165.843892 3169.208500 3174.767280 3176.065302 3181.189820 3201.672636
103.810000 3167.707149 3171.377946 3177.075474 3178.360947 3183.581494 3203.327817
103.910000 3169.705252 3173.676221 3179.470571 3180.676496 3185.891359 3205.277316
104.010000 3171.333223 3175.992278 3181.722507 3182.962743 3188.882362 3207.197989
104.110000 3173.210278 3178.449394 3183.661431 3185.243841 3191.548893 3209.079227
104.210000 3175.383390 3180.581401 3185.708609 3187.450543 3194.082876 3210.955200
104.310000 3177.226161 3182.584339 3188.088060 3189.623305 3196.863834 3213.225485
104.410000 3179.656957 3184.627948 3190.329068 3191.858339 3199.264010 3214.895279
104.510000 3181.587696 3186.497407 3192.472566 3194.073586 3202.072246 3217.101076
104.610000 3183.683203 3188.520870 3194.675211 3196.353605 3204.695486 3219.117940
104.710000 3186.062418 3190.622109 3197.135830 3198.632522 3207.055494 3221.111613
104.810000 3187.903501 3192.910847 3199.273320 3201.016105 3209.700588 3223.093640
104.910000 3189.869018 3194.962473 3201.938267 3203.465027 3212.466511 3224.743228
105.010000 3191.477301 3197.274974 3204.708975 3205.921909 3214.964901 3227.406958
105.110000 3193.842606 3199.698803 3207.447665 3208.418946 3217.446228 3229.633797
105.210000 3196.308909 3201.878784 3210.305986 3210.999147 3220.175796 3231.365997
105.350000 3199.714040 3205.715284 3214.717007 3214.884336 3223.938090 3233.880957
105.490000 3202.500484 3209.253205 3219.091428 3218.782007 3227.401636 3236.457323
105.630000 3205.737257 3213.524768 3223.724717 3222.715590 3230.926429 3239.233807
105.770000 3208.952469 3217.562411 3227.828132 3226.672148 3234.497265 3241.372411
105.910000 3212.265353 3222.415493 3231.992601 3230.584118 3237.908062 3244.024704
106.010000 3213.907562 3225.266356 3234.966467 3233.402766 3240.520327 3245.884499
106.110000 3216.206939 3228.586440 3237.523968 3236.292379 3243.222207 3248.453592
106.210000 3220.215396 3231.553658 3240.234180 3239.052406 3245.662864 3252.039826
106.310000 3224.119261 3235.333233 3243.066879 3241.953920 3248.341455 3255.736563
106.410000 3228.863403 3239.002656 3245.638186 3245.047660 3251.175186 3259.230945
106.510000 3232.324370 3242.395604 3248.682644 3248.694300 3255.476277 3263.757058
106.610000 3236.582313 3245.874605 3252.105894 3252.592673 3259.749277 3267.864616
106.710000 3241.102568 3250.037267 3256.895146 3256.966213 3264.423790 3271.444016
106.810000 3245.448044 3253.781832 3262.004459 3261.448248 3268.908676 3275.243263
106.910000 3249.490577 3257.891365 3267.056308 3266.334719 3273.679707 3279.613455
107.040000 3256.839751 3267.102661 3274.549875 3273.850585 3281.013160 3285.754820
107.170000 3266.622227 3275.663526 3281.860167 3280.959136 3286.360613 3289.982818
107.300000 3278.812797 3283.830163 3287.564633 3287.332993 3290.794051 3294.197089
107.400000 3283.653342 3286.906041 3290.248154 3290.257454 3293.482930 3296.897482
107.500000 3286.733101 3289.601418 3292.707997 3292.794069 3295.999801 3299.284868
107.600000 3288.911063 3292.078265 3295.122255 3295.175675 3298.368242 3301.962487
107.700000 3291.336198 3294.326693 3297.352991 3297.563441 3300.883004 3304.261596
107.800000 3293.902432 3296.566087 3299.848002 3300.003426 3303.296800 3307.041705
107.900000 3296.282843 3299.167128 3302.452732 3302.755774 3306.212539 3311.690781
108.000000 3298.544224 3301.789069 3305.231490 3305.559253 3309.086441 3316.899225
108.100000 3301.120075 3304.523695 3307.780062 3308.451963 3311.847300 3321.635301
108.200000 3304.455290 3307.422656 3311.037670 3312.035056 3316.437536 3325.849593
108.300000 3307.268991 3310.756368 3315.673086 3316.687211 3323.038906 3329.332252
108.400000 3309.421032 3314.218580 3321.054157 3321.169536 3328.349114 3332.647671
108.500000 3311.692343 3318.587337 3326.385582 3325.475062 3332.205350 3335.897354
108.600000 3314.027790 3322.496213 3330.686746 3329.220849 3335.357231 3339.204187
108.610000 3314.266417 3322.809417 3331.034265 3329.553265 3335.679044 3339.456530
108.710000 3318.110297 3326.312857 3334.273811 3332.794924 3338.701233 3342.863165
108.810000 3321.469758 3329.856806 3336.984278 3335.923138 3341.541925 3345.861420
108.910000 3326.529457 3333.207232 3339.905780 3339.055667 3344.121816 3348.735475
109.010000 3329.471834 3336.707209 3342.714798 3342.030933 3346.953431 3351.249023
109.110000 3333.307767 3340.310447 3345.601490 3345.068237 3349.527657 3354.060176
109.210000 3338.043779 3344.146160 3348.773851 3348.272079 3352.496642 3356.314310
109.310000 3342.408490 3347.483224 3351.887696 3351.531826 3355.572468 3358.948700
109.410000 3345.843504 3350.928294 3355.227302 3354.944019 3358.897385 3362.134528
109.510000 3350.277357 3354.340349 3358.102942 3358.060981 3361.924104 3365.026811
109.610000 3354.599536 3358.106671 3361.705087 3361.502883 3364.871026 3367.740371
109.710000 3357.862256 3361.563221 3365.030068 3364.818350 3368.026689 3371.119956
109.810000 3361.248955 3365.383335 3368.725670 3368.680092 3371.931713 3375.670516
109.910000 3365.489622 3369.476490 3373.108512 3373.034980 3376.518479 3380.985841
110.010000 3368.101665 3372.412112 3376.532495 3376.646789 3380.965778 3385.417981
110.110000 3371.238957 3375.246244 3379.961707 3380.018645 3384.914440 3390.047871
110.210000 3374.367423 3378.209755 3383.019590 3383.531832 3388.989283 3395.021542
110.310000 3377.221087 3381.370451 3386.369830 3387.021079 3393.410169 3399.556003
110.410000 3380.736802 3384.731340 3389.621809 3390.739630 3397.674588 3402.955098
110.510000 3385.159001 3389.185962 3394.537689 3395.059657 3401.732393 3407.212097
110.610000 3388.691639 3392.493560 3399.169704 3399.259989 3405.546103 3410.280079
110.710000 3391.785572 3397.309336 3404.585123 3403.853228 3409.690262 3414.965742
110.810000 3395.237902 3402.431649 3409.385153 3408.813914 3414.263668 3420.153856
110.910000 3399.257271 3407.415092 3413.025994 3412.897254 3418.368830 3424.482060
111.010000 3404.714708 3411.414244 3416.429564 3416.631959 3422.246276 3428.910430
111.110000 3409.389115 3414.674801 3419.806392 3420.076510 3425.577017 3433.359128
111.210000 3411.794137 3417.883618 3423.206246 3423.417671 3429.144731 3436.067752
111.310000 3415.650750 3421.253881 3426.536741 3426.773957 3432.569443 3439.338339
111.410000 3418.895242 3424.646892 3430.045808 3430.257008 3436.231165 3442.237714
111.510000 3422.543173 3427.748424 3433.677691 3433.730793 3440.060897 3445.194791
111.610000 3426.283184 3431.141951 3437.301190 3437.212224 3443.636927 3448.093356
111.710000 3429.478580 3434.622703 3440.985602 3440.679444 3446.550080 3450.959903
