depth(m) lower_95(kyr) lower_68(kyr) median(kyr) mean(kyr) upper_68(kyr) upper_95(kyr)
76.830000 2716.455004 2720.777780 2723.923167 2723.961449 2726.867501 2731.346116
76.930000 2720.857183 2723.764187 2726.806203 2727.011863 2729.918662 2734.553842
77.030000 2723.282065 2726.500600 2729.625425 2729.983569 2733.118891 2739.039321
77.130000 2726.478460 2729.245317 2732.334259 2732.820281 2736.201681 2741.837583
77.230000 2729.058065 2731.735069 2734.909422 2735.492032 2739.039864 2745.612703
77.330000 2731.780745 2734.506250 2737.682026 2738.327991 2741.993892 2747.918442
77.430000 2734.395913 2737.126575 2740.577594 2741.232609 2745.113448 2750.862279
77.530000 2736.972381 2739.710903 2743.605305 2744.207039 2748.400448 2754.231836
77.630000 2739.206433 2742.609968 2746.674371 2747.522807 2752.110417 2759.921036
77.730000 2741.766403 2745.680417 2750.261003 2751.239968 2757.019453 2764.945969
77.830000 2744.855295 2748.771560 2754.698636 2755.796095 2763.481400 2770.125952
77.930000 2747.050379 2751.819042 2759.252078 2760.216774 2769.393312 2774.499676
78.030000 2750.156471 2755.335721 2765.293726 2764.624309 2773.296313 2778.557959
78.130000 2753.919729 2760.156030 2770.220570 2768.974727 2776.725453 2781.070963
78.230000 2759.275019 2766.110629 2774.198538 2773.233019 2779.450733 2783.810642
78.330000 2765.879307 2772.524622 2778.129876 2777.512841 2782.407363 2786.450197
78.430000 2772.384691 2776.980534 2781.546701 2781.248812 2785.241995 2788.842386
78.530000 2776.268455 2781.058409 2785.053136 2784.771589 2788.340557 2791.617806
78.630000 2780.846455 2785.215052 2788.730384 2788.579528 2792.301406 2794.539351
78.730000 2786.277437 2790.445484 2793.891354 2793.430146 2796.340665 2798.641675
78.830000 2792.159311 2795.408456 2797.775505 2797.663439 2799.911713 2802.161412
78.930000 2796.580275 2798.921360 2800.952048 2800.897031 2802.810072 2805.248666
79.030000 2799.208764 2801.343803 2803.396476 2803.432083 2805.421395 2808.208052
79.130000 2801.443998 2803.580208 2805.675407 2805.860059 2808.049967 2811.191909
79.230000 2803.969961 2805.943257 2808.233368 2808.443932 2811.039397 2814.038872
79.330000 2805.996121 2808.541778 2811.195754 2811.306419 2814.326313 2816.732379
79.430000 2808.556978 2811.064549 2814.350891 2814.234305 2817.287681 2819.583842
79.530000 2811.028819 2814.175118 2817.860868 2817.358958 2820.166892 2822.199276
79.630000 2814.674227 2818.367155 2821.286006 2820.962849 2823.527966 2825.884161
79.730000 2818.453687 2821.319697 2823.909976 2823.803575 2826.267704 2828.513400
79.830000 2821.678391 2824.152304 2826.393741 2826.406577 2828.746243 2830.837504
79.930000 2824.468054 2826.565967 2828.688346 2828.767497 2831.067701 2833.195347
80.030000 2826.694602 2828.900131 2830.968345 2831.045765 2833.258711 2835.478132
80.130000 2829.160876 2831.236294 2833.483239 2833.546682 2835.868951 2838.331604
80.230000 2831.660155 2834.252059 2836.942695 2836.949649 2839.464046 2842.233191
80.330000 2835.201850 2837.745135 2840.575757 2840.543378 2843.173658 2845.664595
80.430000 2838.094216 2840.607307 2843.357549 2843.369697 2846.017624 2848.771842
80.530000 2840.660120 2843.087003 2845.690251 2845.695884 2848.132423 2850.611724
80.630000 2843.080006 2845.574362 2847.974802 2847.993249 2850.315079 2853.011642
80.730000 2845.686065 2847.852031 2850.300028 2850.302461 2852.653473 2855.322801
80.830000 2848.594768 2850.524771 2852.892429 2853.025505 2855.353813 2858.214024
80.930000 2851.982161 2854.174900 2856.308208 2856.642079 2859.258072 2862.331839
81.030000 2855.453848 2857.591528 2860.189845 2860.462266 2863.356938 2866.459398
81.130000 2858.151599 2860.619578 2863.766916 2863.752400 2866.869690 2869.531827
81.230000 2860.578201 2863.711999 2867.109574 2866.999519 2870.057949 2873.030574
81.330000 2863.537034 2866.962082 2870.400107 2870.228869 2873.331657 2875.737147
81.430000 2866.599897 2869.756468 2873.048027 2872.854510 2875.966589 2878.207923
81.530000 2869.284250 2872.394652 2875.410542 2875.299028 2878.066913 2881.130807
81.630000 2871.467244 2874.665959 2877.594078 2877.514087 2880.296471 2883.046437
81.730000 2874.080521 2876.924577 2879.738461 2879.704953 2882.403254 2885.022775
81.830000 2876.225435 2879.093931 2881.880017 2881.802420 2884.560455 2886.998426
81.930000 2878.377631 2881.302926 2884.010537 2883.911682 2886.573694 2888.930833
82.030000 2880.582716 2883.516530 2886.067641 2885.976407 2888.545803 2890.738032
82.130000 2882.658707 2885.803843 2888.242181 2888.219832 2890.672756 2893.009047
82.230000 2885.864661 2888.516936 2890.907621 2890.893114 2893.430903 2895.909107
82.330000 2889.651590 2892.067714 2894.462349 2894.717412 2897.224649 2901.467550
82.430000 2892.911822 2895.152936 2897.899021 2898.159424 2901.243926 2905.255609
82.530000 2895.223863 2897.804478 2900.951226 2901.234680 2904.538956 2909.163532
82.630000 2897.759209 2900.537865 2904.106010 2904.237826 2907.809537 2911.646810
82.730000 2900.389505 2903.514670 2907.493515 2907.578530 2911.521768 2914.550145
82.830000 2903.695512 2906.810773 2910.907380 2911.055685 2915.142390 2919.635808
82.930000 2907.548790 2910.862879 2915.297092 2915.427708 2920.019102 2924.270158
83.030000 2910.448282 2914.249664 2918.866765 2919.139991 2924.334871 2928.059995
83.130000 2912.833552 2917.541032 2922.281746 2922.477844 2928.028940 2931.709512
83.230000 2915.376294 2920.134590 2925.513854 2925.484356 2931.052816 2934.417124
83.330000 2918.020080 2923.884519 2929.334727 2928.746800 2933.309964 2936.206689
83.430000 2921.897774 2928.746215 2932.739296 2932.115855 2935.404748 2938.613784
83.530000 2928.092516 2933.135236 2935.574178 2935.412087 2937.926317 2940.800229
83.630000 2933.351160 2936.118255 2938.192026 2938.402695 2940.572959 2944.823729
83.730000 2936.616686 2938.711021 2941.096668 2941.543006 2944.348164 2949.518133
83.830000 2939.036182 2941.264441 2944.328133 2944.840879 2948.491974 2953.108115
83.930000 2941.465992 2943.997936 2947.815038 2948.182500 2952.217688 2956.602827
83.980000 2942.823630 2945.534060 2949.923627 2949.956207 2954.201317 2958.053069
84.080000 2945.641004 2949.141718 2953.873955 2953.583200 2957.758479 2961.120498
84.180000 2949.134014 2953.357433 2958.254609 2957.970777 2962.084241 2965.624111
84.280000 2957.739318 2961.999265 2965.365100 2965.119604 2968.327646 2971.363746
84.380000 2963.376416 2966.336425 2969.150033 2968.988350 2971.575876 2974.070977
84.440000 2966.022494 2968.692145 2971.198229 2971.118485 2973.459579 2975.984743
84.480000 2967.323063 2969.870853 2972.309026 2972.267720 2974.544659 2976.966380
84.540000 2968.942946 2971.541709 2973.821221 2973.778130 2976.039783 2978.119041
84.640000 2971.437667 2973.914419 2976.049390 2976.030350 2978.237043 2980.190724
84.740000 2973.760626 2976.205217 2978.309435 2978.264319 2980.390687 2982.349344
84.840000 2976.227951 2978.561711 2980.752138 2980.742824 2982.904172 2984.979727
84.940000 2979.195753 2981.210575 2983.358926 2983.434043 2985.611332 2988.181519
85.040000 2981.724094 2983.525374 2985.782586 2985.937122 2988.318726 2991.203697
85.140000 2983.834120 2985.737656 2988.285079 2988.409790 2991.053751 2994.012437
85.240000 2985.895359 2987.907826 2990.619704 2990.873206 2993.903149 2996.988682
85.340000 2988.061278 2990.156584 2993.285507 2993.493567 2996.792891 3000.966429
85.460000 2990.551290 2993.208287 2996.461988 2996.727651 3000.195381 3004.792645
85.545000 2992.558028 2995.408050 2999.004960 2999.350041 3003.037624 3008.122333
85.630000 2995.091571 2998.106739 3001.744946 3002.142054 3006.378691 3011.583252
85.730000 2998.795164 3002.429113 3006.350579 3006.725530 3011.366383 3015.887476
85.830000 3002.117257 3005.693330 3010.155855 3010.322803 3015.513213 3018.686748
85.930000 3004.681491 3009.247843 3014.501797 3014.062111 3018.666537 3021.664215
86.030000 3007.396285 3012.588465 3018.111971 3017.352451 3021.697400 3024.249207
86.170000 3012.193876 3018.200462 3022.059991 3021.447397 3024.699287 3027.098417
86.310000 3019.913492 3023.097284 3025.625628 3025.433934 3027.801821 3029.961521
86.330000 3020.434108 3023.662992 3026.049715 3025.928403 3028.319015 3030.534973
86.430000 3022.666000 3025.654849 3027.892808 3027.866109 3030.160942 3032.591431
86.530000 3024.689388 3027.322082 3029.598482 3029.586463 3031.762521 3034.261736
86.630000 3026.719705 3029.093359 3031.238222 3031.251818 3033.331565 3036.021356
86.730000 3028.451608 3030.730717 3032.887684 3032.911966 3034.966305 3037.605740
86.830000 3030.204865 3032.376702 3034.568919 3034.573711 3036.752941 3039.114863
86.930000 3031.735530 3034.026912 3036.151149 3036.252681 3038.451955 3041.126349
87.020000 3033.188228 3035.492380 3037.692860 3037.715909 3039.850319 3042.778240
87.120000 3034.764838 3037.109977 3039.316127 3039.338694 3041.514288 3044.478716
87.220000 3036.462222 3038.711241 3040.827348 3040.923598 3043.149121 3046.059983
87.320000 3038.128079 3040.214460 3042.331516 3042.482711 3044.700516 3047.798052
87.420000 3039.694388 3041.865692 3043.881719 3044.073450 3046.286022 3049.597283
87.520000 3041.245814 3043.410449 3045.473752 3045.627321 3047.725817 3050.843648
87.620000 3042.718279 3044.909139 3047.058905 3047.164767 3049.377626 3052.407108
87.720000 3044.001164 3046.448400 3048.600288 3048.708785 3050.966881 3053.883897
87.820000 3045.730859 3047.983796 3050.099171 3050.266176 3052.585162 3055.593636
87.920000 3047.324710 3049.479685 3051.717863 3051.843851 3054.117653 3057.500384
88.020000 3048.935885 3051.042580 3053.235298 3053.467884 3055.954025 3059.058470
88.120000 3050.401262 3052.543591 3054.786626 3055.068823 3057.612163 3060.733501
88.220000 3051.982563 3054.146752 3056.440079 3056.755177 3059.345660 3062.799519
88.320000 3053.643749 3055.827650 3058.243998 3058.629551 3061.309081 3065.361045
88.400000 3055.321913 3057.420906 3059.923648 3060.392524 3063.227797 3068.265063
88.490000 3057.228417 3059.546064 3062.235702 3062.837880 3066.020447 3072.578619
88.610000 3059.633703 3062.331430 3065.946711 3066.672993 3071.040175 3077.855358
88.710000 3061.512782 3064.725470 3069.192251 3069.904235 3075.154486 3082.233582
88.810000 3063.430102 3067.331495 3072.456464 3073.133545 3078.954753 3085.480029
88.910000 3065.361704 3070.129145 3075.822389 3076.228972 3082.421937 3088.690037
89.010000 3067.187073 3073.020380 3079.004230 3079.215954 3085.828560 3091.634176
89.110000 3069.637953 3075.815666 3082.014398 3082.230987 3088.819818 3095.094563
89.210000 3071.980134 3078.775396 3085.007409 3085.261349 3091.968541 3098.910179
89.310000 3074.323527 3081.112029 3088.018512 3088.082124 3094.826595 3102.662586
89.330000 3074.724806 3081.624550 3088.592492 3088.618653 3095.340138 3103.222079
89.410000 3076.936853 3083.774121 3090.651248 3090.740909 3097.345818 3105.469728
89.430000 3077.567774 3084.200744 3091.258942 3091.249818 3097.866254 3105.958108
89.510000 3079.277666 3086.399304 3093.494696 3093.225838 3099.637482 3107.953016
89.530000 3079.651720 3086.970540 3094.001527 3093.751229 3100.164774 3108.449770
89.630000 3082.627898 3089.511165 3096.226832 3096.168251 3102.544528 3109.886900
89.730000 3085.701309 3091.836216 3098.615008 3098.528706 3105.002117 3111.762529
89.830000 3088.994587 3094.278309 3101.149338 3100.956862 3107.439273 3113.537071
89.930000 3091.316971 3096.678837 3103.406500 3103.304179 3109.773252 3115.454627
90.015000 3093.353261 3099.179910 3105.615813 3105.483926 3111.778791 3117.008960
90.100000 3095.799306 3101.702661 3107.833806 3107.775169 3113.750552 3118.830084
90.210000 3098.887884 3105.493759 3111.387419 3111.092459 3116.782311 3121.713614
90.330000 3103.069245 3109.625614 3115.196875 3114.740865 3119.994450 3124.548199
90.430000 3107.849351 3113.383595 3118.578816 3118.190921 3122.958211 3126.917354
90.530000 3112.749789 3118.018779 3122.685085 3122.350496 3126.545216 3130.192975
90.630000 3117.502133 3122.403214 3126.142349 3126.106728 3129.767470 3134.133524
90.710000 3120.882919 3125.327805 3128.866314 3128.906429 3132.747514 3136.825711
90.830000 3126.750705 3129.663917 3132.946238 3133.164124 3136.838278 3140.446573
90.910000 3129.282688 3132.439492 3136.013243 3135.937333 3139.456300 3142.860900
91.010000 3131.606007 3135.443061 3139.194920 3139.054221 3142.613482 3145.673852
91.110000 3134.770154 3139.040181 3142.604738 3142.433381 3145.698995 3148.653901
91.230000 3140.742617 3144.376330 3147.458342 3147.419718 3150.509558 3153.910590
91.330000 3144.949651 3148.121482 3150.832887 3150.947138 3153.999849 3157.359994
91.430000 3147.767228 3150.468514 3153.633259 3153.729467 3157.113786 3160.736544
91.530000 3149.698654 3152.661446 3155.998776 3156.216723 3159.753602 3163.388184
91.630000 3151.648045 3154.851297 3158.399623 3158.539250 3162.292540 3166.485405
91.730000 3154.118982 3157.066763 3160.640014 3160.837764 3164.535962 3168.920070
91.830000 3156.222346 3159.334545 3163.041602 3163.186818 3166.866506 3171.284402
91.930000 3158.138624 3161.448660 3165.470264 3165.525543 3169.172282 3174.168960
92.030000 3160.028382 3163.800690 3167.704061 3167.812618 3171.666778 3176.928983
92.130000 3162.452090 3165.930346 3170.064751 3170.140530 3174.014083 3179.902300
92.230000 3164.388565 3167.955641 3172.431987 3172.457183 3176.443242 3183.209405
92.330000 3166.144566 3170.035718 3174.788005 3174.850806 3179.179517 3187.180646
92.420000 3168.131408 3171.891237 3176.874269 3177.027420 3181.516629 3188.996886
92.510000 3169.785702 3173.955303 3179.049419 3179.281409 3184.059605 3191.520837
92.650000 3171.991753 3176.838410 3182.159707 3182.576026 3188.474608 3194.760830
92.790000 3174.779354 3179.680065 3185.311730 3185.833997 3192.347460 3198.360431
92.930000 3177.493177 3182.595181 3188.451272 3189.001701 3195.706820 3201.598279
93.030000 3179.493000 3184.897887 3190.890073 3191.292490 3198.091046 3203.395873
93.130000 3181.612600 3186.985972 3193.434295 3193.653375 3200.403592 3205.523814
93.230000 3183.676343 3189.262704 3195.961133 3196.090675 3202.809633 3207.406478
93.330000 3185.590915 3191.770704 3198.676020 3198.440865 3205.262121 3209.356700
93.430000 3187.668942 3194.029162 3200.985888 3200.801035 3207.715500 3211.711141
93.500000 3189.265764 3195.873220 3202.782146 3202.464325 3209.403218 3213.258955
93.630000 3191.901467 3199.152684 3205.999180 3205.488230 3211.905921 3215.387893
93.730000 3194.341109 3201.341331 3208.467649 3207.773668 3213.729747 3217.225695
93.830000 3197.092365 3203.617860 3210.774555 3210.039120 3215.722758 3219.186995
93.930000 3199.030822 3206.248442 3212.936920 3212.260004 3217.830865 3221.444144
94.030000 3201.083646 3208.649408 3215.328971 3214.548731 3219.746362 3223.236808
94.130000 3203.857482 3211.622531 3217.639788 3216.943519 3221.767161 3225.311819
94.230000 3206.442424 3214.322332 3219.652777 3219.182956 3223.926525 3227.030019
94.330000 3208.861586 3216.590402 3222.124302 3221.377071 3225.733753 3228.779850
94.430000 3210.710651 3218.950802 3224.212247 3223.500311 3227.745244 3230.825827
94.530000 3213.933143 3221.503141 3226.302908 3225.653593 3229.742130 3232.608340
94.630000 3216.509126 3223.799544 3228.469792 3227.858030 3231.770446 3234.678525
94.730000 3219.130986 3226.175100 3230.550623 3230.109063 3233.930292 3236.886119
94.830000 3221.643137 3228.517061 3232.861014 3232.387553 3235.944415 3239.036902
94.930000 3225.859731 3231.226509 3235.089755 3234.643751 3237.901030 3241.096739
95.030000 3229.215164 3233.680768 3237.212830 3236.914152 3239.982497 3243.173661
95.130000 3231.335049 3235.815821 3239.296788 3239.026094 3242.106167 3244.994011
95.230000 3233.468031 3237.813819 3241.222457 3241.081558 3244.131363 3247.151266
95.330000 3235.411405 3240.117821 3243.351626 3243.172489 3246.212079 3249.861119
95.430000 3237.261409 3242.333775 3245.343947 3245.300561 3248.304724 3252.123648
95.515000 3239.244790 3244.228073 3247.216128 3247.378319 3250.530655 3254.737339
95.600000 3241.553305 3246.287781 3249.374109 3249.486126 3252.683438 3257.211820
95.730000 3244.950281 3249.165088 3252.461874 3252.807280 3256.118952 3262.529618
95.830000 3246.979601 3251.507616 3254.943098 3255.405166 3258.698203 3267.574664
95.930000 3248.857289 3253.635773 3257.387549 3257.881479 3261.158634 3273.395915
96.030000 3251.028846 3255.908429 3259.879365 3260.404460 3263.593206 3279.648185
96.130000 3253.547455 3258.425244 3262.325346 3262.971691 3265.850319 3287.158741
96.230000 3255.984295 3260.781099 3264.611381 3265.534280 3267.931399 3301.489980
96.330000 3258.421046 3263.350877 3266.859349 3267.982455 3269.975878 3311.348952
96.430000 3261.083301 3265.510156 3268.807206 3270.098017 3272.132713 3315.674733
96.530000 3263.156120 3267.480866 3270.885988 3272.142553 3273.965793 3318.274368
96.630000 3265.726024 3269.548503 3272.947669 3274.303575 3276.200897 3321.345657
96.730000 3267.678365 3271.873630 3275.104857 3276.445684 3278.154688 3323.936934
96.830000 3270.186012 3274.074905 3277.313728 3278.790607 3280.387818 3327.781975
96.850000 3270.693359 3274.526886 3277.808143 3279.293694 3280.897448 3328.215278
96.930000 3272.302339 3276.267512 3279.824078 3281.149456 3282.739295 3330.435703
96.950000 3272.944076 3276.769709 3280.357730 3281.689362 3283.366779 3331.403009
97.030000 3274.512974 3278.838098 3282.328395 3283.944342 3285.902279 3333.891926
97.050000 3275.175143 3279.292116 3282.816790 3284.516488 3286.474954 3334.577876
97.150000 3277.927048 3281.972146 3285.933528 3288.235257 3291.831630 3336.997368
97.250000 3281.168689 3285.014641 3289.823248 3292.626189 3299.241862 3339.965811
97.350000 3284.496418 3288.794260 3296.128976 3297.630384 3304.176105 3342.629998
97.450000 3288.321369 3294.883011 3302.783639 3303.194939 3308.887455 3344.710893
97.550000 3293.652933 3301.257413 3307.919538 3308.584538 3313.248420 3349.158694
97.650000 3302.866963 3308.792151 3312.812019 3313.966182 3317.222499 3352.813482
97.750000 3309.348024 3312.823029 3316.202071 3317.704316 3320.600057 3355.884796
97.850000 3312.418565 3315.656016 3319.228020 3320.685430 3323.814358 3357.737955
97.950000 3314.993205 3318.168467 3322.142360 3323.488525 3326.712476 3360.192510
98.050000 3317.155135 3320.624364 3325.103926 3326.508678 3330.676885 3362.845525
98.150000 3319.263806 3323.333843 3328.061308 3329.678122 3334.309864 3364.806281
98.250000 3322.019606 3325.988770 3331.016925 3332.830849 3338.615748 3366.786134
98.350000 3324.165000 3328.821748 3334.092162 3335.879046 3342.356248 3369.340358
98.450000 3326.430962 3331.309584 3337.299030 3339.020677 3345.983723 3371.008508
