depth(m) lower_95(kyr) lower_68(kyr) median(kyr) mean(kyr) upper_68(kyr) upper_95(kyr)
303.770000 2682.844525 2691.232334 2699.098693 2698.451717 2705.590947 2707.540850
303.903333 2683.695587 2691.665678 2699.604415 2699.023147 2706.160757 2707.972801
304.036667 2684.122213 2692.463818 2700.105115 2699.558578 2706.628220 2708.309420
304.170000 2684.996015 2692.948854 2700.571121 2700.066867 2707.113474 2708.743887
304.311875 2685.564354 2693.490248 2701.066608 2700.573220 2707.522893 2709.024669
304.453750 2686.642277 2694.137908 2701.525226 2701.053483 2707.960038 2709.445409
304.595625 2687.253165 2694.790674 2701.997455 2701.533027 2708.278264 2709.738319
304.737500 2687.952231 2695.543589 2702.368285 2702.005858 2708.626820 2710.048888
304.879375 2688.670860 2696.152290 2702.845401 2702.449777 2708.938998 2710.316340
305.021250 2689.416952 2696.590545 2703.292173 2702.888058 2709.251193 2710.613309
305.163125 2690.015845 2697.150196 2703.715664 2703.305931 2709.604314 2710.928051
305.305000 2690.942281 2697.799419 2704.121066 2703.738836 2709.824647 2711.202802
305.446875 2691.588697 2698.326516 2704.561750 2704.167012 2710.139073 2711.528440
305.588750 2692.326225 2698.920960 2704.980611 2704.601113 2710.341233 2711.865931
305.730625 2693.093475 2699.506530 2705.420732 2705.027448 2710.627524 2712.127048
305.872500 2693.892469 2700.087422 2705.875701 2705.438013 2710.883192 2712.364837
306.014375 2694.577960 2700.808938 2706.244668 2705.847083 2711.112578 2712.623384
306.156250 2695.249674 2701.277376 2706.652410 2706.262335 2711.339299 2712.874236
306.298125 2695.841691 2701.991149 2707.090341 2706.658050 2711.571510 2713.116677
306.440000 2696.777376 2702.617135 2707.511021 2707.064897 2711.815538 2713.444116
306.581875 2697.376970 2703.189388 2707.925093 2707.470235 2712.003985 2713.668060
306.723750 2698.126111 2703.760341 2708.310155 2707.870553 2712.221260 2713.892486
306.865625 2698.885150 2704.446852 2708.780507 2708.290836 2712.406723 2714.171080
307.007500 2699.724830 2704.930624 2709.262402 2708.697800 2712.648921 2714.423337
307.149375 2700.167313 2705.514499 2709.786402 2709.113712 2712.884819 2714.659713
307.291250 2701.062187 2705.955124 2710.191276 2709.512375 2713.116498 2714.853732
307.433125 2701.678659 2706.516029 2710.600549 2709.909642 2713.373601 2715.083976
307.575000 2702.247615 2707.043363 2710.991077 2710.323773 2713.599879 2715.376151
307.716875 2702.891949 2707.529263 2711.401529 2710.740135 2713.863790 2715.606201
307.858750 2703.283721 2708.045174 2711.794950 2711.153952 2714.176352 2715.926257
308.000625 2703.737725 2708.575425 2712.197230 2711.565772 2714.410276 2716.130996
308.142500 2704.402379 2709.158966 2712.626675 2711.982338 2714.700309 2716.361577
308.284375 2704.938171 2709.666511 2713.054042 2712.410858 2714.995831 2716.627003
308.426250 2705.413983 2710.122160 2713.489269 2712.841971 2715.324086 2716.908456
308.568125 2705.828637 2710.764382 2713.930766 2713.286130 2715.651042 2717.230497
308.710000 2706.494211 2711.219731 2714.336220 2713.731717 2715.991411 2717.519211
308.843333 2707.017901 2711.786505 2714.724502 2714.166784 2716.325908 2717.820928
308.976667 2707.611593 2712.448610 2715.157299 2714.611059 2716.722190 2718.092592
309.110000 2708.153327 2712.988780 2715.583759 2715.055244 2717.073598 2718.425423
309.243333 2708.732283 2713.500189 2716.074681 2715.521214 2717.496414 2718.813354
309.376667 2709.455794 2714.105482 2716.462049 2715.980284 2717.864821 2719.265485
309.510000 2710.371600 2714.771769 2716.908253 2716.458068 2718.248749 2719.697656
309.650000 2711.114746 2715.332043 2717.349442 2716.947853 2718.632030 2720.083722
309.790000 2712.134762 2715.955584 2717.815050 2717.447204 2719.059661 2720.555475
309.930000 2712.665331 2716.504226 2718.293375 2717.937636 2719.460695 2721.084127
310.070000 2713.240198 2717.095829 2718.789955 2718.432651 2719.902572 2721.652951
310.210000 2713.784506 2717.661748 2719.230810 2718.916755 2720.354878 2722.178713
310.310000 2714.316117 2718.071867 2719.574621 2719.264933 2720.658433 2722.486390
310.410000 2714.769051 2718.456580 2719.928678 2719.622583 2720.964736 2722.858694
310.530000 2715.506410 2718.919627 2720.318778 2720.075251 2721.375375 2723.530699
310.650000 2716.159890 2719.312444 2720.727942 2720.524151 2721.859244 2724.219597
310.770000 2716.636741 2719.681910 2721.134206 2720.989982 2722.359160 2724.776488
310.890000 2717.074565 2720.036527 2721.534262 2721.443816 2722.916023 2725.443509
311.010000 2717.506252 2720.457428 2721.882165 2721.895312 2723.468598 2726.214971
311.150000 2718.026724 2720.864498 2722.318174 2722.415867 2724.052288 2727.169673
311.290000 2718.457115 2721.310624 2722.724687 2722.923076 2724.525535 2728.085262
311.430000 2719.043725 2721.772029 2723.151710 2723.457683 2725.107314 2729.032253
311.570000 2719.477537 2722.143156 2723.564452 2723.995117 2725.781116 2730.513602
311.710000 2719.858690 2722.617293 2723.975864 2724.542432 2726.451746 2731.721218
311.843333 2720.318978 2723.010103 2724.393844 2725.107014 2727.096137 2733.550860
311.976667 2720.732448 2723.441284 2724.803921 2725.689620 2727.739876 2734.992201
312.110000 2721.251463 2723.840805 2725.216995 2726.283141 2728.384758 2737.280192
312.243333 2721.694912 2724.262873 2725.643030 2726.867099 2729.143341 2739.673243
312.376667 2722.123504 2724.640516 2726.068051 2727.474188 2730.073365 2741.987623
312.510000 2722.523246 2725.028811 2726.494357 2728.085362 2730.831632 2743.968594
312.650000 2722.848041 2725.441345 2726.924602 2728.773252 2731.905026 2745.588628
312.790000 2723.440248 2725.914559 2727.356103 2729.467959 2732.980950 2748.012559
312.930000 2723.820413 2726.315668 2727.795364 2730.170087 2733.994552 2749.944925
313.070000 2724.243985 2726.729444 2728.278369 2730.941971 2735.585132 2752.411309
313.210000 2724.744774 2727.186108 2728.802936 2731.694205 2736.695334 2754.947443
313.343333 2725.391578 2727.680300 2729.251260 2732.362749 2737.554027 2755.755353
313.476667 2725.677844 2728.136158 2729.794592 2733.086697 2738.919200 2757.194301
313.610000 2725.977704 2728.577795 2730.350660 2733.806150 2740.898862 2758.323701
313.743333 2726.592030 2729.032008 2731.004492 2734.582386 2743.320526 2759.368490
313.876667 2727.146086 2729.519096 2731.673272 2735.342093 2744.840609 2760.592532
314.010000 2727.551868 2730.022071 2732.382888 2736.175336 2746.408433 2761.949693
314.150000 2728.145356 2730.630313 2733.166697 2737.141961 2748.312139 2763.853439
314.290000 2728.681526 2731.199411 2734.221345 2738.091440 2749.283263 2764.572412
314.430000 2729.265764 2731.862035 2735.318747 2739.092607 2750.774641 2765.493183
314.570000 2729.903201 2732.522282 2736.423264 2740.173195 2752.150186 2766.591437
314.710000 2730.663533 2733.452106 2737.492455 2741.264897 2753.303160 2767.333040
314.851667 2731.496064 2734.459100 2738.937727 2742.481892 2754.892063 2768.971780
314.993333 2732.321338 2735.626085 2740.268881 2743.706490 2755.847073 2770.304854
315.135000 2733.137925 2736.714628 2741.702653 2744.936602 2756.904780 2771.338659
315.276667 2734.030221 2737.900748 2743.078135 2746.195116 2757.816463 2772.126205
315.418333 2735.022497 2739.185219 2744.436206 2747.459705 2758.616152 2772.834875
315.560000 2736.050480 2740.471288 2746.139360 2748.818042 2759.614669 2773.528257
315.701667 2737.373463 2741.668310 2747.717745 2750.192559 2760.555440 2774.399898
315.843333 2738.614740 2742.820767 2749.246402 2751.511294 2761.127581 2775.433276
315.985000 2739.538111 2744.135891 2750.585874 2752.897464 2762.498382 2776.525982
316.126667 2740.777524 2745.198461 2752.301835 2754.224540 2763.527319 2777.276620
316.268333 2741.516722 2746.303871 2753.395384 2755.531442 2765.101191 2778.432153
316.410000 2742.612456 2747.344477 2754.797728 2756.877977 2766.802344 2779.589356
316.551667 2743.371570 2748.434819 2756.291207 2758.293643 2768.549596 2780.502920
316.693333 2744.547554 2749.743318 2757.599161 2759.625991 2769.840499 2781.183535
316.835000 2745.281384 2750.917002 2759.150453 2761.027657 2771.625550 2782.046055
316.976667 2745.990510 2752.006191 2760.377170 2762.368870 2773.589628 2783.296147
317.118333 2747.265627 2753.103592 2761.795283 2763.702713 2775.629541 2784.129076
317.260000 2748.145676 2754.163833 2762.934909 2765.109025 2777.374740 2784.982100
317.401667 2749.159246 2755.534112 2764.110325 2766.466963 2779.108952 2785.873880
317.543333 2750.294770 2756.628127 2765.191914 2767.822755 2780.812576 2787.087990
317.685000 2751.186347 2758.194050 2766.408752 2769.168860 2782.753073 2788.515988
317.826667 2752.208679 2759.167286 2767.597759 2770.491946 2784.273434 2789.726357
317.968333 2753.088311 2760.388162 2768.772604 2771.861243 2786.241173 2790.715308
318.110000 2753.996825 2761.735734 2770.180756 2773.184274 2787.472341 2791.759854
318.210000 2754.558469 2762.561813 2771.189217 2773.994887 2788.241427 2792.303078
318.310000 2755.512894 2763.283290 2771.795911 2774.776448 2788.922130 2792.907735
318.410000 2756.423038 2764.174903 2772.478611 2775.542803 2789.499385 2793.425531
318.510000 2757.672908 2765.006571 2773.567452 2776.320299 2790.045387 2793.812512
318.645714 2759.306425 2767.129078 2774.957011 2777.595782 2790.779349 2794.343446
318.781429 2761.467389 2768.878208 2776.311952 2778.803015 2791.301213 2794.905124
318.917143 2763.778187 2770.339369 2777.565077 2780.059881 2791.878615 2795.369673
319.052857 2765.105706 2772.125277 2779.136277 2781.317556 2792.352072 2795.805326
319.188571 2767.552520 2773.745149 2780.955222 2782.584001 2792.779279 2796.203537
319.324286 2769.081541 2775.748434 2782.577652 2783.898185 2793.256718 2796.665039
319.460000 2771.044705 2777.744303 2784.071918 2785.210665 2793.694466 2797.043169
319.595714 2772.990454 2779.353194 2785.666606 2786.479286 2794.218290 2797.409389
319.731429 2775.253955 2781.134211 2787.302330 2787.725599 2794.738165 2797.850103
319.867143 2776.739809 2782.816014 2788.791912 2788.987517 2795.349523 2798.319962
320.002857 2778.805970 2784.757621 2790.293913 2790.216486 2795.817889 2798.796199
320.138571 2781.121494 2786.332049 2791.842603 2791.387752 2796.295388 2799.336510
320.274286 2782.809171 2788.081181 2793.164146 2792.521605 2796.754866 2799.547877
320.410000 2785.073986 2789.754406 2794.170180 2793.686803 2797.242515 2800.014629
320.550000 2787.034272 2791.327635 2795.320644 2794.794912 2798.023771 2800.629120
320.690000 2788.822123 2792.644813 2796.206657 2795.807343 2798.568743 2801.021032
320.830000 2790.685866 2794.296010 2797.045969 2796.838264 2799.347067 2801.674486
320.970000 2792.797292 2795.870356 2797.877328 2797.828972 2800.063352 2802.362540
321.110000 2794.912925 2797.047161 2798.515099 2798.735471 2800.777226 2803.166688
321.210000 2795.466863 2797.692194 2798.969669 2799.275267 2801.253821 2803.625519
321.310000 2796.318552 2798.263610 2799.395148 2799.768416 2801.739605 2804.084388
321.410000 2796.957168 2798.723649 2799.812479 2800.232032 2802.246146 2804.632735
321.510000 2797.629568 2799.151146 2800.182711 2800.671646 2802.642883 2804.974849
321.610000 2798.376627 2799.563843 2800.585929 2801.104892 2803.070826 2805.309013
321.710000 2798.985955 2799.920752 2800.959031 2801.526801 2803.519865 2805.823431
321.810000 2799.484195 2800.322052 2801.308728 2801.934037 2803.926999 2806.317973
321.910000 2799.946389 2800.675167 2801.652354 2802.340586 2804.343347 2806.811572
321.990000 2800.284929 2801.022773 2801.930748 2802.677104 2804.689110 2807.135919
322.070000 2800.638727 2801.337746 2802.244193 2803.007773 2805.038798 2807.449740
322.185000 2801.116278 2801.735566 2802.655807 2803.458745 2805.546138 2807.992211
322.300000 2801.559101 2802.122221 2803.049414 2803.908139 2806.052019 2808.534745
322.375000 2801.857355 2802.385561 2803.344354 2804.212427 2806.385425 2808.880866
322.450000 2802.187715 2802.671105 2803.668062 2804.530113 2806.744904 2809.140981
322.550000 2802.533596 2803.042492 2804.069541 2804.942315 2807.195856 2809.499982
322.650000 2802.901244 2803.421090 2804.470981 2805.360707 2807.640651 2810.084388
322.750000 2803.264362 2803.792583 2804.943447 2805.804154 2808.072105 2810.723999
322.850000 2803.631323 2804.153983 2805.358920 2806.239545 2808.512135 2811.342866
322.983333 2804.020667 2804.630113 2805.936760 2806.831470 2809.157641 2812.436966
323.116667 2804.554369 2805.089890 2806.546165 2807.440188 2809.763361 2813.375109
323.250000 2804.978970 2805.607768 2807.227336 2808.055659 2810.382905 2814.224854
323.350000 2805.321834 2806.003574 2807.835943 2808.559829 2810.938657 2814.889323
323.450000 2805.702273 2806.453880 2808.411160 2809.051242 2811.613574 2815.398096
323.550000 2806.125003 2806.856355 2809.061404 2809.567509 2812.236184 2815.897476
323.650000 2806.506250 2807.269787 2809.658881 2810.076654 2812.986747 2816.503444
323.725000 2806.811623 2807.631263 2810.131932 2810.496428 2813.560313 2816.935079
323.800000 2807.106014 2808.011602 2810.596863 2810.934336 2814.121703 2817.319462
323.875000 2807.402838 2808.400260 2811.141413 2811.400708 2814.806735 2817.623552
323.950000 2807.751762 2808.766061 2811.629334 2811.848003 2815.321734 2818.023577
324.050000 2808.175830 2809.330590 2812.274464 2812.483686 2816.120883 2818.520201
324.150000 2808.667087 2809.870407 2812.902408 2813.139324 2817.053669 2818.995182
324.250000 2809.127547 2810.428451 2813.491094 2813.782859 2817.665592 2819.523430
324.350000 2809.643478 2811.135675 2814.053574 2814.436833 2818.371024 2820.081167
324.450000 2810.174361 2811.919724 2814.652337 2815.115668 2818.942017 2820.740708
324.550000 2810.787611 2812.539832 2815.274303 2815.753983 2819.605033 2821.362375
324.650000 2811.299272 2813.055818 2815.868315 2816.323614 2820.024159 2821.837427
324.750000 2811.846804 2813.620323 2816.485215 2816.872848 2820.586795 2822.311374
324.895000 2812.495838 2814.431513 2817.331979 2817.656795 2821.304793 2823.253013
325.040000 2813.148102 2815.362736 2818.210813 2818.434712 2821.900746 2823.911325
325.185000 2813.723301 2816.196612 2819.044394 2819.222476 2822.586200 2824.543268
325.330000 2814.381694 2816.957135 2819.903240 2819.997730 2823.269000 2825.215959
325.475000 2815.106561 2817.869900 2820.727655 2820.779553 2823.935915 2825.902386
325.620000 2815.865399 2818.636894 2821.529812 2821.566551 2824.652149 2826.595946
325.765000 2816.550548 2819.408858 2822.389312 2822.335280 2825.301366 2827.207876
325.910000 2817.313920 2820.185427 2823.161636 2823.097729 2825.936374 2827.839255
326.055000 2818.081638 2821.013718 2824.009159 2823.844823 2826.614130 2828.396328
326.200000 2818.612333 2821.721562 2824.818208 2824.582329 2827.250512 2828.990502
326.345000 2819.211929 2822.384939 2825.699768 2825.344212 2828.000674 2829.596377
326.490000 2820.048986 2823.306995 2826.470444 2826.110084 2828.774228 2830.369187
326.635000 2820.728635 2824.159574 2827.321407 2826.865134 2829.481028 2831.036426
326.780000 2821.357263 2824.950975 2828.157815 2827.637081 2830.202719 2831.695909
326.925000 2822.191954 2825.698244 2828.951342 2828.411671 2830.940109 2832.421580
327.070000 2822.730327 2826.531372 2829.751846 2829.184613 2831.676944 2833.028210
327.215000 2823.404860 2827.282173 2830.566362 2829.959163 2832.383755 2833.521813
327.360000 2824.038258 2828.049895 2831.431479 2830.756998 2833.102537 2834.152838
327.435000 2824.466869 2828.487754 2831.911422 2831.186664 2833.495134 2834.530113
327.510000 2825.057589 2828.856841 2832.325016 2831.598410 2833.879131 2834.917018
327.610000 2825.780616 2829.593245 2832.878904 2832.171783 2834.332641 2835.292053
327.710000 2826.402237 2830.186322 2833.438466 2832.732151 2834.797412 2835.647847
327.810000 2827.026142 2830.909984 2833.987427 2833.312186 2835.261491 2836.073652
327.910000 2827.698995 2831.684211 2834.534443 2833.892880 2835.760017 2836.411665
328.010000 2828.511677 2832.576095 2835.112376 2834.477222 2836.205997 2836.843030
328.110000 2829.230074 2833.237791 2835.648823 2835.062135 2836.658584 2837.263880
328.210000 2829.931035 2834.058069 2836.229125 2835.634803 2837.088679 2837.673835
328.310000 2830.669883 2834.772024 2836.749863 2836.198180 2837.545634 2838.132586
328.410000 2831.513996 2835.327469 2837.243387 2836.724867 2837.968842 2838.553251
328.510000 2832.349687 2836.106458 2837.711261 2837.252305 2838.429530 2838.924322
328.610000 2832.926718 2836.722199 2838.182175 2837.761512 2838.841620 2839.359128
328.710000 2833.600792 2837.290574 2838.632658 2838.241855 2839.270149 2839.737808
328.835000 2834.588378 2838.032952 2839.140414 2838.824608 2839.761976 2840.281802
328.960000 2835.504832 2838.749113 2839.662991 2839.399870 2840.265029 2840.792011
329.085000 2836.337287 2839.344925 2840.235003 2839.988552 2840.769295 2841.288288
329.210000 2837.607109 2839.950635 2840.733034 2840.558264 2841.274456 2841.751717
329.310000 2838.162795 2840.409374 2841.159569 2841.000073 2841.676512 2842.187132
329.410000 2838.925045 2840.882286 2841.562363 2841.450727 2842.077874 2842.579957
329.510000 2839.364497 2841.378706 2841.981045 2841.897673 2842.487736 2843.011489
329.610000 2839.936895 2841.861526 2842.433984 2842.350039 2842.911957 2843.480063
329.710000 2840.585772 2842.304789 2842.859706 2842.790910 2843.325729 2843.841277
329.810000 2841.157828 2842.751873 2843.249818 2843.211512 2843.705656 2844.232580
329.910000 2841.583311 2843.167246 2843.642990 2843.627961 2844.091954 2844.869207
330.010000 2842.262058 2843.585306 2844.050769 2844.034596 2844.487692 2845.269828
330.110000 2842.865236 2843.996353 2844.434228 2844.455054 2844.879655 2845.681037
330.210000 2843.312640 2844.429442 2844.833049 2844.871915 2845.288350 2846.102360
330.295000 2843.821258 2844.742914 2845.192964 2845.222930 2845.646273 2846.533040
330.380000 2844.366436 2845.095860 2845.521895 2845.572181 2846.002606 2846.997777
330.455000 2844.697368 2845.385121 2845.837688 2845.878308 2846.293418 2847.436742
330.530000 2844.929649 2845.707763 2846.137118 2846.196465 2846.593178 2848.065538
330.630000 2845.433074 2846.107398 2846.523978 2846.593476 2846.992768 2848.526237
330.730000 2845.857547 2846.474664 2846.905330 2846.982950 2847.379661 2848.873868
330.830000 2846.276793 2846.861753 2847.287765 2847.365809 2847.797932 2849.231748
330.930000 2846.644247 2847.235314 2847.666177 2847.758476 2848.161111 2849.614833
331.030000 2847.018698 2847.614339 2848.061353 2848.149886 2848.596962 2849.971418
331.130000 2847.432997 2847.978267 2848.442921 2848.537926 2848.993202 2850.353093
331.263333 2847.939946 2848.431367 2848.954708 2849.040570 2849.524100 2850.819428
331.396667 2848.415753 2848.928856 2849.442634 2849.548900 2850.089446 2851.436116
331.530000 2848.856713 2849.411136 2849.945557 2850.066017 2850.605435 2851.903549
331.630000 2849.242734 2849.823980 2850.328786 2850.488271 2851.128476 2852.474599
331.730000 2849.646819 2850.175287 2850.736259 2850.906371 2851.567737 2852.946667
331.860000 2850.103335 2850.660855 2851.251320 2851.458583 2852.195370 2853.742472
331.990000 2850.621100 2851.181150 2851.787513 2852.023084 2852.799527 2854.367249
332.090000 2851.019186 2851.568757 2852.269842 2852.505549 2853.359070 2854.974184
332.190000 2851.409012 2851.983672 2852.723523 2853.006668 2853.995175 2855.727180
332.323333 2851.871503 2852.521163 2853.380662 2853.709616 2854.844343 2857.207780
332.456667 2852.457231 2853.131287 2854.071301 2854.440062 2855.697155 2858.465008
332.590000 2852.918864 2853.669289 2854.814826 2855.195711 2856.559963 2859.456375
332.690000 2853.281678 2854.155271 2855.450404 2855.800988 2857.261926 2860.201776
332.790000 2853.799025 2854.733537 2856.094045 2856.459773 2858.072184 2861.275006
332.932333 2854.450917 2855.571582 2857.102592 2857.512145 2859.380822 2862.696844
333.074667 2855.079455 2856.427350 2858.290204 2858.632165 2860.715518 2864.572208
333.217000 2855.720085 2857.412373 2859.431265 2859.746633 2862.011936 2865.683899
333.359333 2856.444154 2858.354720 2860.540995 2860.897322 2863.202071 2867.115527
