depth(m) lower_95(kyr) lower_68(kyr) median(kyr) mean(kyr) upper_68(kyr) upper_95(kyr)
84.650000 2680.225189 2681.391836 2685.100450 2685.118224 2688.150031 2692.857461
84.740000 2681.792396 2683.549448 2687.464007 2687.362135 2690.193038 2696.417769
84.760000 2682.249414 2684.008145 2687.996096 2687.890625 2690.709417 2697.070238
84.850000 2683.802065 2686.449177 2690.354596 2690.169919 2692.932193 2698.913782
84.920000 2685.118803 2688.091766 2692.201976 2692.026819 2694.739137 2701.368538
84.950000 2685.725356 2688.880696 2693.023531 2692.825927 2695.780476 2702.088574
85.050000 2687.560745 2691.597789 2695.325932 2695.282171 2698.440882 2704.440369
85.120000 2689.287413 2693.581990 2697.009897 2697.099376 2700.334767 2706.497832
85.150000 2689.945708 2694.445344 2697.824183 2697.936259 2701.265698 2707.462781
85.270000 2692.325660 2697.397056 2700.893234 2701.241297 2705.005548 2713.616245
85.380000 2694.167975 2700.210908 2703.792271 2704.608380 2709.662680 2717.924435
85.430000 2695.434794 2701.803649 2705.213188 2706.175598 2711.764907 2718.915822
85.450000 2695.946584 2702.420621 2705.843941 2706.814730 2712.361666 2719.373490
85.540000 2698.744217 2705.108089 2709.236184 2710.145784 2716.582768 2721.363101
85.550000 2699.206212 2705.501078 2709.591191 2710.471978 2716.874064 2721.681343
85.650000 2703.363724 2708.587083 2713.623375 2713.809669 2719.651707 2723.416048
85.750000 2707.252021 2712.569302 2717.297798 2717.101140 2721.905066 2725.575905
85.850000 2712.053422 2716.847111 2720.799275 2720.554059 2724.456287 2727.516641
85.950000 2715.212877 2720.067129 2723.730236 2723.619230 2727.447177 2730.872683
86.050000 2718.323508 2722.731395 2726.321800 2726.518073 2730.574035 2735.389613
86.150000 2720.826335 2725.166241 2728.876600 2729.413359 2733.682678 2740.229700
86.250000 2722.832035 2727.400937 2732.038598 2732.486835 2737.824959 2745.186847
86.350000 2724.790024 2729.419513 2735.335855 2735.635998 2742.097266 2749.147765
86.450000 2726.571364 2731.477741 2738.646937 2738.792824 2745.963086 2753.118800
86.550000 2728.331776 2733.245513 2742.195900 2742.040122 2750.513149 2757.595630
86.650000 2729.743264 2735.028488 2746.992706 2745.546006 2755.075500 2762.373764
86.750000 2731.482650 2736.925738 2751.141204 2749.202000 2760.309527 2766.683253
86.850000 2733.171434 2738.649307 2756.528317 2753.038977 2765.315126 2770.788231
86.950000 2734.786817 2740.517941 2760.649060 2756.514342 2769.942258 2774.015161
87.020000 2736.076448 2741.801261 2763.611207 2758.713909 2772.310540 2776.044747
87.050000 2736.608977 2742.455154 2764.957468 2759.632510 2773.274020 2777.008514
87.150000 2738.580135 2744.359423 2769.726723 2762.590037 2776.093471 2779.152276
87.250000 2740.440151 2746.091065 2773.211609 2765.345246 2778.504103 2781.507928
87.350000 2742.133324 2748.191722 2776.346087 2767.863734 2780.897074 2783.765708
87.450000 2743.964287 2750.080942 2778.822721 2770.295073 2783.340582 2785.947491
87.550000 2746.322560 2752.125512 2781.449771 2772.635752 2785.548100 2788.469581
87.650000 2748.705443 2754.391450 2783.623008 2775.090430 2788.143909 2791.385969
87.750000 2750.890331 2756.879368 2786.305933 2777.981783 2790.855215 2794.902305
87.850000 2753.302405 2760.184528 2789.316774 2781.447417 2794.119016 2805.357163
87.950000 2756.155611 2763.646257 2792.881793 2786.658008 2805.114967 2814.678856
88.050000 2760.110226 2766.984426 2796.023882 2792.564163 2814.949153 2819.797787
88.150000 2764.007313 2770.172033 2810.647620 2798.541515 2819.365296 2822.270143
88.250000 2767.247233 2773.007149 2817.298530 2802.830439 2822.094385 2824.610147
88.350000 2771.063754 2775.531268 2821.071142 2806.040927 2824.392756 2826.590253
88.450000 2773.724577 2777.751035 2823.549933 2808.439028 2826.378611 2828.710938
88.550000 2776.248043 2779.963772 2825.527593 2810.515435 2828.244532 2830.748229
88.650000 2778.689686 2782.142540 2827.415350 2812.545638 2829.989494 2832.320034
88.750000 2780.478372 2784.245866 2829.255425 2814.553233 2831.864595 2834.411881
88.850000 2782.919474 2786.401703 2830.984283 2816.655291 2833.725091 2836.490244
88.950000 2784.812962 2789.087140 2832.904446 2819.161918 2835.919868 2839.762358
89.050000 2787.764248 2791.965769 2834.992547 2822.711101 2838.528856 2851.147649
89.150000 2790.621236 2796.522724 2837.245443 2828.163796 2845.583346 2856.960240
89.250000 2793.580059 2812.998137 2840.610404 2834.940977 2855.726073 2859.394165
89.350000 2803.265495 2819.036279 2849.852896 2841.329082 2858.668900 2861.627679
89.450000 2815.642520 2822.752903 2857.409135 2846.206306 2861.172914 2864.235934
89.550000 2821.593494 2825.293965 2859.925182 2849.255374 2863.402168 2866.311996
89.650000 2824.400437 2827.507517 2862.124328 2851.648221 2865.490434 2868.756603
89.750000 2826.589156 2829.749774 2864.131243 2853.913430 2867.519097 2871.193937
89.850000 2828.564680 2831.710147 2866.202505 2856.322039 2869.826588 2875.053853
89.950000 2830.553823 2834.039025 2868.519718 2859.106210 2872.576399 2879.767883
90.050000 2833.386358 2837.353209 2871.366768 2862.922208 2877.243205 2886.613728
90.150000 2838.708628 2847.786933 2875.859158 2869.806866 2884.851807 2891.272762
90.250000 2843.971577 2859.894536 2880.880115 2876.917095 2890.715290 2894.645398
90.350000 2852.763293 2866.053416 2887.630990 2882.544253 2894.001884 2897.384675
90.450000 2859.373394 2872.192649 2892.909813 2887.964316 2896.830817 2899.887321
90.550000 2862.601026 2883.940479 2895.954083 2892.014547 2899.252555 2902.008116
90.650000 2865.520612 2893.093928 2898.398155 2895.393301 2901.379255 2903.902747
90.750000 2868.577005 2896.419453 2900.580524 2898.342433 2903.606075 2906.133803
90.850000 2874.164228 2899.072249 2902.629793 2901.193304 2905.689431 2908.036297
90.950000 2888.705347 2901.395349 2904.785740 2903.895701 2907.752748 2910.229869
91.050000 2895.456052 2903.737363 2906.947054 2906.509334 2909.986898 2913.044539
91.150000 2899.779176 2906.085179 2909.456360 2909.211855 2912.544890 2916.038308
91.250000 2903.122882 2908.774115 2912.163720 2912.264178 2915.830060 2920.703365
91.350000 2907.898587 2911.817404 2915.788000 2916.300600 2920.571088 2928.065078
91.450000 2912.365302 2916.124868 2921.311048 2921.927443 2928.906699 2932.710324
91.550000 2916.355124 2920.270183 2928.683848 2927.340389 2933.674114 2935.965095
91.630000 2919.259657 2924.567239 2933.251597 2931.274150 2936.156740 2937.868997
91.650000 2919.960619 2925.542304 2933.938626 2931.991771 2936.676936 2938.358761
91.730000 2924.134384 2931.481220 2936.564685 2935.281216 2938.819365 2940.643485
91.750000 2925.553220 2932.289123 2937.124270 2935.935397 2939.333184 2941.124410
91.850000 2934.133100 2937.150409 2939.854146 2939.514136 2941.757294 2943.698383
91.950000 2938.282297 2940.440511 2942.537466 2942.489434 2944.446777 2946.612997
92.050000 2940.768226 2942.916664 2944.858066 2944.903505 2946.772527 2948.937085
92.150000 2943.194287 2945.132246 2947.032754 2947.088573 2949.099234 2951.307585
92.250000 2945.264708 2947.380022 2949.133674 2949.273728 2951.278460 2953.662139
92.350000 2947.722038 2949.447527 2951.399833 2951.573894 2953.728449 2956.493296
92.450000 2949.876127 2951.915770 2954.145718 2954.241365 2956.617210 2959.488601
92.550000 2952.661245 2954.917227 2957.740169 2957.772682 2960.622887 2963.333691
92.630000 2956.430008 2959.114027 2962.036225 2961.902607 2964.573201 2966.925101
92.650000 2957.155724 2959.998478 2962.960058 2962.787892 2965.485925 2967.966729
92.750000 2961.593326 2964.263630 2966.885864 2966.743223 2969.284230 2971.117704
92.830000 2964.078609 2966.942055 2969.386890 2969.227293 2971.510061 2973.435155
92.850000 2964.886787 2967.600441 2969.952501 2969.841393 2972.088419 2973.920181
92.950000 2967.645448 2970.302928 2972.496898 2972.317362 2974.340907 2976.192596
93.050000 2970.616977 2973.201628 2974.939356 2974.888778 2976.721834 2978.215762
93.140000 2973.857230 2975.750159 2977.231498 2977.266302 2978.912588 2980.295127
93.150000 2974.236086 2976.054453 2977.554039 2977.577029 2979.215274 2980.619104
93.160000 2974.497015 2976.377201 2977.932805 2977.920958 2979.582334 2980.938319
93.200000 2975.616364 2977.666751 2979.428751 2979.447676 2981.119140 2983.567407
93.320000 2978.904716 2981.178493 2983.587541 2983.919531 2986.659049 2991.650398
93.450000 2981.828454 2984.689594 2987.963223 2988.410613 2992.376122 2996.715623
93.520000 2984.360049 2987.173777 2990.708148 2990.955756 2994.813819 2998.650137
93.590000 2986.527718 2989.707710 2993.539567 2993.660130 2997.668773 3001.003191
93.620000 2987.737241 2991.078135 2994.991176 2994.896103 2998.988690 3001.871003
93.700000 2990.955308 2994.796049 2998.606015 2998.399515 3001.884856 3004.911014
93.820000 2996.455163 3000.074035 3003.266958 3003.121684 3006.190422 3009.255292
93.940000 3000.311522 3003.586436 3006.607404 3006.596363 3009.669809 3012.811761
94.020000 3002.540848 3005.696264 3008.698004 3008.750053 3011.726740 3015.242217
94.120000 3004.924167 3008.031713 3011.151323 3011.184107 3014.130588 3017.547471
94.250000 3007.833759 3011.078353 3014.122538 3014.201909 3017.378844 3020.850946
94.330000 3009.515126 3012.912040 3016.053996 3016.147997 3019.528107 3022.749863
94.450000 3012.088082 3015.834447 3019.179531 3019.287548 3022.529398 3026.928109
94.520000 3013.929676 3017.749957 3021.268880 3021.389838 3024.823397 3030.016197
94.620000 3016.094629 3020.285033 3024.200540 3024.479254 3028.406029 3034.520353
94.720000 3018.740593 3022.734238 3026.970700 3027.469048 3031.999514 3038.730970
94.820000 3021.540139 3025.523845 3029.884112 3030.414134 3035.419730 3042.677905
94.920000 3024.033583 3028.231001 3032.835218 3033.274877 3038.521802 3045.364980
95.020000 3026.879281 3030.864201 3035.740630 3036.111774 3041.291920 3047.818992
95.120000 3029.397493 3033.422864 3038.691633 3039.024555 3044.543117 3050.557282
95.220000 3032.046170 3036.412730 3042.063247 3042.099880 3047.824886 3053.349637
95.350000 3034.760526 3040.012042 3045.796460 3045.813094 3051.270431 3056.656232
95.450000 3037.943678 3042.886705 3048.961362 3048.784381 3054.238863 3059.246760
95.540000 3040.362773 3045.803734 3051.887213 3051.424081 3056.692467 3061.106950
95.640000 3043.354861 3049.140103 3054.548118 3054.296835 3059.371459 3064.128983
95.750000 3046.828147 3052.914020 3057.309569 3057.431794 3062.256109 3067.371939
95.850000 3050.095134 3055.714540 3059.727191 3059.992011 3064.731747 3070.140491
95.950000 3052.799666 3058.598731 3062.268711 3062.493388 3066.966189 3073.192576
96.030000 3056.127233 3060.609226 3064.061271 3064.525089 3068.755631 3075.493251
96.120000 3059.036076 3062.841049 3066.189562 3066.852597 3071.303445 3077.688404
96.230000 3061.776575 3065.377357 3068.668386 3069.399385 3074.035631 3080.208371
96.320000 3064.257275 3067.259394 3070.613900 3071.469113 3076.308499 3082.369630
96.390000 3065.855376 3068.711109 3072.073507 3073.094675 3078.238288 3084.100449
96.490000 3067.929172 3071.064801 3074.177475 3075.485966 3081.466307 3086.468795
96.590000 3070.453256 3073.251620 3076.383284 3077.826819 3084.093135 3089.423338
96.690000 3072.955699 3075.545729 3078.704629 3080.321942 3087.020113 3092.209671
96.790000 3074.914572 3077.744294 3081.154669 3082.937539 3089.956590 3094.775985
96.860000 3077.001131 3079.449629 3083.100783 3084.927233 3092.479681 3096.351638
96.880000 3077.686506 3080.068183 3083.714004 3085.535332 3092.976770 3096.847932
96.990000 3079.864844 3082.869427 3087.353455 3088.656876 3095.887115 3099.240456
97.080000 3082.443952 3085.547125 3090.376738 3091.282259 3098.069953 3101.475478
97.190000 3085.342379 3088.631931 3094.272687 3094.521897 3100.883115 3103.990407
97.290000 3087.589805 3091.743124 3097.328084 3097.356595 3103.140185 3106.197786
97.390000 3090.044983 3094.870422 3100.529225 3100.298510 3105.828654 3108.790528
97.490000 3093.744162 3098.197741 3103.811213 3103.369489 3108.420780 3111.679976
97.590000 3097.104118 3101.683163 3107.221504 3106.604871 3111.312129 3114.475613
97.670000 3100.044132 3104.503462 3109.804945 3109.372175 3113.875023 3116.655904
97.690000 3101.079709 3105.256493 3110.547393 3110.069068 3114.472193 3117.316660
97.770000 3103.960339 3108.584991 3113.445756 3112.954644 3116.977282 3120.723422
97.790000 3104.533948 3109.278537 3114.125355 3113.631180 3117.570662 3121.505615
97.890000 3108.253278 3112.489987 3117.081024 3116.945991 3120.803171 3126.266300
97.990000 3111.138239 3116.034479 3119.965505 3120.402215 3124.083545 3135.386559
98.070000 3113.613304 3118.634102 3122.479948 3123.333874 3127.010923 3140.436565
98.090000 3114.300823 3119.387236 3123.231780 3124.084529 3128.017025 3141.464997
98.190000 3117.354460 3122.670858 3127.389109 3129.271980 3138.308565 3146.059886
98.290000 3121.711941 3126.929815 3135.375679 3135.534607 3144.378728 3149.347779
98.390000 3127.082562 3134.834106 3143.924262 3142.469267 3148.604261 3153.078750
98.490000 3132.215305 3141.482853 3147.638373 3146.664129 3151.393242 3156.373299
98.590000 3142.146275 3147.361166 3151.128278 3150.895598 3154.258690 3159.035067
98.690000 3147.398777 3150.693147 3153.747787 3153.884525 3156.710078 3161.524276
98.790000 3150.743077 3153.664422 3156.336450 3156.659846 3159.428673 3165.418570
98.870000 3152.779784 3155.896331 3158.379542 3158.878213 3161.864882 3169.259379
98.890000 3153.288029 3156.458719 3158.972592 3159.486172 3162.472248 3169.645000
98.990000 3155.687134 3158.963520 3161.842371 3162.466432 3166.043425 3172.427224
99.090000 3157.877468 3161.190383 3164.534333 3165.370566 3169.492249 3176.533174
99.190000 3159.879079 3163.761029 3167.485531 3168.281264 3173.048664 3179.300717
99.290000 3162.550585 3166.309012 3170.618095 3171.249882 3176.363585 3183.286401
99.390000 3165.271713 3168.913784 3173.561154 3174.289072 3180.056690 3186.823320
99.490000 3167.653030 3171.444306 3176.454563 3177.227517 3183.312222 3190.141133
99.590000 3170.363204 3174.319030 3179.606493 3180.296317 3186.625267 3193.251070
99.690000 3172.953893 3177.042809 3182.449586 3183.262471 3189.841858 3196.361778
99.790000 3176.060043 3179.750679 3185.293756 3186.201952 3192.942653 3198.853714
99.890000 3178.387451 3182.758029 3188.372551 3189.159817 3196.329515 3202.188954
99.990000 3180.575630 3185.449652 3191.312358 3192.135269 3199.545907 3205.469427
100.090000 3183.119220 3188.417657 3194.662153 3195.277019 3202.647058 3208.839247
100.190000 3186.161564 3191.461540 3197.933234 3198.436672 3206.067568 3212.452596
100.290000 3190.295520 3194.540172 3200.818013 3201.539193 3209.510287 3216.294370
100.370000 3192.578429 3196.578754 3203.341630 3204.154814 3212.588180 3219.524900
100.390000 3193.320793 3197.136489 3203.907383 3204.813548 3213.291274 3220.005848
100.470000 3195.659447 3199.620340 3206.671197 3207.540968 3216.195435 3223.284581
100.490000 3196.244575 3200.308674 3207.349445 3208.233212 3216.855838 3224.200764
100.590000 3199.199944 3203.315452 3211.330467 3212.095244 3221.169482 3229.592868
100.690000 3202.026548 3206.546840 3215.571467 3216.135438 3225.911969 3233.233241
100.790000 3204.877394 3209.928124 3219.680759 3220.032627 3230.352164 3236.650465
100.890000 3207.903221 3213.952153 3224.061198 3224.109013 3234.482042 3240.490196
100.990000 3210.883931 3218.056402 3229.525559 3228.382889 3237.753664 3243.064451
101.090000 3214.047630 3222.619129 3234.134099 3232.318901 3240.756361 3245.586389
101.190000 3218.092589 3227.727096 3237.794588 3236.037767 3243.498669 3247.977510
101.290000 3222.528071 3232.780342 3241.680306 3240.108472 3246.435532 3250.977363
101.390000 3225.921448 3238.359466 3245.921920 3244.151090 3249.805949 3253.900795
101.470000 3228.565860 3242.907444 3249.438561 3247.909658 3253.512036 3256.939827
101.490000 3229.301406 3243.755382 3250.286001 3248.673652 3254.211901 3257.747653
101.590000 3233.779962 3248.241608 3253.759579 3252.373136 3257.588405 3260.561458
101.690000 3237.308859 3251.999717 3257.136575 3255.717123 3260.651270 3263.889589
101.790000 3241.824364 3254.574967 3259.851211 3258.751797 3263.524373 3266.699191
101.890000 3246.506322 3257.217723 3262.740545 3261.667656 3266.140612 3269.115829
101.990000 3250.339306 3260.165673 3265.806835 3264.556054 3268.928529 3271.921508
102.090000 3253.590837 3262.835146 3268.543223 3267.356499 3271.605372 3274.597705
102.190000 3256.743841 3265.666670 3271.260265 3270.067078 3274.199354 3277.102053
102.290000 3260.089541 3269.085479 3273.694701 3272.700437 3276.698896 3279.208019
102.390000 3263.292241 3271.860990 3276.070030 3275.195281 3278.872924 3281.282761
102.490000 3266.904436 3274.581412 3278.391306 3277.686389 3281.145983 3283.515389
102.590000 3271.141791 3277.152012 3280.807697 3280.274035 3283.470767 3285.933612
102.690000 3276.009019 3280.240682 3283.176852 3282.923756 3285.760804 3288.152152
102.790000 3279.771388 3282.900298 3285.575180 3285.519289 3288.172796 3290.545073
102.890000 3282.942985 3285.175576 3287.841096 3287.915435 3290.544358 3293.201308
102.990000 3285.060990 3287.531221 3290.086080 3290.199867 3292.861455 3295.730180
103.090000 3287.190701 3289.724031 3292.422713 3292.516471 3295.357908 3298.288253
103.160000 3288.625857 3291.233434 3294.296657 3294.251761 3297.175999 3300.211464
103.190000 3289.360561 3291.973075 3295.042081 3295.015812 3297.998375 3301.048567
103.270000 3291.487904 3293.823600 3297.029872 3296.995202 3299.963125 3302.844327
103.360000 3293.501984 3296.073122 3299.479244 3299.343920 3302.245927 3305.248472
103.460000 3295.893660 3298.965085 3301.957638 3301.883932 3304.566800 3307.962132
103.540000 3298.040936 3301.059491 3304.085919 3304.002377 3306.833274 3309.844735
103.560000 3298.762446 3301.612648 3304.638137 3304.610291 3307.588041 3310.567829
103.640000 3301.390712 3304.178004 3307.136962 3307.363623 3310.408830 3314.667558
103.660000 3302.083772 3304.937641 3307.913805 3308.113604 3311.261506 3315.576642
103.770000 3306.063512 3309.387346 3313.537141 3314.593948 3320.888047 3326.469634
103.860000 3309.539555 3313.742655 3320.940775 3320.621568 3327.270914 3330.874481
103.880000 3310.128556 3314.445865 3321.823766 3321.479187 3328.081387 3331.658561
103.940000 3311.845067 3317.021891 3324.727926 3324.011885 3330.361221 3333.787301
103.960000 3312.438571 3317.870427 3325.474913 3324.761812 3331.013933 3334.650540
104.080000 3315.179074 3322.525287 3330.448998 3329.516880 3335.788851 3341.910787
104.160000 3317.414624 3325.103174 3333.063355 3332.341573 3338.860881 3345.869137
104.260000 3320.861079 3328.820173 3336.661109 3336.126234 3342.936901 3349.308143
104.380000 3323.928420 3332.756970 3341.046789 3340.767467 3348.599792 3354.919283
104.460000 3326.928566 3335.037773 3343.837099 3343.665618 3352.384343 3358.843077
104.605132 3330.852131 3339.852057 3348.995516 3348.894094 3357.891781 3367.545011
104.750263 3335.394821 3344.459657 3353.933366 3353.964415 3363.428282 3374.020535
104.895395 3340.109105 3349.185010 3359.468983 3359.214253 3369.286181 3380.021939
105.040526 3344.014107 3353.776572 3364.785067 3364.471105 3374.469233 3384.636065
105.185658 3348.804646 3358.706784 3370.304758 3369.801657 3380.465610 3389.606139
105.330789 3353.619144 3364.201610 3374.870218 3374.834626 3385.677630 3394.278046
105.475921 3359.281838 3369.258133 3380.246909 3379.921354 3390.393716 3400.398883
105.621053 3363.401579 3374.347579 3385.061738 3384.957302 3395.255897 3405.997079
105.766184 3369.142146 3380.063230 3390.210858 3389.988960 3400.034005 3410.612174
105.911316 3374.263771 3385.099694 3394.884357 3395.008236 3405.602227 3415.954011
106.056447 3379.398926 3390.061712 3400.202532 3400.190626 3410.715667 3420.595827
106.201579 3384.835278 3394.464890 3405.268491 3405.126328 3415.461323 3424.890473
106.346711 3389.440071 3399.514149 3410.493334 3410.227663 3420.594504 3430.033809
106.491842 3393.803039 3404.772478 3415.343287 3415.184737 3425.634683 3435.623334
106.636974 3399.468891 3410.034142 3420.601846 3420.259937 3430.237170 3441.277339
106.782105 3404.470801 3414.683732 3425.831504 3425.252317 3435.284693 3445.895827
