depth(m) lower_95(kyr) lower_68(kyr) median(kyr) mean(kyr) upper_68(kyr) upper_95(kyr)
180.000000 177.925238 178.903692 179.684316 179.713687 180.607931 181.478275
180.142857 178.044785 179.030373 179.819070 179.845267 180.767770 181.569908
180.285714 178.174618 179.142199 179.949921 179.977124 180.909141 181.798134
180.428571 178.281937 179.271933 180.076664 180.101064 181.037784 181.974031
180.571429 178.390097 179.371056 180.193167 180.221992 181.180122 182.151504
180.714286 178.520075 179.467026 180.289729 180.339891 181.346385 182.271006
180.857143 178.593125 179.596765 180.399377 180.452912 181.449514 182.414229
181.000000 178.703176 179.698180 180.509480 180.566315 181.547307 182.512788
181.142857 178.794208 179.822413 180.610066 180.682581 181.706060 182.624388
181.285714 178.885075 179.934878 180.711796 180.793042 181.822643 182.827692
181.428571 178.964938 180.030629 180.810330 180.901179 181.915943 182.988438
181.571429 179.091220 180.108115 180.892808 181.005766 182.030425 183.113083
181.714286 179.213588 180.227337 180.982899 181.112527 182.128374 183.228386
181.857143 179.287552 180.326405 181.077193 181.215170 182.230856 183.399348
182.000000 179.377184 180.405629 181.163837 181.317916 182.321956 183.525900
182.142857 179.437191 180.499345 181.256650 181.423718 182.435349 183.773593
182.285714 179.526084 180.603049 181.351401 181.525927 182.517863 183.892356
182.428571 179.620056 180.693596 181.439419 181.632473 182.649011 184.012851
182.571429 179.735255 180.798410 181.541105 181.740971 182.753903 184.114051
182.714286 179.869401 180.888027 181.637243 181.845370 182.868148 184.279754
182.857143 179.911053 180.973280 181.723563 181.949352 182.984232 184.368585
183.000000 179.992403 181.057765 181.812368 182.050368 183.090746 184.634559
183.142857 180.068351 181.177790 181.932651 182.153296 183.187985 184.840095
183.285714 180.157868 181.278508 182.033350 182.259723 183.309116 185.004839
183.428571 180.244310 181.377271 182.132651 182.364389 183.437901 185.105587
183.571429 180.322591 181.499532 182.246239 182.477085 183.565531 185.201383
183.714286 180.428705 181.625661 182.362154 182.585422 183.678453 185.303561
183.857143 180.604376 181.704833 182.473580 182.694589 183.790616 185.390192
184.000000 180.669808 181.812337 182.587181 182.801816 183.896112 185.501452
184.142857 180.747204 181.911993 182.696734 182.913638 184.013591 185.662680
184.285714 180.853420 182.025429 182.821013 183.028696 184.126385 185.814427
184.428571 180.974768 182.137689 182.928003 183.141766 184.237461 186.029524
184.571429 181.102704 182.242667 183.035617 183.256925 184.353722 186.112570
184.714286 181.224475 182.352702 183.162253 183.376691 184.468222 186.267027
184.857143 181.347342 182.453593 183.291829 183.499906 184.611354 186.369531
185.000000 181.442548 182.559598 183.416908 183.617274 184.739985 186.491292
185.142857 181.598246 182.661151 183.549982 183.735546 184.899025 186.589512
185.285714 181.689192 182.776736 183.673394 183.853212 184.981569 186.676714
185.428571 181.794159 182.877070 183.794795 183.973039 185.128993 186.884091
185.571429 181.912690 182.976070 183.895017 184.091058 185.263593 186.968996
185.714286 181.988671 183.077115 184.016648 184.211030 185.399301 187.072904
185.857143 182.077935 183.177415 184.168629 184.335042 185.510603 187.163557
186.000000 182.252707 183.295440 184.282716 184.462051 185.672966 187.428970
186.142857 182.359034 183.403002 184.433090 184.587264 185.799973 187.557924
186.285714 182.468118 183.531729 184.560566 184.716763 185.936510 187.710890
186.428571 182.648636 183.666413 184.678105 184.849890 186.069932 187.808092
186.571429 182.778374 183.783185 184.842779 184.987979 186.248301 187.983211
186.714286 182.958411 183.877268 185.003511 185.121462 186.407603 188.067887
186.857143 183.101906 184.004193 185.170116 185.256701 186.520581 188.175037
187.000000 183.336694 184.138237 185.336272 185.398382 186.649457 188.338395
187.142857 183.414461 184.279718 185.478425 185.537115 186.793522 188.479879
187.285714 183.534992 184.410903 185.604460 185.681482 186.948856 188.717503
187.428571 183.768083 184.573085 185.742553 185.824224 187.083067 188.918577
187.571429 183.873017 184.702164 185.889221 185.973479 187.219010 189.024272
187.714286 183.981520 184.849789 186.032529 186.126923 187.374602 189.222901
187.857143 184.076307 184.995793 186.183174 186.282911 187.574813 189.366203
188.000000 184.254505 185.142159 186.349967 186.441918 187.697474 189.528470
188.142857 184.387211 185.285612 186.507111 186.606565 187.865293 189.731676
188.285714 184.539617 185.469991 186.683929 186.777262 188.055907 189.900955
188.428571 184.661012 185.615486 186.861909 186.949041 188.263069 190.017683
188.571429 184.787921 185.784870 187.043530 187.118518 188.410240 190.142433
188.714286 184.943072 185.965835 187.222032 187.294182 188.611622 190.322838
188.857143 185.096577 186.129664 187.398408 187.469715 188.784342 190.532861
189.000000 185.286171 186.346383 187.572244 187.652307 188.996564 190.758711
189.142857 185.420950 186.512857 187.736429 187.840790 189.165840 190.905601
189.285714 185.613482 186.679424 187.924059 188.031122 189.417519 191.079608
189.428571 185.806549 186.845467 188.117702 188.231697 189.654446 191.294889
189.571429 185.948396 187.062327 188.324509 188.439228 189.826098 191.406902
189.714286 186.061619 187.306684 188.588883 188.660344 190.064107 191.660477
189.857143 186.293809 187.546242 188.807145 188.881089 190.240934 191.874042
190.000000 186.608940 187.779531 189.024993 189.103438 190.438306 191.994313
190.142857 186.882397 188.021021 189.240121 189.325634 190.657141 192.193019
190.285714 187.200489 188.228551 189.462305 189.558306 190.899336 192.357539
190.428571 187.445753 188.463187 189.730992 189.805172 191.151497 192.560133
190.571429 187.633716 188.701003 189.988403 190.051407 191.376883 192.660565
190.714286 187.865967 188.918068 190.230436 190.295738 191.617959 192.956503
190.857143 188.050508 189.132202 190.477049 190.531130 191.877588 193.227793
191.000000 188.391562 189.378740 190.753341 190.785898 192.120388 193.436719
191.142857 188.617379 189.664150 190.991696 191.047581 192.413865 193.706803
191.285714 188.899895 189.864791 191.214022 191.287188 192.672315 194.099334
191.428571 189.068231 190.086483 191.455622 191.533252 192.898317 194.476659
191.571429 189.278896 190.342303 191.686073 191.772493 193.109815 194.624367
191.714286 189.469354 190.591196 191.937625 192.003077 193.400319 194.873769
191.857143 189.610527 190.819921 192.165382 192.225298 193.611964 195.276644
192.000000 189.753592 190.988897 192.384825 192.447121 193.902501 195.480993
192.142857 190.056114 191.193690 192.586711 192.657751 194.109007 195.794772
192.285714 190.256637 191.428297 192.786281 192.858330 194.317008 195.980626
192.428571 190.397724 191.590179 193.041658 193.051895 194.519684 196.209356
192.571429 190.591126 191.772937 193.199023 193.243225 194.718933 196.387904
192.714286 190.873816 191.944400 193.409011 193.435836 194.873772 196.571260
192.857143 191.046112 192.081741 193.617624 193.610845 195.032395 196.693287
193.000000 191.207881 192.260170 193.827518 193.786769 195.225530 196.869067
193.142857 191.418344 192.426130 193.997490 193.960928 195.415834 196.995076
193.285714 191.602053 192.623143 194.170957 194.133519 195.555428 197.155557
193.428571 191.837008 192.786891 194.332414 194.302124 195.702173 197.380686
193.571429 191.975600 192.909185 194.492738 194.462665 195.877876 197.498404
193.714286 192.071617 193.061560 194.635246 194.628138 196.092467 197.593250
193.857143 192.293038 193.256851 194.790811 194.788073 196.255277 197.671836
194.000000 192.430487 193.402603 194.951964 194.948123 196.402505 197.794360
194.142857 192.559697 193.564849 195.099128 195.101684 196.570497 197.889615
194.285714 192.739811 193.747655 195.249833 195.250670 196.707323 198.036453
194.428571 192.862502 193.885937 195.417356 195.399459 196.837057 198.203108
194.571429 193.022566 194.017723 195.571464 195.551161 196.995419 198.393246
194.714286 193.193177 194.169507 195.723257 195.697276 197.146233 198.580013
194.857143 193.312939 194.337535 195.871331 195.838681 197.277602 198.637897
195.000000 193.491067 194.475624 196.015719 195.983948 197.422122 198.782908
195.142857 193.576140 194.606463 196.178777 196.124393 197.546172 198.924404
195.285714 193.705886 194.733489 196.324580 196.270549 197.691169 199.121104
195.428571 193.905930 194.891576 196.459483 196.419121 197.834101 199.268040
195.571429 194.029509 195.024387 196.612660 196.566377 197.991017 199.412901
195.714286 194.133854 195.162459 196.780390 196.717450 198.108609 199.521650
195.857143 194.263991 195.310733 196.894913 196.858613 198.270007 199.656465
196.000000 194.365946 195.526362 197.040127 197.001002 198.424914 199.857375
196.142857 194.476574 195.695763 197.188098 197.146758 198.576811 200.058532
196.285714 194.606749 195.835827 197.327618 197.296336 198.710412 200.230219
196.428571 194.729857 195.988175 197.466577 197.441669 198.856139 200.425608
196.571429 194.884453 196.144335 197.632529 197.588387 199.031873 200.543864
196.714286 194.986590 196.312366 197.745894 197.734445 199.174523 200.766053
196.857143 195.113497 196.427432 197.875036 197.875732 199.313043 200.957112
197.000000 195.200092 196.562143 198.058200 198.028233 199.449237 201.059643
197.142857 195.324451 196.692563 198.164405 198.176189 199.577050 201.266225
197.285714 195.457415 196.840769 198.332470 198.324703 199.728171 201.410715
197.428571 195.587909 196.991679 198.500711 198.478927 199.874538 201.518854
197.571429 195.794133 197.125623 198.663668 198.639039 200.023089 201.664654
197.714286 195.925001 197.260294 198.827392 198.799384 200.206156 201.785614
197.857143 196.060942 197.402630 198.955257 198.950375 200.333403 201.903487
198.000000 196.232679 197.590717 199.113597 199.113162 200.503853 202.071525
198.142857 196.442737 197.797462 199.264047 199.282337 200.678481 202.262936
198.285714 196.638830 197.991887 199.426051 199.443797 200.807634 202.429112
198.428571 196.812283 198.208642 199.602268 199.611534 200.955145 202.560185
198.571429 196.915099 198.425673 199.745096 199.771502 201.117648 202.672621
198.714286 197.038020 198.604528 199.898642 199.935641 201.265214 202.852398
198.857143 197.168649 198.757490 200.076733 200.106423 201.436725 202.976946
199.000000 197.450740 198.898912 200.253591 200.271705 201.625486 203.088245
199.142857 197.771780 199.101227 200.423873 200.439027 201.820423 203.173904
199.285714 197.895789 199.252863 200.595807 200.594543 201.967214 203.268738
199.428571 198.032702 199.467046 200.739876 200.755844 202.129780 203.395403
199.571429 198.187126 199.621009 200.898615 200.917042 202.328263 203.582264
199.714286 198.274196 199.767049 201.084810 201.075692 202.496581 203.692072
199.857143 198.381207 199.952765 201.240376 201.234397 202.640165 203.869167
200.000000 198.482263 200.089408 201.386161 201.396606 202.763409 204.186068
200.142857 198.598878 200.225842 201.547678 201.559561 202.945751 204.368648
200.285714 198.706589 200.375615 201.691257 201.714478 203.118691 204.499810
200.428571 198.850044 200.496719 201.860483 201.867670 203.286097 204.671410
200.571429 198.999767 200.646050 202.006283 202.026262 203.426220 204.854572
200.714286 199.093192 200.783624 202.139853 202.179128 203.589635 205.005525
200.857143 199.206878 200.925151 202.300334 202.326880 203.731086 205.150172
201.000000 199.317628 201.087087 202.461544 202.476876 203.869470 205.270502
201.142857 199.535073 201.228010 202.608360 202.635932 204.077860 205.521955
201.285714 199.731223 201.374322 202.797466 202.790325 204.249804 205.677610
201.428571 199.887967 201.532343 202.931937 202.948036 204.400009 205.805864
201.571429 200.008847 201.652151 203.089470 203.097814 204.564076 205.975849
201.714286 200.150933 201.783159 203.269595 203.253543 204.696364 206.192129
201.857143 200.492329 201.909439 203.468656 203.401494 204.830227 206.336743
202.000000 200.752650 202.043933 203.639364 203.545870 204.996986 206.453991
202.142857 200.867379 202.152934 203.774721 203.690480 205.126958 206.629911
202.285714 200.951086 202.309500 203.920768 203.844403 205.311940 206.709515
202.428571 201.138467 202.454425 204.080075 203.997159 205.455345 206.839080
202.571429 201.253757 202.621150 204.266962 204.155533 205.631847 206.976390
202.714286 201.313036 202.751043 204.452185 204.308772 205.785030 207.095267
202.857143 201.374374 202.882181 204.616294 204.459908 205.908650 207.196302
203.000000 201.543855 203.038780 204.773294 204.616085 206.054763 207.376142
203.142857 201.672428 203.212201 204.933606 204.771730 206.267527 207.512247
203.285714 201.804296 203.331804 205.059527 204.921078 206.390973 207.619893
203.428571 202.025800 203.470950 205.220360 205.076841 206.573195 207.760105
203.571429 202.185933 203.589704 205.374185 205.220780 206.748858 207.845327
203.714286 202.381142 203.699277 205.516234 205.368170 206.925316 207.948453
203.857143 202.498268 203.842794 205.652163 205.511632 207.104584 208.063588
204.000000 202.623914 203.988495 205.787787 205.648775 207.219214 208.211282
204.142857 202.810168 204.135472 205.919193 205.784909 207.364529 208.333733
204.285714 202.965442 204.267307 206.061491 205.921234 207.477330 208.476285
204.428571 203.118279 204.416938 206.189390 206.061119 207.622318 208.567704
204.571429 203.249763 204.564822 206.311875 206.192496 207.738018 208.661624
204.714286 203.371781 204.728876 206.428289 206.327849 207.843771 208.756271
204.857143 203.508624 204.893265 206.562574 206.456022 207.977331 208.922773
205.000000 203.616210 205.053633 206.678839 206.583066 208.098239 209.020695
205.142857 203.846969 205.250444 206.789893 206.711824 208.235968 209.108825
205.285714 203.941872 205.377447 206.911735 206.838347 208.340485 209.273654
205.428571 204.071739 205.553741 207.047287 206.965951 208.428066 209.366883
205.571429 204.183926 205.718762 207.165224 207.094838 208.544431 209.437595
205.714286 204.371655 205.864139 207.284388 207.221926 208.650925 209.589921
205.857143 204.486292 206.061762 207.414906 207.349973 208.760238 209.688623
206.000000 204.566904 206.237054 207.534654 207.477531 208.854110 209.769745
206.142857 204.698201 206.349307 207.696635 207.602284 208.941297 209.846397
206.285714 204.799677 206.535538 207.816763 207.725426 209.065761 210.011896
206.428571 204.935736 206.643774 207.940565 207.850130 209.177522 210.119757
206.571429 205.126540 206.779829 208.072497 207.970573 209.266756 210.246444
206.714286 205.242670 206.911675 208.185007 208.091825 209.358115 210.336648
206.857143 205.399127 207.064619 208.297389 208.215078 209.472083 210.467923
207.000000 205.484150 207.194986 208.407882 208.333890 209.583985 210.571462
207.142857 205.568510 207.327552 208.521723 208.453514 209.696633 210.721638
207.285714 205.720243 207.447629 208.671652 208.575461 209.802763 210.812470
207.428571 205.821892 207.555627 208.794951 208.692181 209.921661 210.876032
207.571429 205.992937 207.650167 208.907065 208.808697 210.041136 210.985021
207.714286 206.115342 207.794276 209.030817 208.926548 210.119395 211.105140
207.857143 206.238538 207.901670 209.125049 209.043829 210.227280 211.228848
208.000000 206.418767 208.024193 209.235653 209.159472 210.317308 211.318719
208.142857 206.580029 208.142574 209.350913 209.275214 210.423502 211.412225
208.285714 206.794097 208.273249 209.470953 209.397136 210.563430 211.514992
208.428571 206.945471 208.386854 209.591623 209.515688 210.675983 211.623982
208.571429 207.102540 208.520401 209.725360 209.629117 210.773449 211.741810
208.714286 207.246810 208.635447 209.833747 209.737752 210.879489 211.835870
208.857143 207.425952 208.749391 209.942507 209.848986 210.959065 211.935062
209.000000 207.574862 208.892811 210.038458 209.957808 211.058463 212.046831
209.142857 207.723990 209.014770 210.151667 210.070445 211.147452 212.184866
209.285714 207.873347 209.129306 210.239238 210.180122 211.270393 212.292494
209.428571 208.021173 209.265733 210.372471 210.294441 211.387752 212.453131
209.571429 208.133727 209.371680 210.485619 210.402324 211.479858 212.547653
209.714286 208.206453 209.477991 210.598170 210.516195 211.596323 212.635614
209.857143 208.298310 209.588462 210.685808 210.622901 211.692747 212.765188
210.000000 208.484734 209.695280 210.782076 210.725082 211.784982 212.903241
210.142857 208.578050 209.769343 210.876992 210.826808 211.876023 212.984406
210.285714 208.720178 209.838702 210.977315 210.928874 211.968277 213.140061
210.428571 208.803125 209.921291 211.063577 211.031324 212.056593 213.290852
210.571429 208.890567 210.041131 211.149414 211.136874 212.155695 213.390309
210.714286 208.971750 210.143821 211.246959 211.239539 212.259198 213.495454
210.857143 209.066382 210.261735 211.340802 211.342767 212.349103 213.564552
211.000000 209.142995 210.363788 211.436857 211.446753 212.439159 213.655793
211.142857 209.334070 210.444524 211.526862 211.550487 212.560178 213.740550
211.285714 209.509977 210.552347 211.634850 211.650861 212.666236 213.822335
211.428571 209.600677 210.641953 211.728259 211.754159 212.751823 213.922378
211.571429 209.658346 210.751740 211.831381 211.851515 212.831226 214.022971
211.714286 209.738762 210.850217 211.933353 211.949340 212.928526 214.092030
211.857143 209.846446 210.943044 212.011055 212.051115 213.031857 214.163404
212.000000 209.965705 211.035494 212.105378 212.153170 213.142257 214.252335
212.142857 210.093456 211.131965 212.221877 212.254258 213.236072 214.339551
212.285714 210.217344 211.256763 212.327661 212.354830 213.343012 214.442352
212.428571 210.366154 211.362927 212.431464 212.454265 213.428986 214.521374
212.571429 210.504755 211.469619 212.532354 212.554551 213.529629 214.598302
212.714286 210.604753 211.595590 212.629166 212.656600 213.635077 214.687183
212.857143 210.697041 211.767853 212.735839 212.761514 213.756568 214.788686
213.000000 210.802593 211.909021 212.845562 212.866292 213.862316 214.871593
213.142857 210.939261 212.016788 212.949280 212.969445 213.973207 214.951168
213.285714 211.063319 212.113810 213.066333 213.072510 214.082433 215.027611
213.428571 211.131503 212.250322 213.163385 213.176112 214.201430 215.124284
213.571429 211.236852 212.330446 213.249038 213.274070 214.309779 215.197750
213.714286 211.338424 212.443928 213.359386 213.379795 214.421266 215.282905
213.857143 211.440808 212.552480 213.472080 213.485496 214.528256 215.372799
214.000000 211.561702 212.678504 213.570617 213.591530 214.631298 215.496267
214.142857 211.695621 212.766621 213.675144 213.695008 214.745565 215.607534
214.285714 211.809756 212.893239 213.778554 213.803447 214.849965 215.699155
214.428571 211.906245 212.989754 213.891924 213.907779 214.961556 215.798589
214.571429 212.004599 213.093072 213.988852 214.011940 215.057377 215.892132
214.714286 212.110618 213.203348 214.083754 214.114097 215.164513 215.975530
214.857143 212.204834 213.303424 214.189136 214.220831 215.252991 216.057650
215.000000 212.313892 213.391527 214.307465 214.326641 215.373852 216.164455
215.142857 212.464083 213.488169 214.417398 214.435300 215.486308 216.289225
215.285714 212.605118 213.625000 214.516711 214.543954 215.596491 216.368245
215.428571 212.733483 213.709983 214.621236 214.650056 215.702988 216.452697
215.571429 212.817293 213.799135 214.735845 214.761498 215.801397 216.566392
215.714286 212.948058 213.924456 214.855382 214.875403 215.903060 216.665545
215.857143 213.025978 214.050872 214.963909 214.990678 215.992481 216.786537
216.000000 213.153795 214.154031 215.100440 215.107143 216.093761 216.948449
216.142857 213.332059 214.301202 215.217220 215.224347 216.195623 217.045395
216.285714 213.462467 214.446332 215.343826 215.346194 216.294911 217.160753
216.428571 213.564623 214.579747 215.483499 215.468920 216.413163 217.270715
216.571429 213.674629 214.676661 215.598652 215.594884 216.527586 217.356950
216.714286 213.800669 214.839338 215.729093 215.720222 216.649150 217.477365
