depth(m) lower_95(kyr) lower_68(kyr) median(kyr) mean(kyr) upper_68(kyr) upper_95(kyr)
210.000000 208.749512 209.637859 210.411798 210.395379 211.190089 211.901237
210.142857 208.886368 209.766448 210.544585 210.529380 211.311281 212.134765
210.285714 208.974201 209.881271 210.672970 210.660269 211.439908 212.316350
210.428571 209.094924 209.986853 210.794584 210.785156 211.602023 212.460693
210.571429 209.218946 210.114522 210.930426 210.910194 211.716413 212.593026
210.714286 209.308261 210.219862 211.056974 211.032355 211.840975 212.714406
210.857143 209.436257 210.336006 211.178629 211.153937 211.962663 212.835788
211.000000 209.548263 210.427669 211.282684 211.269380 212.081583 212.921114
211.142857 209.672795 210.534431 211.383832 211.382443 212.196103 213.051261
211.285714 209.764712 210.634766 211.506027 211.497654 212.339784 213.193060
211.428571 209.891412 210.736457 211.624771 211.610117 212.475665 213.315980
211.571429 209.986020 210.832874 211.740359 211.723180 212.595835 213.443093
211.714286 210.093074 210.921626 211.867080 211.833727 212.682483 213.535369
211.857143 210.230779 211.005735 211.969130 211.949258 212.805025 213.701916
212.000000 210.326808 211.116711 212.078162 212.057537 212.905068 213.805108
212.142857 210.431634 211.206297 212.185193 212.169946 213.029325 213.928418
212.285714 210.557159 211.320238 212.309030 212.284138 213.151307 214.128326
212.428571 210.690605 211.412522 212.417008 212.393755 213.274725 214.202636
212.571429 210.815090 211.506151 212.528779 212.503920 213.386998 214.322123
212.714286 210.921879 211.615279 212.637116 212.616969 213.500106 214.461991
212.857143 211.063181 211.715669 212.755809 212.731410 213.635611 214.584728
213.000000 211.174203 211.832167 212.861645 212.843685 213.769188 214.689843
213.142857 211.277512 211.935124 212.971423 212.959448 213.907964 214.782490
213.285714 211.367546 212.042859 213.077057 213.068295 214.027301 214.943825
213.428571 211.451670 212.138745 213.189355 213.176197 214.134834 215.023393
213.571429 211.564477 212.238369 213.284078 213.285324 214.253893 215.122076
213.714286 211.661609 212.358047 213.381951 213.395564 214.354934 215.248341
213.857143 211.808839 212.454893 213.482207 213.504593 214.500399 215.374976
214.000000 211.899612 212.571155 213.590724 213.616548 214.616912 215.492257
214.142857 212.029064 212.708028 213.667389 213.726668 214.745102 215.627486
214.285714 212.130861 212.813698 213.766175 213.840263 214.860283 215.729509
214.428571 212.209616 212.923692 213.872681 213.954967 214.941451 215.860257
214.571429 212.282116 213.054918 213.996595 214.069379 215.045738 215.968716
214.714286 212.380878 213.174466 214.121753 214.185893 215.186094 216.069990
214.857143 212.508571 213.269833 214.265925 214.304567 215.295459 216.189180
215.000000 212.611806 213.395032 214.390278 214.421509 215.414650 216.292197
215.142857 212.736515 213.509283 214.492502 214.541400 215.532061 216.408719
215.285714 212.869395 213.667978 214.640454 214.660685 215.622443 216.526033
215.428571 213.018883 213.803591 214.769539 214.779976 215.754855 216.625224
215.571429 213.154033 213.949892 214.923189 214.900734 215.869104 216.710267
215.714286 213.289465 214.058962 215.044286 215.022237 215.976995 216.812043
215.857143 213.380365 214.199146 215.175493 215.140753 216.102732 216.910833
216.000000 213.547604 214.332452 215.292403 215.264335 216.214343 217.011572
216.142857 213.627680 214.461885 215.427712 215.388215 216.377635 217.098035
216.285714 213.734840 214.584226 215.541383 215.513721 216.484108 217.204573
216.428571 213.853337 214.698991 215.671649 215.641825 216.610068 217.298112
216.571429 213.942644 214.846808 215.836725 215.772167 216.709582 217.425026
216.714286 214.069449 214.986230 215.967985 215.903759 216.818777 217.525563
216.857143 214.197943 215.130910 216.094679 216.031364 216.947426 217.621068
217.000000 214.391505 215.243434 216.229417 216.159837 217.064442 217.714530
217.142857 214.499447 215.368120 216.373112 216.295416 217.212016 217.817345
217.285714 214.576478 215.510107 216.500912 216.437049 217.348346 217.955673
217.428571 214.764995 215.650909 216.640900 216.576474 217.498206 218.086299
217.571429 214.891156 215.775921 216.759430 216.714549 217.642856 218.234149
217.714286 215.063369 215.902367 216.895857 216.859121 217.766716 218.370782
217.857143 215.222394 216.040526 217.052734 217.006310 217.906708 218.484295
218.000000 215.418242 216.229179 217.207130 217.156875 218.053493 218.614771
218.142857 215.642145 216.425888 217.357399 217.310654 218.168092 218.765848
218.285714 215.787577 216.613658 217.493368 217.465002 218.298320 218.943714
218.428571 215.968149 216.791848 217.657386 217.617763 218.445153 219.092845
218.571429 216.168779 217.031327 217.796964 217.768847 218.572866 219.207216
218.714286 216.351320 217.224497 217.945187 217.926555 218.709037 219.329514
218.857143 216.502196 217.378892 218.079846 218.086666 218.835495 219.521710
219.000000 216.695832 217.541162 218.224191 218.246072 218.969264 219.772476
219.142857 216.825763 217.721170 218.414770 218.401389 219.094835 219.924177
219.285714 216.985197 217.838535 218.560764 218.549590 219.242050 220.081890
219.428571 217.143507 217.987421 218.698238 218.700089 219.408561 220.233764
219.571429 217.356757 218.128216 218.848593 218.850711 219.562352 220.413720
219.714286 217.540507 218.259167 219.007800 219.005226 219.706014 220.617902
219.857143 217.712759 218.430436 219.135286 219.160647 219.848199 220.803932
220.000000 217.902155 218.573159 219.286622 219.312576 220.000844 220.951442
220.142857 218.028603 218.750154 219.427171 219.468140 220.174502 221.105927
220.285714 218.244668 218.919894 219.592887 219.625684 220.313170 221.256248
220.428571 218.359045 219.061087 219.730279 219.775785 220.451018 221.435350
220.571429 218.475549 219.237620 219.885172 219.935529 220.616648 221.568930
220.714286 218.651777 219.391980 220.024732 220.093816 220.781835 221.708976
220.857143 218.815106 219.561205 220.186825 220.250581 220.971796 221.937316
221.000000 219.008680 219.702471 220.362571 220.409734 221.145084 222.052934
221.142857 219.125828 219.862457 220.502148 220.564446 221.320925 222.201829
221.285714 219.250837 219.992353 220.655004 220.721956 221.521722 222.371289
221.428571 219.392013 220.130088 220.801544 220.877481 221.722050 222.589027
221.571429 219.501707 220.242158 220.951810 221.029506 221.905750 222.769478
221.714286 219.624621 220.385499 221.088945 221.175785 222.071768 223.004556
221.857143 219.786422 220.503661 221.205450 221.315381 222.232779 223.144453
222.000000 219.899659 220.642584 221.316543 221.453297 222.369815 223.360900
222.142857 220.088892 220.768303 221.459271 221.589941 222.521883 223.556186
222.285714 220.194966 220.863405 221.610092 221.720032 222.660539 223.723191
222.428571 220.301752 220.979652 221.735182 221.849048 222.812841 223.851639
222.571429 220.435304 221.080650 221.844110 221.981541 222.938851 223.971038
222.714286 220.559893 221.207578 221.987078 222.115901 223.058945 224.228907
222.857143 220.648897 221.346528 222.117321 222.239608 223.163787 224.349386
223.000000 220.719841 221.444419 222.234406 222.364178 223.285793 224.494764
223.142857 220.832929 221.552938 222.352732 222.486533 223.410381 224.653339
223.285714 220.931815 221.655597 222.463454 222.607606 223.560858 224.796711
223.428571 221.028804 221.773490 222.591277 222.732694 223.699985 225.063726
223.571429 221.183278 221.864068 222.713053 222.854082 223.832853 225.244436
223.714286 221.321587 221.968245 222.839230 222.971446 223.976803 225.328225
223.857143 221.421922 222.073104 222.960586 223.093352 224.103365 225.443886
224.000000 221.516300 222.173548 223.063331 223.214119 224.293060 225.531716
224.142857 221.613459 222.281005 223.187218 223.334460 224.402760 225.803171
224.285714 221.721933 222.393896 223.311938 223.451420 224.517788 225.934380
224.428571 221.816672 222.511352 223.427159 223.571550 224.638082 225.992900
224.571429 221.909796 222.627669 223.563722 223.691465 224.740634 226.184513
224.714286 221.986022 222.739162 223.677083 223.810822 224.873040 226.314337
224.857143 222.093930 222.841799 223.796213 223.927016 225.001545 226.408330
225.000000 222.230449 222.951218 223.926100 224.043867 225.141087 226.589179
225.142857 222.310773 223.049054 224.049253 224.160945 225.254424 226.658588
225.285714 222.413613 223.144965 224.180013 224.279223 225.419841 226.829616
225.428571 222.502284 223.225928 224.304192 224.399080 225.582655 226.962006
225.571429 222.573544 223.329087 224.424288 224.515035 225.688330 227.032774
225.714286 222.667757 223.425893 224.543304 224.636069 225.838428 227.242802
225.857143 222.761759 223.532445 224.669666 224.755318 225.940736 227.377561
226.000000 222.862487 223.644544 224.812999 224.872587 226.066871 227.460379
226.142857 222.940606 223.757143 224.950280 224.995961 226.162534 227.593615
226.285714 223.029365 223.901063 225.066055 225.118843 226.288449 227.731982
226.428571 223.132864 224.008078 225.195015 225.243734 226.407455 227.828877
226.571429 223.218656 224.118801 225.317032 225.371793 226.537803 227.958737
226.714286 223.293098 224.241168 225.455780 225.495931 226.649825 228.128082
226.857143 223.399885 224.378889 225.595421 225.621327 226.775641 228.251871
227.000000 223.513620 224.481438 225.705706 225.748875 226.916639 228.380872
227.142857 223.601934 224.561466 225.842110 225.877597 227.068509 228.530799
227.285714 223.716023 224.702196 225.974221 226.006802 227.216473 228.701513
227.428571 223.795147 224.785238 226.101386 226.136672 227.386123 228.897026
227.571429 223.882147 224.886572 226.227643 226.265340 227.541098 229.105521
227.714286 223.963210 225.024855 226.362254 226.391750 227.677640 229.215183
227.857143 224.059430 225.145906 226.487634 226.522245 227.844930 229.327250
228.000000 224.158660 225.256830 226.617093 226.649970 227.991359 229.447969
228.142857 224.252571 225.377239 226.748774 226.785180 228.107947 229.635674
228.285714 224.320775 225.480268 226.887861 226.920948 228.280862 229.769550
228.428571 224.434375 225.606292 227.057318 227.051024 228.415756 229.953289
228.571429 224.537360 225.706218 227.185491 227.182243 228.518134 230.139318
228.714286 224.644921 225.815106 227.302021 227.318218 228.672947 230.290217
228.857143 224.717529 225.926280 227.452248 227.453202 228.876184 230.452731
229.000000 224.825465 226.056179 227.594698 227.585030 229.001171 230.569658
229.142857 224.884165 226.175424 227.716730 227.713862 229.154489 230.648949
229.285714 225.000654 226.303578 227.873004 227.851391 229.278414 230.777324
229.428571 225.137168 226.445268 227.978894 227.990364 229.427657 230.942871
229.571429 225.248741 226.578926 228.117230 228.128981 229.587663 231.071577
229.714286 225.379417 226.670748 228.245504 228.261496 229.727406 231.198623
229.857143 225.547101 226.808080 228.393815 228.399218 229.860235 231.338353
230.000000 225.660039 226.946523 228.539110 228.539664 230.000397 231.486536
230.142857 225.802699 227.091179 228.661019 228.677594 230.152930 231.557101
230.285714 225.970187 227.226651 228.800630 228.824644 230.324857 231.684175
230.428571 226.135718 227.363842 228.966346 228.976266 230.497668 231.939630
230.571429 226.263514 227.575396 229.118344 229.127587 230.634566 232.025563
230.714286 226.383382 227.721978 229.284366 229.269814 230.787871 232.156655
230.857143 226.477537 227.900707 229.441001 229.422675 230.917386 232.254460
231.000000 226.599468 228.057585 229.559034 229.574119 231.074675 232.452192
231.142857 226.830703 228.262519 229.715835 229.742267 231.232769 232.602610
231.285714 226.958125 228.453241 229.905617 229.911478 231.400590 232.768778
231.428571 227.100931 228.621959 230.081906 230.080393 231.583165 232.925939
231.571429 227.244496 228.803365 230.281021 230.256388 231.790313 233.056714
231.714286 227.392962 229.012246 230.472855 230.429146 231.944513 233.193135
231.857143 227.542926 229.200316 230.635215 230.602920 232.097744 233.277201
232.000000 227.723606 229.333021 230.783287 230.773495 232.252697 233.377435
232.142857 227.844188 229.565166 230.975452 230.950893 232.452266 233.484842
232.285714 228.158007 229.754109 231.138656 231.135041 232.611460 233.603060
232.428571 228.363090 229.969102 231.292657 231.316848 232.751114 233.734698
232.571429 228.661302 230.189036 231.501164 231.513278 232.915701 233.884748
232.714286 229.099902 230.386274 231.703871 231.707185 233.073195 233.995732
232.857143 229.274885 230.597962 231.890469 231.897480 233.237719 234.162333
233.000000 229.575973 230.858311 232.084469 232.098100 233.416837 234.333301
233.142857 229.753045 231.100373 232.300530 232.289009 233.587192 234.455676
233.285714 229.915560 231.324561 232.487106 232.471632 233.741686 234.589547
233.428571 230.160409 231.532708 232.665601 232.667448 233.933769 234.700809
233.571429 230.433818 231.735514 232.860874 232.866063 234.104803 234.850620
233.714286 230.594995 231.928362 233.085059 233.054511 234.274510 235.042774
233.857143 230.778307 232.085752 233.285315 233.241477 234.437450 235.213081
234.000000 230.917731 232.313564 233.470307 233.423310 234.583074 235.336537
234.142857 231.148885 232.486990 233.685991 233.603830 234.779690 235.543928
234.285714 231.300992 232.694370 233.861767 233.785496 234.934279 235.660794
234.428571 231.591104 232.853025 234.057900 233.967292 235.134822 235.816133
234.571429 231.852283 233.015183 234.249561 234.141765 235.274957 235.965403
234.714286 232.089667 233.223373 234.395943 234.315286 235.430894 236.127866
234.857143 232.306510 233.401428 234.562470 234.487030 235.560028 236.269453
235.000000 232.482663 233.583694 234.726464 234.653305 235.708059 236.475223
235.142857 232.674297 233.743110 234.879718 234.814846 235.841320 236.615824
235.285714 232.941481 233.931969 235.038182 234.971523 235.982467 236.741241
235.428571 233.188662 234.118215 235.166711 235.134895 236.140421 236.985817
235.571429 233.403599 234.292971 235.330084 235.297582 236.271282 237.140551
235.714286 233.523209 234.448252 235.481761 235.454505 236.431070 237.325055
235.857143 233.718960 234.604478 235.631664 235.606825 236.563465 237.503592
236.000000 233.795790 234.768825 235.800430 235.759781 236.700245 237.696829
236.142857 233.886520 234.938898 235.931593 235.905603 236.849063 237.878926
236.285714 234.109740 235.101780 236.080290 236.053992 237.002338 238.034674
236.428571 234.312808 235.292493 236.201736 236.197167 237.139212 238.138986
236.571429 234.500615 235.444706 236.329155 236.341281 237.278169 238.268938
236.714286 234.745187 235.599951 236.498576 236.488494 237.402239 238.426989
236.857143 234.946742 235.762761 236.675832 236.637682 237.552805 238.585763
237.000000 235.055295 235.892607 236.812183 236.780621 237.677255 238.708816
237.142857 235.195603 236.019585 236.965967 236.921168 237.800814 238.832518
237.285714 235.348398 236.154965 237.096423 237.059244 237.934106 238.965536
237.428571 235.522106 236.293229 237.213664 237.202553 238.090807 239.124786
237.571429 235.662286 236.400566 237.338884 237.335733 238.249378 239.243319
237.714286 235.818198 236.528529 237.477499 237.476007 238.380256 239.364641
237.857143 235.960851 236.676703 237.619658 237.609298 238.501997 239.514971
238.000000 236.089362 236.840533 237.769092 237.753826 238.654190 239.618172
238.142857 236.181007 236.960103 237.895278 237.890201 238.772561 239.752731
238.285714 236.313902 237.125559 238.029984 238.025558 238.876706 239.909923
238.428571 236.461375 237.257251 238.158795 238.164040 239.013202 240.057543
238.571429 236.619722 237.419399 238.322870 238.305624 239.130567 240.193656
238.714286 236.735598 237.577389 238.448945 238.444052 239.274014 240.288959
238.857143 236.880177 237.735899 238.582791 238.581775 239.416612 240.458673
239.000000 237.017056 237.862361 238.722743 238.722428 239.572903 240.569348
239.142857 237.146719 237.995204 238.851066 238.859422 239.694538 240.709710
239.285714 237.287915 238.146959 238.974097 238.997164 239.802316 240.833319
239.428571 237.414223 238.286795 239.104823 239.139259 240.001004 240.942942
239.571429 237.523344 238.425688 239.252207 239.285787 240.152900 241.067327
239.714286 237.662320 238.586747 239.413558 239.432551 240.324248 241.223080
239.857143 237.788120 238.745390 239.581546 239.582645 240.450324 241.383776
240.000000 237.960262 238.890485 239.713504 239.734441 240.628120 241.555103
240.142857 238.104435 239.021360 239.846332 239.884595 240.758626 241.693980
240.285714 238.305178 239.184625 240.019049 240.050135 240.929998 241.878988
240.428571 238.461635 239.389333 240.180871 240.213121 241.070302 241.971586
240.571429 238.638764 239.573843 240.344272 240.378944 241.249842 242.114240
240.714286 238.848343 239.753065 240.501817 240.541473 241.410755 242.249568
240.857143 238.935039 239.898210 240.665610 240.705139 241.576954 242.389638
241.000000 239.130166 240.071122 240.843834 240.877049 241.740429 242.573877
241.142857 239.349880 240.247322 241.022165 241.054618 241.941297 242.771447
241.285714 239.500910 240.402488 241.206008 241.241039 242.148362 243.039535
241.428571 239.609526 240.573723 241.392124 241.427945 242.348388 243.251003
241.571429 239.765697 240.752891 241.581265 241.614027 242.512443 243.490046
241.714286 239.995641 240.941316 241.745369 241.801344 242.673652 243.643421
241.857143 240.249795 241.153454 241.932430 241.991662 242.867393 243.883271
242.000000 240.407772 241.347437 242.135111 242.181800 243.047901 244.115491
242.142857 240.676408 241.562976 242.320188 242.380653 243.241611 244.256248
242.285714 240.882605 241.767838 242.517155 242.580597 243.453153 244.479296
242.428571 241.121787 241.954180 242.732493 242.783623 243.662315 244.662898
242.571429 241.314861 242.166003 242.924698 242.983123 243.835093 244.884916
242.714286 241.495409 242.376099 243.122183 243.185291 244.012266 245.092886
242.857143 241.700567 242.597678 243.327703 243.402932 244.248329 245.311949
243.000000 241.928206 242.847642 243.519123 243.618253 244.449493 245.660412
243.142857 242.165021 243.050203 243.755816 243.855541 244.714564 245.808479
243.285714 242.407701 243.296097 243.981164 244.082799 244.978657 246.076495
243.428571 242.579291 243.491070 244.229879 244.309707 245.191528 246.364800
243.571429 242.810959 243.705999 244.480010 244.544139 245.454826 246.657063
243.714286 243.069556 243.890419 244.714373 244.782291 245.706499 246.883920
243.857143 243.326291 244.109223 244.935502 245.011696 245.948026 247.180655
244.000000 243.506284 244.326206 245.161410 245.239834 246.195080 247.419462
244.142857 243.741564 244.509920 245.391358 245.473328 246.461582 247.628999
244.285714 243.947595 244.716669 245.616394 245.699422 246.705798 247.943563
244.428571 244.207440 244.928197 245.821943 245.918655 246.913540 248.193891
244.571429 244.357475 245.138979 246.039779 246.143005 247.197440 248.452691
244.714286 244.619383 245.335126 246.269777 246.379332 247.483178 248.802571
244.857143 244.811055 245.597954 246.479151 246.619041 247.720016 249.068711
245.000000 245.019088 245.776667 246.694988 246.848500 248.052087 249.386969
245.142857 245.185841 245.966867 246.891824 247.072182 248.303308 249.795819
245.285714 245.392271 246.153489 247.110985 247.288173 248.504564 250.080554
245.428571 245.519551 246.313552 247.308462 247.503082 248.769656 250.377658
245.571429 245.656836 246.515900 247.490975 247.724560 249.048610 250.690996
245.714286 245.782176 246.698299 247.693240 247.935061 249.243629 251.152646
245.857143 245.925346 246.873615 247.887706 248.138574 249.523639 251.467015
246.000000 246.071286 247.066621 248.069653 248.347287 249.791899 251.780485
246.142857 246.227771 247.248420 248.269534 248.550386 250.000490 251.983193
246.285714 246.327091 247.416374 248.414545 248.738986 250.217589 252.230586
246.428571 246.498190 247.551051 248.574060 248.927286 250.481378 252.681396
246.571429 246.622679 247.699805 248.752000 249.110826 250.697187 252.970920
246.714286 246.731631 247.866860 248.935076 249.291175 250.891531 253.149933
