depth(m) lower_95(kyr) lower_68(kyr) median(kyr) mean(kyr) upper_68(kyr) upper_95(kyr)
0.000000 0.006557 0.077582 0.338240 0.487476 0.924992 1.646837
0.142857 0.073927 0.195476 0.472207 0.605515 1.055993 1.806137
0.285714 0.147744 0.290076 0.596216 0.719217 1.201281 1.934273
0.428571 0.209594 0.376129 0.693715 0.825523 1.310687 2.051138
0.571429 0.276345 0.461882 0.803301 0.930725 1.430101 2.141315
0.714286 0.342791 0.549889 0.901580 1.029638 1.540345 2.245332
0.857143 0.416076 0.636506 1.002593 1.127507 1.666371 2.400418
1.000000 0.488554 0.724335 1.099006 1.226893 1.779458 2.547023
1.142857 0.537497 0.814174 1.206069 1.325774 1.892049 2.704554
1.285714 0.606620 0.895400 1.300415 1.424883 1.992396 2.838959
1.428571 0.679743 0.990366 1.389935 1.520627 2.112491 2.955590
1.571429 0.751425 1.071796 1.478769 1.615141 2.233468 3.045361
1.714286 0.816511 1.159156 1.571104 1.711261 2.361282 3.190751
1.857143 0.900145 1.247786 1.652707 1.805932 2.470747 3.322195
2.000000 0.973150 1.336275 1.739925 1.897246 2.580135 3.459004
2.142857 1.020829 1.416282 1.826947 1.992942 2.667436 3.572244
2.285714 1.110882 1.505430 1.923465 2.089664 2.773410 3.713457
2.428571 1.182428 1.590866 2.017419 2.187387 2.883228 3.874879
2.571429 1.273099 1.669930 2.126490 2.288648 2.985264 3.988369
2.714286 1.348414 1.752443 2.220395 2.387875 3.103302 4.122346
2.857143 1.416130 1.843343 2.319037 2.485955 3.192552 4.239851
3.000000 1.507683 1.931834 2.409704 2.582761 3.303471 4.400676
3.142857 1.600946 2.022680 2.507732 2.679636 3.441748 4.517689
3.285714 1.676667 2.113399 2.586008 2.780882 3.555243 4.641267
3.428571 1.747880 2.188557 2.705600 2.881816 3.667856 4.762959
3.571429 1.823186 2.275597 2.814199 2.986392 3.796655 4.879724
3.714286 1.913662 2.353079 2.929427 3.086426 3.901371 5.002237
3.857143 1.983350 2.435899 3.031953 3.187772 3.988257 5.136641
4.000000 2.055227 2.534841 3.142931 3.292227 4.091398 5.254897
4.142857 2.155423 2.617370 3.245296 3.394421 4.205065 5.360844
4.285714 2.240995 2.700013 3.365390 3.502897 4.319213 5.515197
4.428571 2.320645 2.787530 3.481100 3.608765 4.416617 5.699071
4.571429 2.425856 2.876316 3.586699 3.715874 4.527075 5.774983
4.714286 2.487433 2.962350 3.721272 3.827958 4.645722 5.941584
4.857143 2.561395 3.064931 3.864319 3.943407 4.769342 6.070019
5.000000 2.648908 3.168651 3.975532 4.059830 4.904124 6.197204
5.142857 2.747175 3.256782 4.096316 4.170570 5.051793 6.308811
5.285714 2.841223 3.360518 4.198094 4.284728 5.174152 6.427350
5.428571 2.911990 3.448135 4.349021 4.404551 5.298846 6.571552
5.571429 3.019117 3.555367 4.483634 4.521535 5.429140 6.709531
5.714286 3.079181 3.661329 4.586805 4.639945 5.552631 6.800206
5.857143 3.187982 3.786531 4.685834 4.759601 5.704767 6.933194
6.000000 3.265693 3.893873 4.807783 4.880246 5.841804 7.055470
6.142857 3.357526 4.013041 4.939706 5.004397 5.964090 7.173393
6.285714 3.451452 4.115072 5.089951 5.134954 6.098362 7.262167
6.428571 3.567079 4.247925 5.217032 5.263522 6.219755 7.424072
6.571429 3.679920 4.370184 5.358365 5.391598 6.337344 7.528551
6.714286 3.794392 4.479470 5.512964 5.523360 6.485343 7.629697
6.857143 3.928696 4.604826 5.642010 5.648170 6.609603 7.847702
7.000000 4.012525 4.723448 5.808105 5.777231 6.742029 7.957860
7.142857 4.173244 4.824804 5.920558 5.906676 6.875431 8.064599
7.285714 4.286971 4.947043 6.068420 6.042171 7.061032 8.162990
7.428571 4.393815 5.074279 6.210507 6.182810 7.229727 8.228846
7.571429 4.483661 5.198282 6.334730 6.323572 7.427732 8.357782
7.714286 4.627255 5.327611 6.469045 6.466771 7.566719 8.472441
7.857143 4.751456 5.470016 6.635324 6.602644 7.742281 8.631689
8.000000 4.864661 5.607574 6.758412 6.739173 7.890885 8.759336
8.142857 4.986529 5.756645 6.891639 6.883979 8.045604 8.885121
8.285714 5.094797 5.883273 7.024878 7.024832 8.184373 9.015601
8.428571 5.221941 6.054713 7.153448 7.167304 8.316638 9.128865
8.571429 5.399511 6.198859 7.296284 7.309658 8.480346 9.296321
8.714286 5.465996 6.339546 7.467423 7.454173 8.617981 9.416691
8.857143 5.586203 6.508845 7.593109 7.595423 8.710614 9.536086
9.000000 5.714807 6.658608 7.724119 7.744970 8.867137 9.648402
9.142857 5.788511 6.794704 7.882448 7.893532 9.009465 9.840707
9.285714 5.959123 6.972814 8.075996 8.057776 9.164405 9.983247
9.428571 6.131590 7.138145 8.250632 8.210090 9.300424 10.162753
9.571429 6.318891 7.272574 8.393973 8.365831 9.433688 10.327224
9.714286 6.523283 7.422725 8.550487 8.527737 9.570238 10.470938
9.857143 6.742310 7.611183 8.732205 8.697999 9.717900 10.614889
10.000000 6.967844 7.799627 8.911140 8.870193 9.880702 10.757573
10.142857 7.149781 8.020071 9.117237 9.052969 10.030420 10.877765
10.285714 7.358549 8.228217 9.285466 9.239570 10.174161 11.026614
10.428571 7.612412 8.453483 9.488798 9.428776 10.327638 11.202898
10.571429 7.844477 8.674575 9.645000 9.612129 10.487080 11.343576
10.714286 8.101049 8.903040 9.845846 9.795265 10.626531 11.438900
10.857143 8.294165 9.142327 10.039546 9.993586 10.828674 11.617430
11.000000 8.477864 9.396773 10.222650 10.191357 10.997319 11.730123
11.142857 8.670464 9.627914 10.426256 10.393322 11.180743 11.886241
11.285714 8.956677 9.823878 10.629527 10.599881 11.333768 12.112877
11.428571 9.179392 10.061689 10.821934 10.803449 11.527128 12.278797
11.571429 9.386373 10.287134 11.001258 11.005785 11.725787 12.456730
11.714286 9.619928 10.512770 11.200107 11.219629 11.954626 12.691138
11.857143 9.916249 10.732206 11.447504 11.427372 12.153252 12.898538
12.000000 10.181338 10.930736 11.634750 11.631551 12.331742 13.158341
12.142857 10.398326 11.127673 11.844167 11.836711 12.525528 13.346684
12.285714 10.621823 11.346303 12.045107 12.036614 12.718754 13.551080
12.428571 10.808043 11.544070 12.253013 12.229345 12.893857 13.691766
12.571429 10.996735 11.730503 12.427028 12.420598 13.098727 13.914823
12.714286 11.147436 11.947473 12.603492 12.612544 13.285344 14.040335
12.857143 11.424793 12.116125 12.796259 12.808999 13.500818 14.223256
13.000000 11.624752 12.307709 12.996172 13.002207 13.682848 14.440690
13.142857 11.785190 12.509998 13.181875 13.196206 13.928157 14.627297
13.285714 11.985133 12.672340 13.382851 13.389482 14.153607 14.831367
13.428571 12.142599 12.866436 13.603576 13.587537 14.356736 14.985168
13.571429 12.335355 13.029726 13.787074 13.780124 14.546160 15.261748
13.714286 12.535350 13.184624 13.980430 13.972206 14.758950 15.462489
13.857143 12.637260 13.370063 14.176020 14.165471 14.933785 15.590083
14.000000 12.893243 13.581537 14.392156 14.357760 15.115331 15.819077
14.142857 13.071575 13.787430 14.570175 14.551722 15.285042 16.019075
14.285714 13.225402 13.972099 14.755774 14.745520 15.510046 16.161219
14.428571 13.485627 14.164325 14.940251 14.939103 15.706897 16.377756
14.571429 13.708459 14.374609 15.153079 15.137045 15.886467 16.594465
14.714286 13.884863 14.558729 15.356751 15.330060 16.046562 16.767636
14.857143 13.986656 14.773604 15.526861 15.509906 16.219789 17.004683
15.000000 14.222889 14.973417 15.701781 15.693589 16.430200 17.110140
15.142857 14.400614 15.179446 15.914973 15.886817 16.640541 17.306549
15.285714 14.565874 15.342404 16.089177 16.082370 16.882665 17.525682
15.428571 14.796777 15.499604 16.273597 16.272395 17.048345 17.686750
15.571429 14.963280 15.678469 16.483449 16.463733 17.259827 17.966606
15.714286 15.172547 15.842485 16.655827 16.649347 17.440955 18.097888
15.857143 15.314437 16.045021 16.805817 16.831951 17.606013 18.301818
16.000000 15.473237 16.200268 17.012482 17.013045 17.798357 18.444228
16.142857 15.659010 16.408690 17.142303 17.183656 17.981342 18.659849
16.285714 15.839359 16.548860 17.321748 17.360345 18.171749 18.886014
16.428571 15.981143 16.726019 17.482477 17.523807 18.342528 19.087304
16.571429 16.092406 16.900069 17.672638 17.686059 18.472499 19.367818
16.714286 16.253543 17.068499 17.829114 17.854908 18.619602 19.554918
16.857143 16.391638 17.228074 17.981677 18.019437 18.758380 19.741932
17.000000 16.487861 17.406236 18.151418 18.188502 18.982746 19.916813
17.142857 16.681815 17.560478 18.289709 18.347128 19.156647 20.038792
17.285714 16.839189 17.694659 18.464900 18.496530 19.308978 20.205659
17.428571 16.984915 17.838739 18.612246 18.644764 19.498068 20.321309
17.571429 17.120181 17.999846 18.769306 18.799245 19.666318 20.552643
17.714286 17.213468 18.159980 18.916857 18.944565 19.760286 20.664684
17.857143 17.389885 18.278898 19.067531 19.086933 19.944754 20.864985
18.000000 17.508497 18.404980 19.205728 19.233594 20.109683 21.040723
18.142857 17.677185 18.551375 19.316535 19.369144 20.252375 21.140561
18.285714 17.778220 18.679855 19.437176 19.501341 20.396558 21.314718
18.428571 17.964845 18.798428 19.553746 19.637968 20.529374 21.512163
18.571429 18.065697 18.914299 19.695653 19.777196 20.694149 21.671179
18.714286 18.150726 19.041266 19.813770 19.903645 20.874456 21.830639
18.857143 18.266301 19.163242 19.944054 20.035371 21.019875 21.953078
19.000000 18.421245 19.258626 20.068285 20.166101 21.154635 22.082756
19.142857 18.524007 19.362656 20.204754 20.298054 21.280690 22.181940
19.285714 18.615946 19.486239 20.336539 20.432443 21.424989 22.293082
19.428571 18.764603 19.613801 20.463263 20.564594 21.553217 22.460906
19.571429 18.870677 19.732677 20.590799 20.690207 21.695625 22.616025
19.714286 18.964335 19.854473 20.737603 20.820441 21.814666 22.753898
19.857143 19.067324 19.984550 20.860669 20.946016 21.934310 22.897419
20.000000 19.190121 20.117178 20.985730 21.070524 22.067293 23.112555
20.142857 19.335532 20.220811 21.127147 21.199833 22.191439 23.281203
20.285714 19.439614 20.358147 21.242663 21.330897 22.360613 23.393806
20.428571 19.553414 20.473827 21.402490 21.456870 22.509158 23.523386
20.571429 19.668066 20.583809 21.522156 21.585668 22.636220 23.618738
20.714286 19.757840 20.709113 21.657209 21.717773 22.788259 23.797008
20.857143 19.830812 20.816978 21.799346 21.843016 22.952690 23.989168
21.000000 19.947331 20.939758 21.926708 21.972882 23.089837 24.161007
21.142857 20.066307 21.055151 22.036877 22.099563 23.203094 24.354390
21.285714 20.157882 21.155078 22.187583 22.229762 23.345767 24.539072
21.428571 20.245098 21.269888 22.323963 22.360094 23.469411 24.679603
21.571429 20.340011 21.374867 22.441622 22.489047 23.636501 24.834224
21.714286 20.424072 21.504846 22.565083 22.615818 23.789576 25.001505
21.857143 20.615598 21.634206 22.677847 22.739056 23.907346 25.095733
22.000000 20.746273 21.726091 22.813174 22.870429 24.055362 25.312441
22.142857 20.876017 21.842204 22.953670 23.004078 24.217053 25.548955
22.285714 21.011838 21.955449 23.102025 23.137801 24.351202 25.685227
22.428571 21.097235 22.062007 23.233025 23.266317 24.493668 25.802580
22.571429 21.260280 22.187510 23.354157 23.400511 24.620879 25.989787
22.714286 21.426323 22.305949 23.463191 23.528190 24.751537 26.124090
22.857143 21.566387 22.433501 23.573128 23.656226 24.883696 26.258920
23.000000 21.730802 22.550778 23.714758 23.787304 24.996696 26.463511
23.142857 21.841555 22.671839 23.814437 23.914721 25.117810 26.667810
23.285714 22.001737 22.802394 23.953903 24.044942 25.255823 26.790926
23.428571 22.137234 22.916729 24.107131 24.177289 25.438070 26.880042
23.571429 22.259627 23.015503 24.245514 24.310434 25.570131 27.064442
23.714286 22.384830 23.123643 24.376005 24.444547 25.696435 27.147059
23.857143 22.500778 23.264070 24.527960 24.584635 25.860998 27.308593
24.000000 22.632794 23.408695 24.674995 24.719017 25.974517 27.418756
24.142857 22.751032 23.540353 24.791294 24.851628 26.125499 27.565782
24.285714 22.923135 23.660563 24.932410 24.988123 26.303429 27.694979
24.428571 23.057298 23.814147 25.073890 25.123368 26.442325 27.808800
24.571429 23.143416 23.938382 25.220074 25.253767 26.558045 27.956224
24.714286 23.249314 24.060729 25.340620 25.383873 26.682361 28.081914
24.857143 23.388485 24.187227 25.472426 25.515419 26.835070 28.206929
25.000000 23.556535 24.323110 25.603942 25.655726 26.930619 28.316366
25.142857 23.633694 24.436135 25.763417 25.797076 27.139347 28.469732
25.285714 23.717090 24.558344 25.897804 25.939425 27.315148 28.595801
25.428571 23.853594 24.661805 26.015186 26.071909 27.462304 28.736681
25.571429 23.933635 24.772119 26.148648 26.206408 27.608036 28.858733
25.714286 24.014816 24.876367 26.257251 26.337143 27.765453 29.021466
25.857143 24.128763 24.977308 26.391913 26.466655 27.887207 29.151540
26.000000 24.260577 25.066870 26.515328 26.594491 28.037389 29.205601
26.142857 24.377189 25.180035 26.636137 26.723206 28.169226 29.422879
26.285714 24.517893 25.284862 26.723331 26.843419 28.305681 29.561619
26.428571 24.601863 25.414023 26.848440 26.963911 28.448402 29.670878
26.571429 24.675707 25.513573 26.968991 27.091057 28.603007 29.801389
26.714286 24.772038 25.666477 27.085410 27.211177 28.728325 29.988437
26.857143 24.889387 25.780965 27.212217 27.329054 28.870649 30.222000
27.000000 24.984201 25.918258 27.323318 27.449107 28.960594 30.367447
27.142857 25.091866 26.055124 27.450799 27.568776 29.060818 30.455240
27.285714 25.260168 26.205090 27.563708 27.690390 29.176564 30.490054
27.428571 25.361753 26.321921 27.662753 27.813387 29.285965 30.711820
27.571429 25.482261 26.444156 27.777953 27.935299 29.461225 30.809850
27.714286 25.570118 26.550917 27.903667 28.051865 29.568190 30.915015
27.857143 25.664974 26.634775 28.020147 28.167117 29.676302 31.005726
28.000000 25.787608 26.776619 28.130439 28.286724 29.781299 31.075512
28.142857 25.922760 26.886887 28.276360 28.407092 29.898021 31.192797
28.285714 26.003754 27.004512 28.417652 28.533859 30.008743 31.307017
28.428571 26.100703 27.166102 28.567390 28.662752 30.138997 31.501606
28.571429 26.200251 27.269870 28.676391 28.789564 30.248859 31.628273
28.714286 26.283074 27.395562 28.811265 28.915202 30.396909 31.764826
28.857143 26.393869 27.518968 28.939399 29.042904 30.531200 31.833696
29.000000 26.474551 27.674693 29.090265 29.170585 30.651960 31.968669
29.142857 26.548700 27.775138 29.217676 29.298125 30.793015 32.193983
29.285714 26.672519 27.900691 29.375088 29.430077 30.940311 32.308361
29.428571 26.768299 28.015041 29.502433 29.556536 31.076822 32.450713
29.571429 26.841704 28.141633 29.644309 29.682040 31.180144 32.660226
29.714286 26.956211 28.278072 29.783443 29.816615 31.322738 32.717082
29.857143 27.040182 28.376384 29.904532 29.943750 31.440720 32.979169
30.000000 27.135347 28.513773 30.022727 30.072081 31.572098 33.139128
30.142857 27.210080 28.629485 30.151548 30.198996 31.699267 33.255363
30.285714 27.320540 28.756837 30.300513 30.325441 31.817454 33.477137
30.428571 27.419232 28.871882 30.426538 30.455250 31.931374 33.733752
30.571429 27.515673 29.001576 30.556669 30.579792 32.051451 33.861013
30.714286 27.605282 29.135625 30.666989 30.703453 32.191549 34.016530
30.857143 27.683318 29.236808 30.809196 30.827628 32.319672 34.187225
31.000000 27.775249 29.347659 30.939330 30.949419 32.457973 34.329604
31.142857 27.893065 29.451273 31.038030 31.069884 32.632685 34.448889
31.285714 27.992497 29.573750 31.165105 31.190855 32.739456 34.644499
31.428571 28.092148 29.693604 31.325990 31.313854 32.893023 34.793288
31.571429 28.177072 29.762284 31.431937 31.437016 33.023552 35.088995
31.714286 28.267118 29.872854 31.572517 31.559772 33.134537 35.296200
31.857143 28.369340 29.998333 31.690992 31.681716 33.267316 35.573982
32.000000 28.557525 30.139209 31.815696 31.807811 33.423610 35.845816
32.142857 28.690953 30.217116 31.953583 31.930454 33.564431 35.970429
32.285714 28.904370 30.317070 32.085499 32.057656 33.714201 36.127649
32.428571 29.010074 30.451217 32.216006 32.183434 33.855887 36.307150
32.571429 29.088592 30.537760 32.335777 32.305693 33.953444 36.447304
32.714286 29.192234 30.639110 32.443955 32.425237 34.102655 36.617004
32.857143 29.354037 30.758214 32.540610 32.547095 34.239673 36.717873
33.000000 29.472094 30.862129 32.647574 32.671433 34.373143 36.821485
33.142857 29.530178 30.990651 32.770613 32.791280 34.509376 36.941352
33.285714 29.613210 31.079745 32.893243 32.915722 34.633209 37.392932
33.428571 29.815422 31.187573 32.992847 33.040042 34.769621 37.521481
33.571429 29.939320 31.285206 33.098658 33.162415 34.940912 37.743547
33.714286 30.040362 31.398418 33.195966 33.282822 35.052298 37.892778
33.857143 30.201652 31.485254 33.318672 33.407863 35.186481 38.076681
34.000000 30.315341 31.595708 33.422055 33.536804 35.307311 38.307202
34.142857 30.417160 31.707852 33.534110 33.665854 35.445720 38.476977
34.285714 30.549491 31.821908 33.624476 33.789462 35.601468 38.735430
34.428571 30.656668 31.938141 33.736474 33.910451 35.718668 38.890933
34.571429 30.743195 32.060044 33.851223 34.033303 35.874406 39.047705
34.714286 30.884070 32.176743 33.989053 34.163629 35.976566 39.228263
34.857143 31.004537 32.335194 34.137798 34.288692 36.144176 39.370331
35.000000 31.113523 32.476136 34.279686 34.416379 36.249969 39.526573
35.142857 31.240320 32.628211 34.426578 34.547409 36.424683 39.701284
35.285714 31.330826 32.790826 34.538349 34.677065 36.527836 39.788442
35.428571 31.400431 32.886033 34.647021 34.805133 36.632399 39.954245
35.571429 31.505626 33.001128 34.739444 34.936500 36.747561 40.104372
35.714286 31.632771 33.158649 34.830448 35.067925 36.900696 40.178227
35.857143 31.720838 33.326431 34.915421 35.191385 36.997770 40.340063
36.000000 31.800505 33.430289 35.017139 35.315434 37.126171 40.435028
36.142857 31.872550 33.548059 35.103927 35.441120 37.243398 40.555079
36.285714 31.972499 33.688445 35.191674 35.566674 37.376397 40.755761
36.428571 32.065390 33.826177 35.291392 35.693971 37.507322 40.843839
36.571429 32.222451 33.960078 35.387992 35.821099 37.641966 40.963771
36.714286 32.316805 34.121205 35.505476 35.951648 37.787641 41.161120
36.857143 32.414759 34.255992 35.600083 36.081131 37.960271 41.341223
37.000000 32.501395 34.367056 35.703291 36.205436 38.124881 41.586976
37.142857 32.577368 34.519365 35.818554 36.332130 38.285698 41.737140
37.285714 32.678656 34.649537 35.932610 36.456004 38.415987 41.900268
37.428571 32.778516 34.755008 36.040999 36.576502 38.543984 41.997313
37.571429 32.844452 34.870928 36.152473 36.702539 38.735338 42.146588
37.714286 32.939109 34.999675 36.278816 36.824590 38.840248 42.290064
37.857143 33.041412 35.130839 36.399076 36.946903 38.952433 42.480090
38.000000 33.130222 35.244777 36.512512 37.068728 39.109297 42.657257
38.142857 33.225717 35.391619 36.620503 37.189330 39.213456 42.838246
38.285714 33.285253 35.502261 36.752518 37.307376 39.385956 42.956321
38.428571 33.337963 35.612914 36.930876 37.424630 39.539518 43.060289
38.571429 33.431184 35.720933 37.076464 37.548154 39.730125 43.142269
38.714286 33.508171 35.807679 37.258330 37.672539 39.844264 43.290363
38.857143 33.598245 35.909455 37.396107 37.792971 39.971677 43.458793
39.000000 33.661868 36.012176 37.585689 37.909761 40.111233 43.593203
39.142857 33.756594 36.118331 37.703237 38.026359 40.288604 43.678329
39.285714 33.870197 36.231101 37.808606 38.152747 40.444683 43.783931
39.428571 33.943833 36.327563 37.983794 38.279173 40.551137 43.937050
39.571429 34.035236 36.430620 38.095025 38.406229 40.771061 43.998671
39.714286 34.115956 36.524593 38.249681 38.530221 40.877262 44.144942
39.857143 34.203155 36.643824 38.403125 38.652247 40.981753 44.221103
40.000000 34.338991 36.758174 38.533013 38.778685 41.174867 44.316712
40.142857 34.404805 36.856870 38.662337 38.904676 41.312158 44.435056
40.285714 34.480902 36.971580 38.759201 39.031221 41.415270 44.502182
40.428571 34.561596 37.078043 38.881083 39.160835 41.579518 44.730738
40.571429 34.697154 37.188457 39.003643 39.291203 41.758099 44.833061
40.714286 34.804400 37.319241 39.117201 39.421368 41.900519 44.914930
40.857143 34.887262 37.403888 39.264260 39.549772 42.053841 45.012267
41.000000 34.981227 37.536827 39.404869 39.677405 42.220230 45.131245
41.142857 35.121051 37.650054 39.533466 39.810522 42.482495 45.237954
41.285714 35.225493 37.753781 39.653274 39.942538 42.614121 45.401143
41.428571 35.372093 37.909643 39.767082 40.073147 42.749320 45.520206
