depth(m) lower_95(kyr) lower_68(kyr) median(kyr) mean(kyr) upper_68(kyr) upper_95(kyr)
103.930000 3693.636198 3723.384453 3740.345239 3743.086631 3766.358130 3798.338446
104.053333 3697.164925 3726.933437 3743.530290 3746.808690 3769.821466 3802.527570
104.176667 3703.518017 3731.095269 3747.020735 3750.658180 3773.173985 3806.108360
104.300000 3707.504805 3735.309702 3750.371019 3754.504612 3776.106122 3809.788657
104.435000 3711.332331 3740.548603 3754.096612 3758.514339 3779.613210 3812.868637
104.570000 3715.887966 3745.554657 3757.768607 3762.500523 3782.700136 3818.483876
104.645000 3718.790884 3748.065059 3759.719698 3764.788464 3784.433743 3820.914554
104.720000 3721.789643 3750.538327 3762.086584 3767.150008 3786.495174 3822.857854
104.830000 3724.647873 3754.310827 3766.515254 3770.753112 3789.020462 3825.786972
104.940000 3730.477313 3758.001960 3770.765449 3774.449338 3791.657432 3829.802237
105.080000 3734.834678 3762.798932 3775.428556 3779.131864 3795.181915 3833.496780
105.180000 3738.520862 3765.543524 3779.477329 3782.383978 3797.401328 3836.294979
105.280000 3743.265776 3768.133141 3782.964228 3785.570468 3799.981639 3839.679972
105.395000 3747.101211 3771.657762 3787.296912 3789.342976 3802.446249 3843.578236
105.510000 3753.162310 3775.455497 3791.777915 3793.023506 3805.218557 3847.014834
105.595000 3756.215456 3778.181279 3794.879339 3795.682281 3807.500755 3849.173081
105.680000 3758.905295 3781.440358 3797.908059 3798.318812 3809.178145 3851.190442
105.820000 3766.173628 3786.196997 3802.311703 3802.675173 3813.137117 3853.803032
105.950000 3770.252635 3791.657857 3805.978938 3806.663228 3816.263991 3857.015472
106.090000 3775.008617 3797.148053 3809.836947 3810.930156 3820.107221 3860.929904
106.170000 3777.313874 3799.768748 3812.334969 3813.473317 3822.577714 3863.903966
106.250000 3781.027688 3802.853111 3814.690534 3815.880563 3824.831678 3867.183819
106.325000 3783.209447 3805.646700 3816.960697 3818.290528 3827.617086 3869.550307
106.400000 3784.789471 3808.876973 3819.264417 3820.737059 3829.808480 3871.106147
106.540000 3791.221467 3814.346736 3823.745161 3825.495145 3834.182020 3875.289130
106.670000 3796.002193 3818.770050 3828.018566 3829.940885 3838.551611 3878.783815
106.780000 3800.162115 3822.684405 3831.775152 3833.854414 3842.193881 3882.537180
106.890000 3804.702056 3827.076277 3836.024196 3837.723234 3846.667925 3885.508410
107.020000 3811.321533 3831.778985 3840.929202 3842.344168 3850.665749 3888.581900
107.105000 3814.668613 3834.634957 3843.620962 3845.218039 3853.187354 3890.809606
107.190000 3817.645888 3837.727713 3846.436220 3848.182703 3855.973619 3893.275641
107.290000 3822.871684 3841.441329 3849.954167 3851.596059 3859.231900 3895.536795
107.390000 3826.749255 3845.189472 3853.375784 3854.994986 3862.589709 3897.713937
107.490000 3828.589914 3849.008292 3856.776411 3858.574742 3866.439237 3901.433537
107.590000 3831.451116 3852.491669 3860.679552 3862.327578 3870.065135 3904.130241
107.670000 3833.211874 3855.785877 3864.239347 3865.450548 3873.758300 3906.194730
107.750000 3835.311716 3858.686094 3867.296212 3868.507061 3876.675078 3908.085217
107.890000 3838.877345 3865.918246 3873.499153 3874.476400 3881.979134 3912.926597
108.000000 3841.937227 3870.731790 3878.326141 3879.037169 3886.796787 3915.744982
108.110000 3845.185481 3875.418430 3882.926749 3883.362166 3891.341344 3918.526920
108.220000 3847.732151 3879.995653 3886.858772 3887.602364 3895.919501 3921.311807
108.350000 3852.633826 3884.452144 3891.413417 3892.188463 3901.199890 3924.513029
108.480000 3859.162636 3888.615415 3895.650502 3896.651415 3906.307123 3927.959173
108.555000 3862.132192 3890.857585 3898.248541 3899.072190 3908.879249 3929.532528
108.630000 3865.184861 3892.995913 3900.863095 3901.530666 3911.284404 3931.542226
108.710000 3866.977504 3895.410321 3903.624096 3904.155573 3914.025754 3934.360641
108.790000 3869.146495 3897.581661 3906.896898 3906.879299 3916.358576 3936.548203
108.880000 3872.219305 3900.281034 3910.409589 3910.103358 3919.824575 3938.968775
108.970000 3874.796939 3902.906739 3913.951108 3913.295715 3922.986707 3941.393514
109.060000 3878.477537 3906.128044 3917.253018 3916.701381 3926.398502 3943.813836
109.150000 3882.230379 3909.593614 3920.832131 3920.080868 3930.008518 3946.408304
109.235000 3885.587419 3912.818031 3924.425312 3923.305099 3933.768772 3948.356229
109.320000 3890.406837 3916.453749 3927.839360 3926.532204 3937.097171 3950.298589
109.400000 3893.456948 3918.857600 3930.516394 3929.341808 3940.352454 3952.336207
109.480000 3896.015088 3922.086421 3933.396522 3932.276388 3943.983760 3954.002236
109.620000 3899.625088 3927.300060 3938.827652 3937.544534 3950.357190 3957.822117
109.695000 3902.757558 3929.664099 3941.463050 3940.069627 3952.497658 3959.801556
109.770000 3906.720224 3931.736309 3943.937580 3942.473731 3954.872293 3961.571985
109.910000 3914.502847 3937.094059 3949.130298 3947.189311 3958.879428 3965.029359
110.050000 3920.720331 3942.176345 3954.400953 3951.833420 3962.454144 3968.957367
110.190000 3924.304236 3946.936512 3958.907230 3956.301963 3966.075186 3974.042851
110.265000 3926.423506 3949.355216 3961.049257 3958.500291 3968.154310 3975.739014
110.340000 3929.256410 3951.558828 3963.379699 3960.670212 3969.988243 3977.956594
110.420000 3931.648595 3954.225572 3965.493766 3962.969601 3971.832372 3979.552051
110.500000 3934.939916 3957.304175 3967.483909 3965.223426 3973.671297 3981.303138
110.585000 3938.345790 3960.533783 3969.709621 3967.649147 3975.562163 3983.919415
110.670000 3942.610365 3963.321037 3971.516955 3969.994906 3977.491605 3987.080590
110.760000 3945.332718 3965.779078 3973.533138 3972.418958 3979.752892 3990.095125
110.850000 3947.805639 3968.571714 3975.506688 3974.745883 3982.081554 3993.314662
110.935000 3949.362320 3970.743258 3977.480953 3976.885286 3984.314939 3995.241621
111.020000 3952.045184 3972.783276 3979.337763 3978.913874 3986.360729 3996.893423
111.100000 3957.304359 3974.599338 3980.992656 3980.758636 3988.216403 3998.671590
111.180000 3959.014769 3976.586774 3982.628363 3982.615840 3990.221489 4000.597663
111.310000 3962.327499 3979.027566 3985.131819 3985.405204 3993.366638 4004.824544
111.440000 3965.960055 3981.958102 3987.763895 3988.225087 3996.312183 4008.396362
111.550000 3969.853444 3984.171168 3990.223757 3990.779421 3999.081287 4011.200838
111.670000 3974.004634 3986.782636 3992.953765 3993.729309 4002.180104 4013.955821
111.800000 3979.551357 3990.085316 3996.460583 3997.090201 4005.284684 4016.563049
111.880000 3981.721502 3991.859930 3998.569618 3999.057420 4007.478850 4018.393265
111.960000 3983.781354 3993.648708 4000.818199 4001.158967 4009.499466 4019.937386
112.045000 3986.711914 3995.916632 4003.729898 4003.464732 4011.610236 4021.308499
112.130000 3988.951388 3998.590055 4006.063735 4005.844686 4013.841110 4022.680422
112.210000 3991.930757 4000.686731 4008.417846 4008.087575 4015.683679 4024.547388
112.290000 3993.744105 4003.315557 4010.497148 4010.279607 4017.730524 4026.876648
112.430000 3998.963833 4007.242361 4014.149017 4014.033457 4021.144960 4030.745726
112.570000 4003.216237 4011.053274 4017.732938 4017.661360 4024.277254 4034.578375
112.686667 4007.109110 4014.144867 4020.762527 4020.615151 4026.919787 4037.557601
112.803333 4010.199842 4017.464405 4023.657027 4023.553623 4029.750439 4041.643863
112.920000 4013.645648 4020.263095 4026.491479 4026.481242 4032.673659 4044.913295
113.020000 4015.692273 4022.984489 4029.300915 4029.192039 4035.229978 4046.276792
113.120000 4018.335995 4025.944996 4032.136440 4031.936698 4038.146560 4048.383366
113.230000 4021.139458 4028.562270 4034.998634 4034.776124 4040.888464 4050.378907
113.330000 4023.528081 4031.399166 4037.921936 4037.479505 4043.468228 4052.121060
113.430000 4025.637718 4033.972906 4040.851135 4040.202169 4046.355751 4054.751335
113.530000 4027.338773 4036.329154 4043.646946 4043.051190 4049.654872 4057.417236
113.630000 4031.381477 4039.700627 4046.220562 4045.903891 4052.400791 4060.263663
113.730000 4034.056792 4043.032106 4049.423470 4049.089215 4055.725083 4063.938605
113.820000 4037.543590 4045.725013 4052.094661 4051.760308 4058.780611 4066.279168
113.920000 4040.679803 4048.519811 4055.151167 4054.651291 4061.255210 4068.716615
114.010000 4042.734650 4051.187190 4057.893243 4057.272659 4063.448642 4071.721725
114.090000 4044.596002 4053.082758 4060.267767 4059.529808 4065.726020 4073.625522
114.180000 4046.192534 4056.310882 4062.817430 4062.078858 4068.129131 4076.191632
114.260000 4047.789451 4058.361933 4065.161756 4064.216544 4070.231976 4078.384371
114.340000 4049.137283 4060.339831 4067.213240 4066.239213 4072.139875 4080.036978
114.420000 4050.638457 4062.580029 4069.362337 4068.333971 4074.245048 4082.536847
114.510000 4052.027744 4064.570446 4071.489019 4070.508905 4076.416612 4084.123346
114.640000 4054.104860 4067.959989 4074.421313 4073.553478 4079.759068 4086.362112
114.755000 4056.592758 4070.931563 4077.102780 4076.286359 4082.246385 4088.479724
114.870000 4058.938736 4073.943360 4079.527941 4078.999734 4085.025977 4091.635388
115.000000 4061.665550 4077.028405 4082.709686 4082.067729 4088.161821 4094.360122
115.130000 4064.438953 4080.088926 4085.741782 4085.096434 4090.997987 4097.758033
115.230000 4067.208335 4082.581549 4088.182750 4087.608865 4093.892607 4102.105827
115.330000 4069.474119 4084.562975 4090.628853 4090.134955 4096.584250 4105.846312
115.405000 4071.345328 4086.169154 4092.279376 4091.942770 4098.394444 4108.105356
115.480000 4073.908916 4087.793272 4094.071441 4093.743901 4100.240097 4110.396736
115.620000 4078.463741 4091.056415 4096.919476 4097.197393 4104.186526 4113.488073
115.700000 4080.483334 4093.112257 4098.752822 4099.248455 4106.710090 4115.391649
115.780000 4082.102843 4095.310504 4100.881326 4101.392044 4109.153835 4117.217009
115.910000 4086.039513 4098.212849 4103.626199 4104.516348 4113.027245 4119.497326
115.985000 4087.578212 4099.812294 4105.323475 4106.308684 4114.960893 4121.065468
116.060000 4089.776988 4101.486923 4106.710040 4108.031489 4117.248272 4122.619558
116.160000 4093.985697 4103.532753 4108.765853 4110.278010 4119.291201 4124.520624
116.260000 4096.814684 4105.598880 4110.888830 4112.429263 4121.365576 4126.451253
116.350000 4099.964252 4107.293458 4112.461732 4114.385758 4123.299661 4128.821825
116.440000 4101.867238 4109.247468 4114.506708 4116.358814 4125.413918 4130.930734
116.570000 4104.355745 4111.850013 4117.031233 4119.043447 4127.866013 4133.399196
116.700000 4107.203010 4114.394339 4119.954087 4121.798488 4130.189387 4136.092741
116.780000 4109.502070 4115.788796 4121.698330 4123.470983 4131.709553 4138.201906
116.860000 4111.020866 4117.345866 4123.854390 4125.220185 4133.357424 4139.563091
116.935000 4112.882958 4118.869900 4126.083840 4126.925187 4134.699721 4140.850093
117.010000 4114.805732 4120.312303 4128.062247 4128.616359 4136.107717 4142.292188
117.085000 4116.214137 4121.791997 4129.829216 4130.324212 4137.699698 4144.107224
117.160000 4118.264457 4123.535001 4131.683228 4132.055317 4139.210050 4145.790210
117.235000 4120.374371 4125.047918 4134.144340 4133.830957 4140.573730 4148.051234
117.310000 4122.300577 4126.918684 4136.064553 4135.559370 4142.112477 4149.848025
117.385000 4124.064093 4128.869035 4138.169285 4137.437884 4143.732580 4152.126626
117.460000 4125.636975 4130.805250 4140.108216 4139.329781 4145.336983 4156.342154
117.535000 4127.203270 4132.823658 4141.986943 4141.322433 4147.150919 4157.733285
117.610000 4129.145082 4135.121898 4143.975655 4143.327416 4149.241340 4160.400579
117.685000 4131.034056 4137.210453 4145.730291 4145.314087 4151.086637 4163.805429
117.760000 4133.048694 4139.111794 4147.663601 4147.418476 4152.830368 4166.743713
117.835000 4135.347890 4141.666282 4149.494546 4149.532424 4154.825154 4168.512570
117.910000 4137.197738 4144.107412 4151.416404 4151.698522 4156.702668 4173.846971
117.985000 4139.479630 4147.313257 4153.295919 4153.856180 4158.858008 4175.515699
118.060000 4142.772299 4149.860121 4155.429227 4156.077248 4160.675764 4177.552146
118.135000 4145.156570 4152.340369 4157.451660 4158.332594 4162.970342 4180.019459
118.210000 4148.248198 4154.571573 4159.937335 4160.660594 4165.262921 4183.099500
118.350000 4153.239730 4158.706115 4164.200925 4165.379952 4170.791979 4191.688599
118.407000 4154.877311 4160.324688 4166.059169 4167.265681 4173.122715 4194.075945
118.533500 4158.484250 4164.295797 4170.556269 4172.188909 4179.497167 4199.489313
118.660000 4162.596882 4168.434087 4175.680359 4177.241073 4186.260915 4201.904219
118.735000 4164.310237 4170.553693 4178.687510 4179.840814 4189.405251 4204.864008
118.810000 4165.929272 4172.351680 4181.237686 4182.211688 4192.044749 4206.994677
118.885000 4167.588464 4174.213189 4183.790133 4184.678304 4195.058003 4211.019654
118.960000 4168.926422 4176.002776 4186.104432 4187.147503 4198.269584 4212.849313
119.035000 4170.777596 4177.803853 4188.667044 4189.523581 4201.174518 4215.645292
119.110000 4172.696382 4179.979638 4191.140251 4192.054216 4203.966966 4218.047745
119.185000 4174.401511 4182.142026 4194.064688 4194.611047 4207.359272 4220.633910
119.260000 4176.146643 4184.445472 4196.145002 4196.983172 4209.283494 4222.882540
119.335000 4177.429937 4186.741200 4198.338066 4199.259435 4211.934281 4225.079873
119.410000 4178.616745 4189.090676 4200.426186 4201.474428 4214.444934 4227.502590
119.485000 4180.606412 4191.225335 4202.816824 4203.666365 4217.179913 4230.312901
119.560000 4182.164100 4193.500462 4205.328217 4205.949990 4219.385335 4232.768962
119.635000 4184.058231 4195.796483 4207.448011 4208.045793 4221.767087 4235.129471
119.710000 4185.490881 4197.944705 4209.870534 4210.200663 4224.483558 4238.812527
119.785000 4186.968505 4200.638064 4211.792566 4212.340389 4226.597815 4241.629280
119.860000 4188.647414 4202.754131 4213.578901 4214.499485 4228.514649 4243.909667
119.935000 4190.408979 4205.365616 4215.788515 4216.611065 4230.125838 4246.632243
120.010000 4192.433916 4207.989681 4217.660596 4218.679749 4232.578245 4248.495672
120.085000 4194.651695 4209.944248 4219.423818 4220.658345 4234.499730 4251.265421
120.160000 4196.347009 4211.961201 4221.031368 4222.485698 4235.889923 4253.872795
120.240000 4197.837334 4213.920609 4222.682047 4224.495594 4238.558305 4256.745684
120.320000 4199.701783 4215.820200 4224.348575 4226.476113 4240.994392 4260.237673
120.460000 4203.859995 4218.597340 4227.039951 4229.965865 4245.169660 4264.201168
120.535000 4205.763020 4220.376758 4228.540708 4231.776002 4246.758084 4266.600342
120.610000 4208.566334 4221.909811 4229.999967 4233.646378 4249.023503 4268.318500
120.685000 4210.018808 4223.684931 4231.425562 4235.524669 4251.449641 4270.830187
120.760000 4213.440358 4225.152591 4233.112263 4237.318884 4253.241529 4272.738779
120.835000 4214.792727 4226.749188 4234.776048 4239.131166 4255.688042 4275.240645
120.910000 4216.657650 4228.623363 4236.531279 4240.990637 4257.833258 4277.130530
120.985000 4219.173136 4230.130342 4238.655259 4242.936465 4259.404114 4278.980130
121.060000 4220.452741 4231.617556 4240.617247 4244.799349 4261.312791 4280.970384
121.140000 4222.114715 4233.471207 4242.776417 4246.902785 4264.058445 4282.781614
121.220000 4224.094091 4235.420817 4244.923756 4248.986729 4266.375813 4284.433185
121.360000 4226.924659 4238.502684 4249.121350 4252.704021 4271.144739 4289.963458
121.435000 4228.372649 4240.138407 4250.944099 4254.591151 4273.575202 4291.576697
121.510000 4230.225994 4241.407304 4252.884758 4256.355810 4275.206579 4293.891753
121.585000 4232.296649 4243.050864 4254.785580 4258.242899 4277.363237 4296.398573
121.660000 4234.673454 4244.690217 4257.019392 4260.082942 4279.128340 4298.275812
121.735000 4235.484117 4246.248427 4258.697045 4261.963284 4281.051106 4300.200557
121.810000 4236.672819 4247.787336 4260.939519 4263.905803 4283.459740 4301.851253
121.922500 4237.879214 4250.190188 4263.756073 4266.838915 4286.979400 4304.541723
122.035000 4240.537746 4252.464252 4267.286294 4269.752290 4290.043579 4308.283842
122.147500 4241.900460 4254.749842 4270.071243 4272.671641 4293.339604 4311.703428
122.260000 4244.356136 4256.900116 4273.241812 4275.571380 4297.128317 4314.793757
122.335000 4245.878606 4258.258861 4274.768336 4277.439032 4299.444761 4317.406314
122.410000 4247.675560 4259.599870 4276.562270 4279.293551 4301.639303 4319.018147
122.485000 4248.839372 4261.306123 4278.193017 4281.113181 4303.365257 4320.487613
122.560000 4250.419709 4262.814894 4279.823116 4282.975120 4305.514832 4322.399903
122.635000 4252.218151 4264.097061 4281.975302 4284.799273 4307.282219 4323.788415
122.710000 4253.389506 4265.958676 4284.070166 4286.706693 4309.265453 4325.906333
122.785000 4254.411321 4267.401500 4285.966202 4288.562632 4310.903191 4327.182540
122.860000 4255.720082 4269.650461 4287.952784 4290.407453 4312.616779 4328.391396
122.963333 4257.527840 4272.456468 4290.728708 4292.970397 4314.811101 4330.903533
123.066667 4259.747389 4274.490677 4293.477567 4295.438017 4317.743442 4333.134164
123.170000 4262.127853 4276.917191 4295.945319 4297.927756 4320.639755 4335.747991
123.300000 4265.068498 4280.793447 4299.192772 4301.072005 4323.505942 4338.339115
123.380000 4266.963943 4282.212380 4301.625442 4302.924409 4325.289214 4339.752348
123.460000 4269.036217 4284.102503 4303.674593 4304.765098 4327.043493 4341.231242
123.604643 4272.208094 4288.052073 4306.784403 4307.828935 4330.503625 4343.659603
123.749286 4275.365135 4290.754436 4309.794722 4310.802510 4333.450431 4347.162535
123.893929 4277.892906 4293.455862 4313.083476 4313.749852 4335.949422 4350.116618
124.038571 4280.387639 4296.183985 4316.169420 4316.712968 4338.618339 4352.983042
124.183214 4283.632206 4299.302664 4319.622448 4319.629624 4341.120419 4355.637089
124.327857 4286.895861 4302.214833 4323.231107 4322.550364 4344.068989 4358.141142
124.472500 4290.384613 4305.224072 4326.345230 4325.586835 4346.368351 4360.374991
124.617143 4292.135862 4307.892084 4329.260036 4328.502689 4348.701314 4362.266816
124.761786 4295.449915 4311.302603 4331.865530 4331.333142 4351.167518 4365.059601
124.906429 4297.466923 4314.225662 4334.940076 4334.034152 4353.714023 4367.111206
125.051071 4299.963201 4317.033161 4337.780919 4336.924765 4356.353237 4369.198165
125.195714 4302.369713 4319.779281 4340.955769 4339.875298 4359.017593 4372.573038
125.340357 4304.714962 4322.346013 4344.076339 4342.761199 4361.578896 4376.582193
125.485000 4306.765284 4324.850385 4347.156076 4345.694047 4364.129938 4379.796242
125.629643 4309.094406 4326.952048 4350.077487 4348.427603 4366.647531 4383.681254
125.774286 4310.457663 4329.332815 4353.015119 4351.277039 4369.409301 4388.612030
125.918929 4313.263232 4331.566760 4356.102432 4354.201917 4372.403976 4391.867597
126.063571 4315.326399 4334.123857 4359.017222 4357.058792 4375.076280 4394.699278
126.208214 4317.105836 4336.521259 4362.021192 4359.878824 4377.539889 4398.624910
126.352857 4319.141945 4339.579337 4365.186121 4362.650807 4379.892143 4402.479938
126.497500 4321.331833 4341.795889 4368.291155 4365.505788 4382.724728 4407.071253
126.642143 4323.654836 4344.395533 4371.335535 4368.456417 4384.831147 4412.715099
126.786786 4325.463856 4346.627532 4374.339016 4371.305653 4387.813924 4417.934762
126.931429 4327.574763 4348.713813 4377.373750 4374.143080 4390.970566 4421.200754
127.076071 4329.339893 4351.058732 4380.436134 4377.133935 4393.282837 4425.805072
127.220714 4331.319150 4353.270771 4382.825268 4380.011854 4396.361371 4430.524912
127.365357 4333.038689 4357.303268 4385.878868 4382.847592 4398.566151 4434.809285
127.510000 4335.579184 4360.751971 4388.641913 4385.863879 4401.226088 4438.410521
127.610000 4337.503168 4363.314689 4391.045507 4387.977260 4403.462253 4440.584347
127.710000 4339.892844 4365.957554 4392.986598 4390.098777 4406.284011 4443.353286
