depth(m) lower_95(kyr) lower_68(kyr) median(kyr) mean(kyr) upper_68(kyr) upper_95(kyr)
251.030000 3578.458662 3584.692065 3620.234931 3608.735374 3629.193427 3632.857734
251.080000 3580.071296 3585.757977 3621.346293 3609.828108 3630.197980 3633.986627
251.130000 3580.865858 3586.820917 3622.537577 3610.929854 3631.313404 3635.279453
251.180000 3582.000250 3587.824592 3623.788866 3612.017633 3632.292657 3636.219147
251.230000 3582.984192 3588.743178 3624.791415 3613.086043 3633.200371 3637.289868
251.280000 3584.040578 3589.740389 3625.837254 3614.182477 3634.157252 3638.858473
251.330000 3585.391507 3590.767810 3627.102144 3615.301294 3635.001401 3640.305806
251.380000 3586.250834 3591.827289 3628.152919 3616.437459 3635.838717 3641.316779
251.430000 3587.667989 3592.857632 3629.506868 3617.530988 3636.747089 3642.949083
251.480000 3589.087671 3593.895766 3630.805147 3618.586069 3637.580007 3644.316221
251.530000 3590.441171 3594.824471 3631.972220 3619.640299 3638.423974 3645.428425
251.580000 3592.460288 3595.976607 3633.247525 3620.736653 3639.420731 3646.338328
251.630000 3593.168185 3597.004197 3634.277451 3621.791639 3640.443727 3647.563191
251.730000 3594.896621 3598.806399 3636.263926 3623.829908 3642.441413 3649.592272
251.830000 3596.659244 3600.748893 3638.083559 3625.876689 3644.689823 3651.323708
251.880000 3597.596848 3601.676796 3639.124235 3626.912425 3645.747189 3652.151926
251.930000 3598.513954 3602.775454 3640.179106 3627.993798 3647.180292 3653.179728
251.980000 3599.411975 3603.854074 3641.042497 3629.034810 3648.248809 3654.207155
252.030000 3600.580858 3604.747407 3642.096772 3630.087894 3649.147401 3654.902247
252.080000 3601.679695 3605.981736 3643.033799 3631.145557 3650.258621 3655.871618
252.130000 3602.690528 3607.257265 3643.942773 3632.181766 3651.233497 3656.838170
252.180000 3603.841930 3608.316120 3644.838138 3633.204340 3652.284000 3657.926830
252.280000 3605.571775 3610.349053 3646.619158 3635.142157 3653.987777 3659.663887
252.380000 3607.227188 3612.985546 3648.267247 3637.157579 3656.261630 3661.459804
252.492500 3609.818607 3615.898759 3650.020546 3639.383152 3658.484937 3663.301218
252.605000 3612.045079 3618.578545 3651.817800 3641.531042 3660.638060 3665.576668
252.717500 3614.384170 3621.175453 3653.771102 3643.731354 3662.545611 3667.448108
252.830000 3617.006540 3623.187042 3655.766740 3645.913920 3664.488410 3669.423714
252.930000 3619.409033 3625.054602 3657.561482 3647.806245 3666.433788 3671.184138
252.980000 3620.507832 3626.262999 3658.560930 3648.787603 3667.263945 3672.029155
253.080000 3622.398427 3627.931185 3660.132312 3650.629185 3669.116564 3673.933370
253.180000 3624.558173 3629.542805 3661.745750 3652.476720 3670.984276 3676.008774
253.280000 3626.656905 3631.374781 3663.425110 3654.371812 3672.931794 3678.255887
253.380000 3628.269301 3633.329551 3664.973508 3656.403949 3675.035376 3680.177376
253.513333 3631.023867 3636.359498 3667.162873 3659.188472 3677.560674 3682.972328
253.646667 3633.509667 3638.866597 3669.362835 3661.907464 3679.948224 3686.161684
253.780000 3636.253076 3642.551701 3671.565359 3664.704242 3682.460833 3689.572520
253.913333 3638.446129 3645.698979 3673.529201 3667.378847 3685.305907 3693.500417
254.046667 3641.144873 3648.938375 3675.630228 3670.223367 3687.891906 3696.165553
254.180000 3643.052308 3652.400735 3678.188913 3673.050886 3690.376139 3699.298879
254.305000 3645.668468 3655.308519 3680.776512 3675.657614 3692.474415 3701.451299
254.430000 3648.606810 3657.775662 3683.101236 3678.226739 3694.575803 3703.966621
254.480000 3649.502885 3658.752183 3684.114270 3679.295069 3695.518045 3704.903992
254.530000 3650.424668 3659.757413 3685.309218 3680.394276 3696.438400 3705.900674
254.580000 3652.394611 3660.761742 3686.823815 3681.462472 3697.370551 3706.816102
254.655000 3654.597128 3662.789823 3689.563570 3683.188091 3698.847192 3708.573922
254.730000 3657.565050 3664.440903 3691.843164 3684.890181 3700.146048 3710.171682
254.830000 3660.824341 3666.586124 3695.221924 3687.088808 3702.323103 3712.157738
254.930000 3663.712322 3668.506276 3698.456649 3689.351025 3704.188669 3714.314476
254.980000 3665.046369 3669.432998 3699.684227 3690.448308 3705.313111 3715.275728
255.080000 3667.969813 3671.432641 3701.896143 3692.588360 3707.555495 3717.502286
255.180000 3670.460603 3673.579507 3703.801707 3694.804065 3710.092571 3719.354522
255.230000 3671.560661 3674.938184 3704.704710 3696.022559 3711.438463 3720.765928
255.280000 3672.756981 3676.508675 3705.643293 3697.319494 3712.672547 3722.277816
255.355000 3674.946525 3679.067039 3707.054869 3699.500979 3714.711389 3724.259320
255.430000 3677.451895 3681.747252 3708.574331 3701.729854 3716.350246 3726.682668
255.480000 3679.043016 3683.832378 3709.381338 3703.113229 3717.705042 3727.867569
255.530000 3680.320135 3685.194130 3710.271839 3704.430700 3718.940512 3729.104808
255.580000 3681.773227 3687.003170 3711.271207 3705.782867 3720.292249 3731.040329
255.655000 3683.950196 3689.709674 3712.533664 3707.909574 3722.101864 3732.705441
255.730000 3686.450132 3692.474353 3713.959615 3710.020219 3723.952082 3735.265130
255.805000 3688.195547 3694.770050 3715.446635 3712.037756 3725.790361 3737.395899
255.880000 3690.794813 3697.592233 3717.035689 3714.138359 3727.986935 3739.454164
255.930000 3692.438368 3698.810328 3718.114202 3715.417107 3728.994598 3740.575529
256.005000 3695.149866 3701.533101 3720.266909 3717.417603 3730.908024 3742.106696
256.080000 3697.622413 3703.955904 3722.121533 3719.413264 3732.808088 3743.430346
256.180000 3699.915659 3707.148359 3724.584443 3722.073197 3735.119707 3745.191698
256.230000 3701.146535 3708.686027 3725.839138 3723.397995 3736.589726 3746.470084
256.330000 3703.383316 3711.744324 3728.652412 3726.136484 3738.480314 3748.216500
256.430000 3705.699984 3714.722379 3731.744913 3728.896143 3740.397517 3749.724778
256.530000 3708.293819 3717.727105 3734.254467 3731.668153 3742.550271 3751.642064
256.630000 3710.289563 3720.528605 3736.551961 3734.366256 3744.638803 3753.535279
256.680000 3711.224857 3722.027595 3737.927107 3735.635613 3745.670563 3754.464724
256.780000 3713.861562 3724.299342 3740.421884 3738.179639 3747.790534 3756.623961
256.880000 3716.320872 3726.731035 3743.189751 3740.799782 3750.280143 3758.405454
256.980000 3717.707218 3728.800504 3746.297602 3743.442481 3752.547675 3760.616160
257.030000 3718.741894 3730.071090 3747.646369 3744.720821 3753.925126 3761.428966
257.080000 3719.959119 3731.329017 3748.941781 3745.983119 3755.482515 3762.873328
257.130000 3721.452135 3732.594181 3750.199636 3747.292034 3756.915270 3764.851426
257.205000 3723.897528 3734.022466 3752.130145 3749.324894 3758.694014 3766.489887
257.280000 3726.010153 3736.773346 3754.139399 3751.327722 3760.562378 3768.421212
257.330000 3727.182870 3738.584408 3755.323468 3752.693316 3761.892011 3770.111937
257.405000 3729.044646 3741.002847 3757.054433 3754.765294 3763.923577 3772.464755
257.480000 3730.663598 3743.070117 3758.991094 3756.769836 3766.072078 3775.590760
257.530000 3732.151112 3744.829487 3760.407479 3758.174351 3767.604688 3777.490894
257.605000 3734.600751 3746.812215 3762.292036 3760.166896 3769.633240 3779.725261
257.680000 3737.187560 3749.502665 3764.461379 3762.171593 3771.507233 3781.924480
257.755000 3738.675000 3751.323178 3766.330974 3764.204064 3773.595475 3783.770194
257.830000 3740.882526 3752.806680 3768.610327 3766.255807 3775.566387 3786.432480
257.930000 3743.253068 3755.019779 3771.590837 3768.853341 3778.444498 3788.860389
257.980000 3744.565985 3756.251639 3773.154798 3770.258212 3779.822587 3790.044659
258.030000 3746.017910 3757.921823 3774.511756 3771.615780 3781.176008 3791.127578
258.080000 3747.403052 3759.712155 3775.827961 3772.934842 3782.735780 3792.309059
258.130000 3748.561487 3761.729801 3777.215059 3774.242296 3783.823410 3793.224187
258.180000 3750.151266 3763.300048 3778.518310 3775.553742 3785.139726 3793.987922
258.280000 3753.415719 3766.269957 3780.684460 3778.251293 3788.031224 3795.808186
258.380000 3757.326933 3769.817036 3782.877897 3780.885401 3790.921801 3797.703592
258.430000 3758.858744 3771.121472 3784.005270 3782.183619 3792.337751 3798.819777
258.530000 3761.792052 3774.130548 3786.313179 3784.763286 3794.953784 3800.262825
258.580000 3763.122744 3775.460722 3787.570840 3786.081082 3796.379803 3801.531550
258.680000 3766.103489 3778.627603 3790.011795 3788.682620 3798.675108 3803.119201
258.780000 3769.131939 3781.855826 3792.435049 3791.334391 3800.907010 3804.831748
258.830000 3771.103864 3783.548336 3793.684207 3792.657283 3802.036532 3806.196311
258.905000 3773.692570 3785.487250 3795.748247 3794.617053 3803.759655 3807.866188
258.980000 3775.553315 3787.786326 3797.369064 3796.505250 3805.317426 3809.368734
259.030000 3776.470527 3789.033702 3798.667848 3797.783491 3806.361641 3810.472607
259.080000 3778.321387 3790.609407 3800.114954 3799.109809 3807.350576 3811.629192
259.180000 3783.243434 3793.904547 3802.689341 3801.863065 3809.627819 3813.706585
259.230000 3785.083734 3795.102185 3804.435882 3803.276314 3811.024136 3815.056382
259.305000 3787.176303 3797.697814 3807.843682 3805.509573 3812.964100 3816.854124
259.380000 3790.650532 3799.889382 3810.418210 3807.651437 3815.248762 3818.598351
259.410000 3792.019240 3800.628931 3811.356421 3808.532724 3816.082429 3819.352865
259.460000 3793.874587 3802.253634 3812.811436 3810.039153 3817.744364 3820.194663
259.490000 3794.648626 3803.355346 3813.780479 3810.963234 3818.735972 3820.928830
259.510000 3795.917791 3804.097179 3814.358020 3811.558478 3819.320450 3821.383982
259.540000 3796.915525 3805.366609 3815.444943 3812.501071 3820.332174 3821.965458
259.560000 3797.290032 3806.161401 3816.163897 3813.127118 3820.999370 3822.405405
259.590000 3798.195820 3807.089325 3817.370301 3814.067605 3821.761490 3823.129236
259.610000 3798.992424 3807.517462 3818.119032 3814.688100 3822.281306 3823.768517
259.640000 3799.856488 3808.315953 3819.370729 3815.631935 3823.083280 3824.388204
259.660000 3800.773852 3809.002101 3820.247022 3816.260979 3823.648512 3824.815826
259.690000 3801.637547 3809.910766 3821.486589 3817.195530 3824.430135 3825.525912
259.710000 3802.205334 3810.551329 3822.231859 3817.783197 3824.964396 3826.100824
259.740000 3803.443581 3811.228909 3823.229359 3818.601366 3825.764804 3826.894468
259.760000 3803.750018 3811.713807 3823.917710 3819.127581 3826.213521 3827.431815
259.790000 3804.285319 3812.465454 3824.840979 3819.884068 3826.881803 3828.223199
259.890000 3806.253635 3814.446638 3827.086382 3822.120707 3828.899759 3830.438391
259.910000 3807.255106 3814.874079 3827.575471 3822.596456 3829.363002 3831.040596
259.960000 3808.774156 3815.783613 3828.468947 3823.715108 3830.444451 3832.396466
260.090000 3811.677029 3818.182005 3830.617963 3826.306309 3833.020784 3835.199468
260.165000 3813.149134 3819.516037 3832.089033 3827.877222 3834.519079 3837.072094
260.240000 3815.147336 3821.081280 3833.352589 3829.453619 3836.061377 3838.652322
260.340000 3817.840542 3822.943392 3835.246059 3831.509272 3838.142688 3840.921478
260.390000 3818.830881 3823.946887 3836.302253 3832.611877 3839.354508 3842.332903
260.440000 3820.200128 3825.036361 3837.489356 3833.829363 3840.608928 3844.118739
260.490000 3822.145153 3826.083430 3838.577140 3835.054806 3841.951683 3845.387158
260.540000 3823.315365 3827.226681 3839.780381 3836.294994 3843.229600 3846.877697
260.590000 3824.482276 3828.402537 3840.787876 3837.503166 3844.379290 3848.137948
260.715000 3826.873231 3831.153408 3843.332343 3840.316244 3847.310346 3850.460419
260.840000 3829.327361 3834.093994 3845.755044 3843.086746 3850.017050 3853.207113
260.940000 3831.772197 3836.294609 3847.865009 3845.362270 3852.388325 3855.471762
261.040000 3834.072069 3838.727120 3849.977657 3847.681504 3854.512758 3857.305081
261.140000 3836.297384 3841.146835 3852.195078 3850.021976 3856.696641 3859.493309
261.190000 3837.599174 3842.640345 3853.346489 3851.244591 3857.760924 3860.643387
261.290000 3839.758382 3845.468778 3855.580337 3853.674985 3859.817505 3862.618359
261.340000 3841.209941 3846.793249 3856.862152 3854.962999 3861.001813 3863.677568
261.440000 3843.447393 3850.600957 3859.177827 3857.500311 3863.168137 3865.598990
261.490000 3844.960075 3852.400069 3860.467083 3858.823630 3864.158184 3866.751978
261.590000 3849.786436 3856.354074 3862.767610 3861.603179 3866.238284 3868.674389
261.690000 3854.194527 3859.973697 3865.190680 3864.335358 3868.278415 3870.741648
261.790000 3858.052283 3863.271138 3867.642660 3867.020293 3870.659259 3872.984669
261.865000 3860.628796 3865.330443 3869.215981 3868.911301 3872.228775 3874.702351
261.940000 3863.509357 3867.697680 3871.144949 3870.838827 3873.955679 3876.475846
261.990000 3865.076385 3869.140602 3872.536949 3872.155640 3875.168577 3877.771121
262.040000 3866.798243 3870.278020 3873.882663 3873.515996 3876.488361 3879.557772
262.090000 3868.022376 3871.630753 3875.203904 3874.887679 3877.912617 3880.945070
262.140000 3869.235679 3873.011626 3876.577756 3876.353462 3879.518072 3883.007802
262.215000 3870.830125 3874.832463 3878.682164 3878.627657 3882.005894 3886.545460
262.290000 3872.454995 3876.736379 3880.979054 3880.922823 3884.817186 3889.340905
262.390000 3875.374508 3879.117737 3883.878320 3884.019379 3888.374848 3893.872734
262.515000 3877.845162 3882.573297 3887.494734 3887.668415 3892.951826 3899.569978
262.640000 3880.107250 3886.090575 3890.888366 3891.292851 3896.825907 3903.841651
262.690000 3881.210367 3887.342229 3892.303391 3892.840653 3898.554619 3905.347559
262.790000 3883.424575 3890.247170 3895.782826 3895.862868 3901.892867 3908.738579
262.840000 3884.544347 3891.723374 3897.369889 3897.376529 3903.353147 3910.030438
262.940000 3886.088165 3894.976527 3900.759990 3900.431722 3906.164478 3912.680471
263.040000 3888.077038 3898.269188 3903.838317 3903.490783 3909.219238 3915.242884
263.090000 3889.154902 3899.791388 3905.372136 3905.015292 3910.557894 3916.975278
263.140000 3890.183309 3901.500492 3906.948336 3906.567299 3911.877129 3918.745611
263.190000 3891.151446 3903.137932 3908.471355 3908.079120 3913.207274 3920.108034
263.240000 3892.440973 3904.987931 3910.105273 3909.619094 3914.729263 3921.525359
263.290000 3893.307943 3906.518171 3911.917532 3911.168821 3916.176303 3922.664698
263.390000 3895.412256 3909.695035 3914.876171 3914.091251 3918.974150 3924.804957
263.440000 3896.295353 3911.251302 3916.531258 3915.631242 3920.312320 3925.918558
263.490000 3897.432484 3912.933312 3917.954524 3917.183393 3921.771625 3927.279868
263.540000 3898.729144 3914.678468 3919.549328 3918.672113 3923.358790 3928.746212
263.590000 3900.014655 3916.401463 3921.011042 3920.182415 3924.829766 3929.901359
263.640000 3901.482571 3917.973012 3922.448231 3921.617273 3926.096732 3931.782942
263.690000 3902.650299 3919.343590 3923.921858 3923.041301 3927.529878 3932.647655
263.740000 3903.890834 3920.801602 3925.352348 3924.403111 3928.856425 3934.052034
263.840000 3906.971444 3923.334941 3927.911469 3926.932738 3931.197971 3936.631752
263.890000 3908.050773 3924.510680 3929.124057 3928.165811 3932.352078 3938.088069
263.940000 3909.084733 3925.823827 3930.289118 3929.425684 3933.547736 3939.344404
264.040000 3913.593498 3928.438992 3932.605041 3931.847357 3935.735177 3941.232873
264.090000 3915.962171 3929.808241 3933.834541 3933.127089 3936.818039 3942.230663
264.165000 3920.828646 3931.803962 3935.657214 3935.057480 3938.547933 3944.786345
264.240000 3923.825295 3933.744300 3937.355865 3936.905162 3940.205897 3947.305815
264.340000 3928.195716 3936.225843 3939.575809 3939.281933 3942.283843 3949.789742
264.440000 3932.617835 3938.686731 3941.856351 3941.661425 3944.361073 3951.685257
264.490000 3934.412324 3940.069634 3943.055854 3942.970163 3945.581167 3953.030257
264.540000 3935.761186 3941.433306 3944.329852 3944.264531 3946.705543 3954.369567
264.590000 3938.044347 3942.873545 3945.618374 3945.598752 3947.915110 3955.477884
264.640000 3940.117912 3944.329012 3946.881916 3946.952746 3949.140675 3956.997386
264.690000 3941.887637 3945.740327 3948.274595 3948.353187 3950.528389 3958.075193
264.740000 3943.431543 3947.152236 3949.551323 3949.741260 3951.969713 3959.077847
264.790000 3945.194505 3948.582277 3950.861319 3951.077763 3953.310289 3960.200158
264.840000 3946.543750 3949.854031 3952.132972 3952.415799 3954.683712 3961.422255
264.890000 3948.066509 3951.085633 3953.434008 3953.782436 3956.132099 3962.356825
264.940000 3949.632851 3952.581457 3954.714185 3955.179908 3957.708905 3963.713148
264.990000 3951.107186 3953.866871 3956.145639 3956.661433 3959.564312 3965.442209
265.040000 3952.300728 3955.281333 3957.638957 3958.168303 3961.388370 3967.380586
265.140000 3954.885533 3957.581684 3960.419505 3961.021996 3964.931480 3970.498810
265.190000 3955.988479 3958.900791 3962.016599 3962.605771 3966.606337 3971.994212
265.240000 3957.395655 3960.424678 3963.600367 3964.278597 3968.256375 3973.776391
265.340000 3961.035056 3963.981318 3967.939310 3968.346462 3972.933548 3977.573295
265.440000 3964.827560 3968.792763 3973.123638 3973.286853 3977.981254 3982.481541
265.490000 3966.678799 3970.918998 3975.500802 3975.535599 3980.187562 3984.655995
265.540000 3969.292161 3973.405171 3977.852843 3977.834684 3982.329040 3986.571282
265.590000 3971.525659 3975.750649 3980.151963 3980.099427 3984.379493 3988.599857
265.640000 3973.949100 3978.495953 3982.550536 3982.470643 3986.422112 3990.526221
265.690000 3976.798753 3981.045564 3984.994508 3984.997063 3988.929885 3993.249493
265.740000 3979.869736 3983.609508 3987.424904 3987.627198 3991.674771 3996.385691
265.790000 3982.634433 3986.043976 3989.636532 3989.894856 3993.742392 3998.655463
265.840000 3985.077677 3988.487982 3991.926628 3992.231096 3996.135193 4000.645227
265.890000 3987.218370 3990.602435 3993.969273 3994.273232 3998.226973 4003.127514
265.940000 3989.492927 3992.328058 3996.026229 3996.249001 4000.281772 4004.928517
265.990000 3991.202894 3994.072425 3998.021288 3998.313650 4002.478952 4007.394356
266.040000 3993.176909 3996.050748 3999.981381 4000.412135 4005.037779 4009.676331
266.090000 3995.174077 3997.909785 4001.989407 4002.560336 4007.392475 4013.176978
266.190000 3998.980272 4001.671430 4006.195986 4007.353862 4013.756820 4019.602469
266.240000 4000.773443 4003.707016 4008.207772 4009.481941 4016.708481 4021.415788
266.250000 4001.229825 4004.130073 4008.624540 4009.899324 4017.130053 4021.790034
266.290000 4003.053352 4006.296890 4010.821820 4011.851533 4018.603888 4023.811105
266.340000 4005.688028 4009.408676 4014.033297 4014.693330 4020.565884 4025.233830
266.390000 4008.709403 4012.425135 4017.441842 4017.531034 4022.628114 4026.930033
266.440000 4011.190601 4015.215725 4020.254600 4020.153628 4025.036936 4028.987339
266.490000 4013.637296 4017.796522 4022.838100 4022.794154 4027.534199 4032.252226
266.540000 4015.418209 4020.382450 4025.452029 4025.482000 4030.200210 4036.069265
266.590000 4017.138669 4022.894912 4028.051507 4028.137030 4032.969906 4039.165114
266.640000 4019.679534 4025.370712 4030.477304 4030.746444 4036.541491 4042.452134
266.690000 4021.737246 4027.795839 4032.955260 4033.453749 4039.710102 4045.183716
266.740000 4023.546513 4030.071546 4036.007121 4036.072367 4042.244606 4048.403531
266.770000 4024.737200 4031.280054 4037.744874 4037.452849 4043.409793 4049.245659
266.790000 4025.586153 4032.062989 4038.538856 4038.317150 4044.153211 4050.231549
266.840000 4027.846956 4034.333281 4041.385295 4040.734509 4046.406938 4052.497276
266.870000 4029.290716 4035.672028 4042.760980 4041.993645 4047.703215 4054.046698
266.890000 4030.148350 4036.430632 4043.446839 4042.776885 4048.706552 4054.933002
266.970000 4036.554055 4040.964073 4046.423606 4046.228103 4051.208651 4057.525713
266.990000 4037.399726 4042.028843 4047.151567 4047.021040 4051.930691 4058.556513
