depth(m) lower_95(kyr) lower_68(kyr) median(kyr) mean(kyr) upper_68(kyr) upper_95(kyr)
265.820000 3529.342507 3555.671972 3577.111937 3572.808493 3586.467713 3605.093848
265.920000 3530.304193 3556.847731 3578.303314 3573.861715 3587.158336 3605.599638
266.020000 3531.795356 3558.130021 3579.658548 3574.902335 3588.191363 3606.802495
266.120000 3533.260099 3558.870053 3580.835760 3575.905134 3588.949790 3607.543294
266.220000 3534.096348 3560.665519 3581.785234 3576.918417 3589.776360 3608.700111
266.320000 3536.373668 3562.018237 3582.615256 3577.921070 3590.523469 3609.416233
266.420000 3537.512943 3562.879731 3583.403072 3578.909574 3591.277488 3610.111286
266.565000 3541.881946 3565.223224 3584.820899 3580.546201 3592.264924 3612.163424
266.710000 3546.172052 3567.703780 3586.142966 3582.213276 3593.194220 3614.425919
266.855000 3549.786333 3570.283820 3587.395420 3583.807867 3594.235580 3616.887771
267.000000 3553.217476 3572.609079 3588.832916 3585.458783 3595.206938 3619.045274
267.145000 3555.898680 3575.051252 3589.795597 3587.079201 3596.108284 3620.191532
267.290000 3558.088436 3577.411222 3591.024740 3588.662748 3597.006701 3622.476907
267.435000 3560.842865 3579.552198 3592.229202 3590.250579 3598.119533 3624.541295
267.580000 3565.082227 3582.287321 3593.658600 3591.887153 3599.217720 3626.432032
267.725000 3567.041437 3584.786884 3595.029991 3593.576891 3600.050662 3628.621300
267.870000 3569.360355 3586.921200 3596.371331 3595.168711 3601.295862 3630.213798
268.015000 3572.897262 3589.236957 3597.653197 3596.706342 3602.345306 3632.499421
268.160000 3575.224082 3591.383691 3599.078350 3598.258071 3603.439033 3633.589006
268.260000 3577.339652 3592.476240 3599.927442 3599.259318 3604.387544 3634.924248
268.360000 3578.147351 3593.707409 3600.766062 3600.276022 3605.278704 3635.794441
268.460000 3579.111913 3594.654701 3601.682447 3601.271234 3606.070577 3637.344842
268.560000 3580.110242 3595.920668 3602.502164 3602.233302 3606.917919 3638.246956
268.660000 3581.857947 3596.821627 3603.327036 3603.187410 3607.628133 3639.142471
268.760000 3582.659502 3597.788553 3604.116717 3604.123635 3608.350073 3640.137026
268.860000 3584.213639 3598.944309 3604.970214 3605.031688 3609.300045 3640.842322
268.960000 3585.519667 3599.839512 3605.785796 3605.954824 3610.008818 3641.469768
269.060000 3586.473999 3600.913224 3606.672842 3606.895265 3610.785944 3642.373264
269.180000 3588.552603 3602.444588 3607.647400 3607.963339 3611.574999 3643.817943
269.300000 3590.454220 3603.911527 3608.525052 3609.086024 3612.541470 3645.133613
269.420000 3592.525742 3605.265268 3609.393007 3610.187231 3613.454677 3645.715122
269.540000 3594.689194 3606.767473 3610.325121 3611.326782 3614.533002 3646.986460
269.660000 3596.322689 3608.323568 3611.317502 3612.468135 3615.564058 3647.923029
269.760000 3598.867851 3609.316932 3612.184004 3613.462438 3616.475423 3649.316984
269.860000 3600.482355 3610.251746 3613.013139 3614.435404 3617.580941 3649.978522
269.960000 3601.521126 3611.210090 3613.885410 3615.416874 3618.592743 3651.361642
270.060000 3602.474675 3612.142731 3614.707614 3616.402443 3619.505887 3652.356449
270.160000 3605.209598 3613.016123 3615.582311 3617.427596 3620.757259 3653.991977
270.260000 3606.585805 3613.832199 3616.442182 3618.372605 3621.685240 3654.994969
270.360000 3608.535989 3614.724697 3617.336306 3619.348633 3622.659198 3656.137328
270.460000 3609.948729 3615.524257 3618.352096 3620.390499 3623.846196 3657.121326
270.560000 3611.630423 3616.413575 3619.495928 3621.402343 3624.888671 3657.880035
270.660000 3612.569361 3617.377884 3620.344181 3622.403072 3625.944182 3659.409746
270.760000 3614.197024 3618.193128 3621.471188 3623.362172 3626.809095 3660.046496
270.860000 3615.839952 3619.092675 3622.463617 3624.340545 3627.692596 3660.968980
270.963333 3617.651631 3619.883941 3623.389006 3625.302774 3628.459663 3661.713794
271.066667 3618.592157 3620.720550 3624.332216 3626.220542 3629.367731 3662.226910
271.170000 3619.479797 3621.662893 3625.159184 3627.111836 3630.224101 3663.282984
271.270000 3620.335270 3622.654897 3625.980210 3627.981356 3631.018935 3664.515111
271.370000 3621.138747 3623.355514 3626.889854 3628.857871 3631.839545 3666.213661
271.470000 3621.775310 3624.249430 3627.710067 3629.761063 3632.807431 3667.061685
271.570000 3622.505620 3625.145324 3628.546840 3630.615756 3633.570251 3667.859195
271.670000 3623.170095 3625.913983 3629.436375 3631.473973 3634.254456 3669.067638
271.770000 3624.160480 3626.796194 3630.319093 3632.342806 3635.031306 3669.930972
271.870000 3625.048764 3627.639063 3631.230939 3633.238365 3635.883224 3670.761095
271.970000 3625.790167 3628.391645 3632.371490 3634.153031 3636.737945 3671.763371
272.070000 3626.770262 3629.264463 3633.472841 3635.087673 3637.727983 3672.288245
272.192000 3627.856175 3630.345244 3634.776764 3636.295074 3639.143288 3673.352192
272.314000 3628.865625 3631.395457 3636.140162 3637.515661 3640.759061 3674.226338
272.436000 3629.689690 3632.324392 3637.310465 3638.766363 3641.936802 3675.379932
272.558000 3630.563930 3633.401651 3638.517825 3639.998240 3643.393535 3676.488417
272.680000 3631.567644 3634.461327 3639.628635 3641.237618 3644.819269 3677.514037
272.780000 3632.500621 3635.376485 3640.518221 3642.337250 3646.332980 3677.965886
272.880000 3633.192260 3636.442209 3641.477368 3643.452289 3647.447202 3678.798607
272.980000 3633.969869 3637.208556 3642.613830 3644.556565 3648.589001 3679.564209
273.080000 3634.969914 3637.982344 3643.760456 3645.678789 3649.898545 3680.719735
273.180000 3635.810859 3638.866083 3644.954194 3646.817803 3651.385729 3681.405802
273.280000 3636.652740 3639.742184 3646.169015 3648.012411 3652.849385 3682.579124
273.400000 3637.493134 3640.726756 3647.800769 3649.560126 3655.005912 3684.280720
273.520000 3638.380642 3642.042727 3649.533039 3651.143041 3657.215895 3685.406350
273.640000 3639.235743 3643.331251 3651.347732 3652.716771 3659.117250 3686.831453
273.760000 3639.956257 3644.781839 3652.866545 3654.259798 3661.073776 3687.949385
273.880000 3640.792517 3645.971013 3654.840465 3655.905813 3663.195395 3689.220148
273.980000 3641.615947 3646.833386 3656.228569 3657.261831 3664.602947 3690.229703
274.080000 3641.981820 3647.698041 3657.668858 3658.634938 3666.318308 3691.743900
274.180000 3642.529239 3648.459885 3659.420286 3659.922656 3667.875299 3692.466855
274.313333 3643.437787 3649.954014 3661.612224 3661.821809 3670.693575 3693.688214
274.446667 3644.322561 3651.013884 3663.786594 3663.622396 3672.891569 3694.893566
274.580000 3645.149855 3652.246518 3666.081413 3665.540788 3675.669974 3697.026006
274.713333 3645.909021 3653.436019 3668.160162 3667.457260 3678.440691 3698.225896
274.846667 3646.779437 3654.634617 3670.101362 3669.366188 3681.501472 3699.987359
274.980000 3647.637175 3655.865346 3672.236178 3671.210897 3683.648431 3700.840112
275.113333 3648.306898 3657.145367 3674.322135 3673.120914 3686.160202 3702.280821
275.246667 3649.278273 3658.198456 3676.558647 3675.033738 3688.006103 3703.569506
275.380000 3650.010919 3659.243509 3678.407077 3676.937288 3690.284243 3705.180317
275.480000 3650.408981 3659.693290 3679.577410 3678.139999 3691.663403 3706.415022
275.580000 3650.950297 3660.886370 3680.770804 3679.381717 3692.725299 3707.708181
275.680000 3651.773676 3662.166695 3682.112235 3680.549976 3693.658530 3709.476168
275.800000 3652.396577 3663.718193 3683.683997 3681.927819 3695.180664 3711.000752
275.920000 3653.284318 3665.236480 3685.224547 3683.301849 3697.243672 3713.045275
276.040000 3653.848058 3666.406798 3686.640266 3684.641767 3698.706295 3714.523043
276.160000 3654.601620 3667.766635 3687.973358 3685.986917 3700.077754 3716.455430
276.280000 3655.580851 3669.196142 3689.268136 3687.353322 3701.252745 3718.224760
276.380000 3656.340627 3670.344279 3690.365920 3688.445897 3702.404827 3719.269854
276.480000 3657.067515 3671.602990 3691.751544 3689.513454 3703.476231 3720.479977
276.580000 3657.564257 3673.092861 3692.993308 3690.591159 3704.843774 3721.343993
276.680000 3658.211495 3674.188257 3694.058943 3691.650876 3706.082807 3722.140625
276.780000 3658.763141 3675.272201 3695.168392 3692.663911 3707.098246 3723.192257
276.880000 3659.357995 3676.626097 3696.134388 3693.713499 3707.960497 3724.607963
277.000000 3660.083822 3678.618805 3697.645913 3694.932042 3709.109518 3725.745018
277.120000 3660.892235 3680.115191 3698.581836 3696.181715 3710.042924 3726.743167
277.240000 3661.524728 3682.002125 3699.398476 3697.364587 3711.066601 3727.564285
277.360000 3662.254126 3683.315584 3700.476864 3698.599165 3712.393340 3728.397747
277.480000 3662.926830 3684.705738 3701.629345 3699.832438 3713.835167 3729.587172
277.622500 3663.697460 3686.321338 3702.927567 3701.307878 3715.488514 3730.699311
277.765000 3664.522079 3688.829177 3704.356119 3702.787716 3717.338719 3731.860062
277.907500 3665.139551 3690.594216 3705.468581 3704.263813 3718.935968 3732.897542
278.050000 3666.148909 3692.424567 3706.978734 3705.770594 3720.852404 3733.749322
278.192500 3667.092486 3694.305092 3708.757328 3707.315706 3722.510768 3734.727441
278.335000 3667.880578 3696.120548 3710.170649 3708.854356 3724.565396 3735.713390
278.477500 3668.769329 3697.543035 3711.864765 3710.386822 3726.496313 3736.601109
278.620000 3669.700832 3698.622331 3713.507551 3711.934592 3728.243370 3737.544755
278.748571 3670.452250 3699.631107 3714.984865 3713.280518 3729.818730 3738.102483
278.877143 3671.680713 3701.039891 3716.151027 3714.597501 3731.513759 3739.009914
279.005714 3672.787950 3702.345365 3717.720685 3715.978449 3733.194395 3739.950387
279.134286 3673.608113 3703.393660 3719.066319 3717.378523 3734.690795 3740.981760
279.262857 3674.392040 3704.659220 3720.355321 3718.800521 3736.141535 3742.056822
279.391429 3675.655477 3706.002018 3721.777388 3720.205350 3737.537938 3743.602208
279.520000 3676.687952 3707.262386 3723.347896 3721.673409 3738.949865 3744.839367
279.620000 3677.366255 3708.229105 3724.322096 3722.695809 3739.892551 3745.356784
279.720000 3678.126638 3708.985839 3725.407464 3723.750971 3740.835753 3746.246095
279.820000 3679.058701 3710.187217 3726.497052 3724.801907 3741.878019 3747.140714
279.920000 3679.639871 3710.958417 3727.488392 3725.820075 3742.624219 3748.246737
280.020000 3680.318886 3711.965988 3728.468154 3726.850164 3743.499158 3749.075511
280.120000 3681.065778 3713.171246 3729.775453 3727.871908 3744.382844 3750.328840
280.220000 3682.021801 3714.596055 3730.983664 3728.879062 3745.049295 3751.208143
280.320000 3682.957211 3715.641904 3731.939753 3729.920948 3745.824854 3752.659576
280.420000 3683.595461 3716.868071 3732.920192 3730.916941 3746.486830 3753.806908
280.520000 3684.190228 3717.765428 3733.806278 3731.938960 3747.219262 3754.719494
280.620000 3685.153309 3718.715708 3734.980966 3732.980371 3747.943498 3755.846833
280.720000 3685.981609 3719.846646 3735.740381 3733.980074 3748.758316 3756.736421
280.820000 3686.973047 3720.746615 3736.736708 3734.969996 3749.460052 3757.641821
280.920000 3688.069202 3721.780744 3737.924011 3736.000009 3750.198391 3758.429603
281.020000 3688.568807 3722.590858 3739.184487 3737.045422 3751.074151 3759.238779
281.120000 3692.025725 3723.457371 3740.297409 3738.053471 3751.934276 3759.908131
281.220000 3692.751655 3724.246961 3741.373712 3739.049149 3752.698123 3760.632640
281.320000 3693.280191 3725.051335 3742.924814 3740.069138 3753.721565 3761.405774
281.420000 3694.183830 3726.020134 3743.912793 3741.086038 3754.526242 3762.109528
281.520000 3695.147209 3727.015986 3744.990584 3742.111271 3755.441680 3763.159255
281.620000 3696.455655 3727.802942 3746.271039 3743.183739 3756.404181 3763.987920
281.720000 3697.759507 3728.534044 3747.305463 3744.195773 3757.384103 3764.716191
281.820000 3699.837800 3729.340866 3748.009944 3745.237932 3758.366242 3765.217083
281.920000 3701.142738 3730.343804 3748.752649 3746.231717 3759.237679 3765.922993
282.020000 3702.394183 3731.361645 3749.810441 3747.250063 3760.202389 3766.632782
282.120000 3703.131464 3732.578859 3751.327866 3748.291551 3761.260173 3767.356133
282.220000 3704.494375 3733.672597 3752.795209 3749.322720 3762.412351 3767.905457
282.320000 3705.203138 3734.874689 3754.300995 3750.332577 3763.207293 3768.829960
282.420000 3706.218744 3736.105982 3755.508552 3751.347228 3764.090798 3769.728657
282.520000 3707.416174 3737.549360 3756.839208 3752.403379 3765.091052 3770.413751
282.620000 3709.180323 3738.671012 3757.887234 3753.411735 3766.298519 3771.060017
282.720000 3710.546417 3740.201994 3758.752271 3754.429414 3767.493905 3771.784132
282.820000 3710.820635 3742.209544 3759.609491 3755.471355 3768.569504 3772.616625
282.926667 3711.599785 3743.343883 3760.685532 3756.525777 3769.466719 3773.438011
283.033333 3713.392436 3744.937618 3761.771094 3757.649550 3770.484766 3774.696417
283.140000 3714.960261 3746.224426 3763.195727 3758.705994 3771.360204 3776.068740
283.240000 3715.646097 3747.494833 3764.358056 3759.732201 3772.156746 3777.667386
283.340000 3717.357952 3749.251349 3765.485950 3760.757047 3772.926321 3778.518819
283.440000 3718.312365 3750.695106 3766.762801 3761.761242 3773.655207 3779.909789
283.540000 3719.631080 3752.534146 3767.714587 3762.788775 3774.618232 3780.986693
283.640000 3720.414246 3753.459315 3768.741190 3763.781807 3775.655475 3782.251721
283.740000 3721.268155 3754.347784 3769.744375 3764.766481 3776.598777 3783.055844
283.840000 3722.574425 3756.275676 3770.653884 3765.782037 3777.451586 3783.678654
283.940000 3724.602002 3758.024952 3771.922238 3766.797614 3778.273016 3784.492676
284.040000 3725.464389 3759.008351 3772.903732 3767.814202 3779.105620 3785.445200
284.140000 3726.085216 3760.077653 3773.873198 3768.857839 3780.039247 3786.425861
284.240000 3726.898171 3760.930470 3774.820638 3769.833664 3781.013626 3787.288735
284.340000 3728.356432 3761.814213 3775.863806 3770.864804 3781.979951 3788.277457
284.460000 3729.345753 3762.751694 3777.032233 3772.137826 3783.179454 3789.335676
284.580000 3730.398659 3763.674405 3778.243258 3773.404652 3784.444295 3790.491163
284.700000 3731.299895 3764.667875 3779.277080 3774.678217 3785.793777 3791.580922
284.820000 3733.213696 3765.725522 3780.312015 3775.904120 3787.114099 3793.016066
284.940000 3734.382159 3767.316215 3781.416781 3777.168840 3788.385275 3794.147342
285.040000 3734.914822 3768.448702 3782.153706 3778.195704 3789.634099 3795.125358
285.140000 3735.485131 3769.534143 3782.935830 3779.241474 3790.705507 3796.127113
285.240000 3736.236921 3770.565620 3783.805796 3780.277669 3791.555443 3797.247970
285.340000 3737.858560 3772.028246 3784.552098 3781.364293 3792.484101 3798.470947
285.440000 3738.822082 3773.092433 3785.390330 3782.383256 3793.196303 3799.250756
285.540000 3739.735017 3773.978509 3786.236131 3783.339839 3794.270101 3800.137485
285.640000 3740.558623 3774.842676 3787.061599 3784.319568 3795.233028 3800.890581
285.740000 3741.457808 3775.694659 3787.866240 3785.287080 3795.919860 3801.493603
285.840000 3742.541488 3776.629643 3788.756740 3786.228052 3796.735569 3802.091714
285.943333 3743.858772 3777.592650 3789.706729 3787.197696 3797.739351 3802.973135
286.046667 3745.314421 3778.787095 3790.597189 3788.205379 3798.749234 3803.837922
286.150000 3746.242420 3780.140828 3791.520599 3789.190240 3799.623090 3804.689614
286.250000 3746.885937 3780.998226 3792.488845 3790.102882 3800.730438 3805.665693
286.350000 3747.767569 3782.226286 3793.388490 3791.091907 3802.071372 3806.542196
286.450000 3748.926799 3783.623771 3794.178359 3792.033310 3803.257235 3807.372483
286.550000 3749.480197 3784.336367 3794.978426 3792.982610 3804.351992 3808.403141
286.650000 3750.161924 3785.281347 3795.941010 3793.895752 3805.434602 3809.122029
286.750000 3751.522719 3786.204250 3796.949293 3794.856311 3806.306407 3810.125105
286.850000 3753.255306 3787.207007 3798.080677 3795.816895 3807.322113 3811.207239
286.950000 3753.806141 3789.034843 3799.160857 3796.785277 3808.159352 3811.910426
287.050000 3754.764371 3790.404054 3800.215039 3797.829365 3809.049595 3813.480380
287.150000 3755.833516 3791.553169 3801.281855 3798.846494 3809.820237 3814.906684
287.250000 3756.879952 3792.858057 3802.149234 3799.812852 3810.597528 3816.088133
287.350000 3758.312331 3794.116092 3803.310265 3800.839430 3811.288057 3817.714481
287.450000 3760.626683 3795.047580 3804.434781 3801.844178 3811.985832 3818.755206
287.550000 3762.632589 3796.410897 3805.403910 3802.872484 3812.698082 3819.722285
287.650000 3764.546406 3797.448463 3806.513691 3803.930223 3813.350882 3820.508094
287.750000 3765.776895 3798.368600 3807.545419 3804.940717 3814.124754 3821.252657
287.883000 3770.124569 3799.953283 3808.861159 3806.407453 3815.128516 3822.103483
288.016000 3775.229131 3801.698290 3810.060364 3807.847963 3816.128189 3823.118843
288.149000 3779.463666 3803.599017 3811.311025 3809.354761 3817.086504 3824.741444
288.282000 3782.955494 3805.271154 3812.606226 3810.771942 3818.144296 3825.949918
288.415000 3788.161804 3806.964126 3813.911251 3812.208270 3819.257660 3826.964800
288.548000 3790.806962 3808.154212 3815.130937 3813.601566 3820.348037 3827.800905
288.681000 3794.475451 3809.682094 3816.301817 3815.001868 3821.462038 3829.011572
288.814000 3796.704741 3811.161859 3817.685700 3816.380794 3822.931538 3830.215758
288.947000 3800.541936 3812.764699 3818.938036 3817.728678 3824.029585 3831.445887
289.080000 3802.806473 3814.137075 3820.212033 3819.078417 3825.361328 3832.682834
289.180000 3803.861728 3815.159635 3821.193916 3820.133215 3826.430940 3833.394843
289.280000 3806.296719 3816.246703 3822.391117 3821.167959 3827.494938 3834.525027
289.380000 3807.514957 3817.203866 3823.183594 3822.200716 3828.658702 3835.243028
289.480000 3810.158086 3818.424101 3824.277427 3823.231899 3829.637038 3835.946454
289.580000 3812.167989 3819.258332 3825.243634 3824.259782 3830.606589 3836.744966
289.680000 3812.905942 3820.223129 3826.376720 3825.343895 3831.629848 3837.350963
289.780000 3815.093419 3821.118385 3827.386441 3826.391830 3832.540374 3838.190253
289.880000 3815.677538 3822.183154 3828.457188 3827.453011 3833.636667 3839.301580
289.980000 3816.287193 3823.298871 3829.558350 3828.533738 3834.766117 3840.078675
290.080000 3817.570497 3824.556928 3830.587763 3829.637617 3835.863836 3840.972409
290.180000 3819.462184 3825.658920 3831.744263 3830.759441 3836.996191 3841.534870
290.280000 3820.448567 3826.786364 3832.912842 3831.858253 3838.001799 3842.187407
290.380000 3822.161773 3827.864657 3834.205233 3832.977913 3838.945108 3842.860065
290.480000 3823.255877 3829.281200 3835.341466 3834.092328 3840.096487 3843.815050
290.580000 3824.393061 3830.699460 3836.439673 3835.170404 3841.065986 3844.496773
290.680000 3825.792215 3831.901353 3837.560110 3836.277166 3842.012775 3845.437210
290.780000 3827.303752 3833.115962 3838.825814 3837.374797 3842.874097 3846.226232
290.880000 3828.363329 3834.549041 3839.925596 3838.505846 3843.814542 3846.947388
290.980000 3829.352605 3835.945726 3841.037752 3839.644863 3844.691310 3847.666312
291.080000 3830.690964 3837.165054 3841.886896 3840.717139 3845.824571 3848.504601
291.180000 3831.194799 3838.402895 3842.865635 3841.755381 3846.646738 3849.406522
291.280000 3832.343421 3839.817549 3843.829680 3842.834552 3847.457515 3850.207314
291.380000 3833.806968 3841.078464 3844.834037 3843.829969 3848.352094 3851.111514
291.480000 3834.903647 3842.322132 3845.824165 3844.836231 3849.150226 3851.814663
291.580000 3836.796289 3843.410377 3846.892682 3845.838911 3849.984258 3852.484169
291.680000 3837.365159 3844.594201 3847.926898 3846.822042 3850.813583 3853.230041
291.780000 3838.406687 3845.536793 3848.910483 3847.808525 3851.703982 3854.090452
291.880000 3839.393160 3846.726908 3849.884290 3848.752841 3852.502057 3854.983511
291.980000 3841.116027 3847.718764 3850.713630 3849.754279 3853.431610 3855.992082
