depth(m)	lower_95(kyr)	lower_68(kyr)	median(kyr)	mean(kyr)	upper_68(kyr)	upper_95(kyr)
151	98.011767	100.847365	102.721582	102.462804	104.368195	105.491143
151.142857	98.078648	100.909409	102.810671	102.537266	104.432755	105.573231
151.285714	98.137937	100.969403	102.871982	102.607524	104.492818	105.659194
151.428571	98.190145	101.043478	102.966651	102.678299	104.559175	105.710717
151.571429	98.239732	101.106881	103.042717	102.744805	104.625128	105.750786
151.714286	98.291421	101.199737	103.093071	102.812744	104.684325	105.854765
151.857143	98.352357	101.317956	103.171121	102.88331	104.741232	105.904537
152	98.461941	101.370952	103.213943	102.951277	104.803088	105.96223
152.142857	98.522905	101.458495	103.3084	103.020341	104.852535	106.029632
152.285714	98.718462	101.519838	103.364349	103.087991	104.914064	106.082018
152.428571	98.869322	101.58521	103.425249	103.156581	104.968321	106.138967
152.571429	98.938923	101.651575	103.499854	103.222873	105.028227	106.204121
152.714286	99.035765	101.710774	103.566862	103.290414	105.107914	106.251222
152.857143	99.146075	101.755335	103.653624	103.358307	105.19001	106.293476
153	99.239809	101.809275	103.714093	103.423953	105.246197	106.325601
153.142857	99.356952	101.88275	103.780074	103.49328	105.337016	106.369937
153.285714	99.44725	101.94589	103.833628	103.562446	105.374716	106.413656
153.428571	99.533379	101.992498	103.890959	103.630545	105.417539	106.463022
153.571429	99.652127	102.091208	103.940596	103.696955	105.482935	106.523267
153.714286	99.726944	102.147623	103.993661	103.765505	105.54618	106.624229
153.857143	99.862254	102.192194	104.062827	103.8337	105.604263	106.706592
154	99.973842	102.281473	104.123175	103.909405	105.657385	106.845224
154.142857	100.121636	102.345605	104.191032	103.98378	105.760692	106.900496
154.285714	100.216989	102.441489	104.25575	104.053775	105.810281	106.973083
154.428571	100.267836	102.507076	104.331587	104.123537	105.869081	107.069635
154.571429	100.331309	102.570694	104.392663	104.191481	105.92658	107.117609
154.714286	100.395015	102.64001	104.447298	104.263172	105.975289	107.18654
154.857143	100.45019	102.709064	104.507017	104.332928	106.034218	107.239348
155	100.507543	102.790576	104.567453	104.404682	106.095217	107.278219
155.142857	100.556856	102.867885	104.62688	104.474767	106.171737	107.31296
155.285714	100.601296	102.966351	104.702425	104.547113	106.225168	107.407541
155.428571	100.675092	103.035175	104.759261	104.618008	106.276207	107.45422
155.571429	100.725831	103.106663	104.817706	104.690526	106.318886	107.501525
155.714286	100.794946	103.177756	104.895412	104.758666	106.374144	107.565044
155.857143	100.858264	103.232628	104.957523	104.827394	106.442661	107.645592
156	100.96358	103.307865	105.029323	104.897084	106.525351	107.703452
156.142857	101.030438	103.401206	105.091982	104.968099	106.56241	107.792537
156.285714	101.095409	103.476218	105.149439	105.038445	106.60688	107.839136
156.428571	101.162871	103.535083	105.215632	105.105676	106.656826	107.913663
156.571429	101.244041	103.597616	105.279366	105.171769	106.714398	107.979462
156.714286	101.325276	103.693516	105.339583	105.240304	106.782816	108.019502
156.857143	101.461624	103.821656	105.396783	105.309003	106.826633	108.053614
157	101.504517	103.903079	105.453777	105.377445	106.881589	108.09776
157.142857	101.586957	103.997083	105.515691	105.449369	106.930026	108.152719
157.285714	101.640353	104.065188	105.578171	105.518054	106.98208	108.210868
157.428571	101.730548	104.187505	105.646769	105.587326	107.031123	108.284545
157.571429	101.877882	104.273498	105.732808	105.658423	107.07309	108.333791
157.714286	101.970306	104.379202	105.814743	105.728223	107.116863	108.386063
157.857143	102.115792	104.488439	105.896787	105.798448	107.17575	108.44392
158	102.222681	104.570174	105.978636	105.868645	107.217927	108.523793
158.142857	102.433433	104.638171	106.054643	105.939994	107.281622	108.612917
158.285714	102.573315	104.754589	106.12016	106.011817	107.337689	108.664961
158.428571	102.707226	104.855834	106.192998	106.081579	107.390511	108.70601
158.571429	102.910944	104.915069	106.249227	106.148903	107.432262	108.752884
158.714286	103.012707	105.030179	106.313505	106.220574	107.463752	108.807371
158.857143	103.121192	105.119476	106.419298	106.289238	107.513774	108.883996
159	103.289835	105.221502	106.48396	106.359318	107.557692	108.949579
159.142857	103.392489	105.313139	106.551457	106.427838	107.613078	108.995913
159.285714	103.515979	105.38403	106.613982	106.49528	107.654709	109.114148
159.428571	103.570536	105.452868	106.675162	106.563791	107.708933	109.17969
159.571429	103.637445	105.511466	106.761154	106.631509	107.768606	109.238666
159.714286	103.715725	105.602941	106.831597	106.698695	107.842438	109.287406
159.857143	103.767499	105.67301	106.901457	106.768275	107.903344	109.350203
160	103.824952	105.736753	106.973111	106.836914	107.965346	109.398757
160.142857	103.89433	105.816955	107.051357	106.905114	108.019878	109.426327
160.285714	104.033314	105.889049	107.125972	106.975895	108.085746	109.491673
160.428571	104.108826	105.9384	107.185377	107.04013	108.1373	109.527995
160.571429	104.185867	105.990249	107.256982	107.109472	108.186798	109.576389
160.714286	104.244751	106.048264	107.326161	107.175639	108.236627	109.620255
160.857143	104.333918	106.109087	107.395921	107.24212	108.289119	109.66233
161	104.429693	106.184304	107.464805	107.309554	108.34981	109.710188
161.142857	104.499229	106.238166	107.52822	107.375794	108.406146	109.783285
161.285714	104.624511	106.285966	107.588673	107.440979	108.469301	109.923025
161.428571	104.723428	106.34139	107.650554	107.50778	108.522214	109.967608
161.571429	104.865221	106.397909	107.70384	107.573131	108.589	110.004098
161.714286	104.982049	106.443027	107.760701	107.636538	108.645376	110.070862
161.857143	105.110783	106.498606	107.818726	107.702443	108.687599	110.11573
162	105.201992	106.547818	107.876439	107.766289	108.759066	110.18651
162.142857	105.339139	106.621758	107.935042	107.828676	108.840478	110.241364
162.285714	105.407183	106.692185	107.995089	107.892233	108.910671	110.297207
162.428571	105.517149	106.78709	108.051412	107.955173	108.993729	110.361986
162.571429	105.621674	106.889499	108.09862	108.019391	109.074575	110.405898
162.714286	105.719638	106.945196	108.15192	108.084904	109.115953	110.454806
162.857143	105.785295	107.012398	108.223299	108.151629	109.200962	110.50637
163	105.866794	107.073835	108.282756	108.217542	109.287477	110.560424
163.142857	105.922501	107.137431	108.333763	108.278992	109.377218	110.621437
163.285714	106.007802	107.201225	108.38496	108.33971	109.457864	110.699357
163.428571	106.052595	107.264531	108.438127	108.40211	109.531713	110.739142
163.571429	106.09173	107.328884	108.495043	108.463745	109.585006	110.816962
163.714286	106.137135	107.387952	108.547868	108.526188	109.672579	110.883222
163.857143	106.27656	107.471127	108.603536	108.589008	109.750691	110.928946
164	106.35617	107.531839	108.660409	108.650297	109.822242	111.024637
164.142857	106.397435	107.625298	108.710619	108.710717	109.889659	111.105359
164.285714	106.511828	107.690103	108.769535	108.771159	109.963236	111.163075
164.428571	106.554979	107.752588	108.819632	108.829932	110.011395	111.225898
164.571429	106.649107	107.834053	108.874196	108.891435	110.103666	111.289142
164.714286	106.73554	107.905036	108.921637	108.950006	110.197167	111.349095
164.857143	106.781532	107.991247	108.963991	109.011756	110.253033	111.428295
165	106.834916	108.067088	109.015767	109.071188	110.316192	111.476128
165.142857	106.887536	108.120403	109.071747	109.131464	110.397072	111.54891
165.285714	106.949086	108.199948	109.128053	109.191304	110.45686	111.618866
165.428571	107.01213	108.279642	109.177812	109.250119	110.52454	111.657477
165.571429	107.076084	108.354087	109.230413	109.311311	110.576361	111.69727
165.714286	107.146445	108.409023	109.287946	109.372802	110.637568	111.750315
165.857143	107.241565	108.469537	109.341619	109.433486	110.696538	111.811619
166	107.326541	108.545425	109.399552	109.495336	110.752545	111.880797
166.142857	107.379316	108.600335	109.442336	109.555132	110.800825	111.932329
166.285714	107.453414	108.644297	109.510475	109.616085	110.849658	112.008077
166.428571	107.504352	108.697433	109.567745	109.678923	110.922978	112.053127
166.571429	107.543501	108.750103	109.621277	109.739654	110.965605	112.094366
166.714286	107.605097	108.803469	109.678395	109.800898	111.026054	112.160369
166.857143	107.64829	108.865154	109.738228	109.863633	111.085408	112.219725
167	107.713825	108.931017	109.798161	109.9268	111.145481	112.26232
167.142857	107.747996	108.98212	109.861578	109.986738	111.196491	112.332684
167.285714	107.846498	109.03292	109.929454	110.047628	111.27769	112.405126
167.428571	107.902283	109.083751	109.992554	110.108014	111.333364	112.448196
167.571429	107.986202	109.153769	110.070631	110.17196	111.378818	112.515567
167.714286	108.053674	109.199986	110.140238	110.236098	111.436123	112.595966
167.857143	108.180454	109.253221	110.210037	110.298451	111.487587	112.642342
168	108.213154	109.307812	110.27752	110.361574	111.544475	112.711488
168.142857	108.270428	109.369809	110.349021	110.424358	111.601168	112.761967
168.285714	108.334706	109.430404	110.408338	110.488614	111.660519	112.825912
168.428571	108.439046	109.484785	110.485006	110.553574	111.730454	112.884505
168.571429	108.498016	109.552546	110.556802	110.61891	111.795413	112.957798
168.714286	108.592552	109.613898	110.626908	110.687094	111.837034	113.001964
168.857143	108.625517	109.676518	110.69703	110.753252	111.892693	113.093398
169	108.689637	109.73074	110.763454	110.820609	111.989536	113.205876
169.142857	108.840169	109.783875	110.852539	110.888182	112.034847	113.275827
169.285714	108.910593	109.839769	110.916023	110.954733	112.116653	113.333886
169.428571	108.991592	109.907124	110.992364	111.023327	112.171786	113.407601
169.571429	109.08699	109.97873	111.058986	111.092176	112.223729	113.467813
169.714286	109.148368	110.035419	111.118347	111.159605	112.280793	113.541326
169.857143	109.211711	110.096126	111.208774	111.229769	112.351475	113.618924
170	109.286703	110.179301	111.285324	111.30188	112.405674	113.667428
170.142857	109.347383	110.230303	111.364357	111.373086	112.4654	113.719241
170.285714	109.47432	110.283149	111.449193	111.445879	112.535648	113.799907
170.428571	109.519519	110.33531	111.51768	111.520507	112.603719	113.932418
170.571429	109.579864	110.398058	111.587432	111.594105	112.709811	114.020759
170.714286	109.628759	110.467609	111.646668	111.667891	112.81532	114.079516
170.857143	109.672846	110.539068	111.753922	111.744211	112.925812	114.145426
171	109.726353	110.605633	111.833073	111.821199	113.00085	114.24555
171.142857	109.779787	110.673396	111.919078	111.899322	113.106361	114.331044
171.285714	109.853146	110.744017	112.003254	111.977699	113.182724	114.439132
171.428571	109.919508	110.82307	112.105143	112.060598	113.276131	114.539486
171.571429	109.979847	110.889416	112.175112	112.146466	113.335585	114.621063
171.714286	110.0749	110.98668	112.255813	112.230396	113.405678	114.694641
171.857143	110.135927	111.048094	112.357613	112.314943	113.470222	114.748858
172	110.222934	111.153409	112.44979	112.404201	113.562229	114.865672
172.142857	110.311113	111.244297	112.551073	112.494563	113.643732	114.934503
172.285714	110.372975	111.358217	112.635992	112.585936	113.751566	114.986378
172.428571	110.428232	111.466486	112.706926	112.674234	113.833771	115.086607
172.571429	110.495134	111.530632	112.799581	112.766783	113.935299	115.196896
172.714286	110.560903	111.618278	112.894883	112.858337	114.031913	115.299752
172.857143	110.629157	111.72804	112.97309	112.951028	114.120987	115.408404
173	110.691423	111.826119	113.05904	113.04673	114.187012	115.473275
173.142857	110.816552	111.923096	113.145481	113.142084	114.264796	115.546969
173.285714	110.975404	112.017306	113.235604	113.242121	114.389573	115.690476
173.428571	111.115306	112.144141	113.32948	113.343045	114.487296	115.743499
173.571429	111.196811	112.247915	113.423333	113.443246	114.633618	115.897546
173.714286	111.311641	112.348596	113.520295	113.551347	114.771828	115.978744
173.857143	111.423394	112.469489	113.607812	113.662736	114.905452	116.09589
174	111.50107	112.553583	113.697916	113.764559	114.995737	116.168709
174.142857	111.593708	112.661275	113.801508	113.873964	115.126564	116.272971
174.285714	111.695608	112.756635	113.908169	113.985155	115.237702	116.4166
174.428571	111.853975	112.86615	114.008136	114.096192	115.358927	116.534076
174.571429	111.957305	112.968577	114.121583	114.216986	115.484781	116.656765
174.714286	112.079398	113.088115	114.254363	114.34304	115.661854	116.823808
174.857143	112.206132	113.21637	114.389493	114.469725	115.785422	116.93724
175	112.36315	113.387244	114.51092	114.605603	115.897706	117.111731
175.142857	112.599011	113.549007	114.660497	114.749109	116.042673	117.222787
175.285714	112.801048	113.693501	114.832666	114.884915	116.146247	117.306284
175.428571	112.997936	113.873608	114.950998	115.026003	116.243062	117.437525
175.571429	113.183389	114.058145	115.098913	115.172955	116.409698	117.515844
175.714286	113.326524	114.216025	115.270159	115.323959	116.528634	117.576901
175.857143	113.513797	114.375352	115.41088	115.470257	116.601382	117.72845
176	113.681967	114.550707	115.5634	115.620152	116.758527	117.818011
176.142857	113.930616	114.722082	115.719017	115.770319	116.876004	117.955797
176.285714	114.062342	114.866055	115.863657	115.924984	116.995003	118.034282
176.428571	114.193103	115.007384	116.021364	116.070343	117.094246	118.159648
176.571429	114.343372	115.184716	116.180905	116.229228	117.230974	118.308194
176.714286	114.47576	115.351823	116.35911	116.377612	117.366388	118.410223
176.857143	114.626068	115.483455	116.525108	116.531003	117.52904	118.584426
177	114.734043	115.626364	116.701292	116.68324	117.653389	118.66652
177.142857	114.860938	115.751355	116.863428	116.832644	117.832619	118.875786
177.285714	114.981311	115.91306	117.044836	116.987529	117.980695	119.020484
177.428571	115.097013	116.028975	117.201177	117.137228	118.125986	119.132283
177.571429	115.205169	116.152373	117.371097	117.284954	118.322594	119.396228
177.714286	115.30774	116.278262	117.505121	117.423064	118.460342	119.533312
177.857143	115.467821	116.416571	117.653155	117.560814	118.562691	119.676045
178	115.620316	116.524588	117.792861	117.693435	118.727926	119.774762
178.142857	115.772453	116.642724	117.906644	117.821563	118.839872	119.905804
178.285714	115.931216	116.756538	118.027432	117.943373	118.960181	120.022845
178.428571	116.019735	116.864578	118.145627	118.061612	119.107071	120.119471
178.571429	116.143812	117.002138	118.238307	118.174236	119.195004	120.249946
178.714286	116.250721	117.122511	118.337541	118.279275	119.303032	120.366723
178.857143	116.355082	117.261245	118.431169	118.383225	119.388028	120.490554
179	116.542077	117.371342	118.539522	118.484457	119.455886	120.588287
179.142857	116.656277	117.466517	118.635143	118.580874	119.547866	120.698942
179.285714	116.82943	117.558398	118.713508	118.679243	119.661775	120.810914
179.428571	116.989324	117.644119	118.798207	118.772336	119.73228	120.879025
179.571429	117.064069	117.760161	118.884842	118.862532	119.862238	120.941941
179.714286	117.128333	117.848129	118.962406	118.94889	119.935644	120.995521
179.857143	117.191102	117.9461	119.04251	119.034208	120.052611	121.063749
180	117.260525	118.054333	119.152786	119.11831	120.131619	121.156429
180.142857	117.31942	118.154519	119.238197	119.204558	120.238279	121.205137
180.285714	117.507519	118.237101	119.320733	119.286509	120.305696	121.291218
180.428571	117.562363	118.330043	119.387714	119.363972	120.424122	121.420679
180.571429	117.655094	118.409891	119.458014	119.441004	120.498928	121.483648
180.714286	117.739225	118.493106	119.548901	119.517634	120.561241	121.536751
180.857143	117.841174	118.565733	119.606949	119.593488	120.619531	121.651843
181	117.9619	118.63265	119.66471	119.669516	120.695958	121.716368
181.142857	118.052764	118.697456	119.754739	119.742001	120.78557	121.803128
181.285714	118.145842	118.771203	119.83561	119.811548	120.86162	121.897411
181.428571	118.192836	118.843869	119.892504	119.880251	120.907595	121.995088
181.571429	118.267205	118.909623	119.962192	119.947822	120.993449	122.134651
181.714286	118.327453	118.975783	120.037721	120.01486	121.067924	122.211835
181.857143	118.397292	119.04406	120.09909	120.082469	121.116592	122.338106
182	118.48288	119.102749	120.169843	120.148935	121.19314	122.394706
182.142857	118.547788	119.149588	120.239166	120.213405	121.275757	122.440221
182.285714	118.620484	119.228894	120.30504	120.275417	121.331472	122.485128
182.428571	118.68812	119.298951	120.365321	120.336609	121.397345	122.54501
182.571429	118.749198	119.355199	120.441548	120.398963	121.462998	122.605136
182.714286	118.831291	119.414156	120.49895	120.460558	121.522631	122.643241
182.857143	118.892073	119.470106	120.557589	120.519424	121.574798	122.693204
183	118.922948	119.516388	120.612655	120.581088	121.63705	122.755039
183.142857	118.990341	119.593433	120.667738	120.641096	121.687943	122.836692
183.285714	119.026199	119.65288	120.71344	120.697996	121.747822	122.889536
183.428571	119.095806	119.706715	120.758835	120.756525	121.795197	122.921918
183.571429	119.141819	119.766131	120.805531	120.813982	121.851277	122.997158
183.714286	119.21115	119.828009	120.862748	120.869341	121.902586	123.056422
183.857143	119.274318	119.882718	120.911124	120.924195	121.954004	123.113776
184	119.323181	119.931937	120.957435	120.978034	122.001597	123.161937
184.142857	119.349302	119.996734	121.012969	121.032367	122.044706	123.216145
184.285714	119.414341	120.047738	121.06806	121.08641	122.100368	123.291928
184.428571	119.46413	120.102172	121.117862	121.139862	122.154386	123.336704
184.571429	119.510715	120.149453	121.177119	121.192078	122.198386	123.42657
184.714286	119.559237	120.202016	121.232435	121.245905	122.24378	123.465852
184.857143	119.625106	120.257435	121.283442	121.298535	122.30673	123.524645
185	119.678721	120.308913	121.327388	121.351147	122.364607	123.580426
185.142857	119.719003	120.354688	121.37375	121.402529	122.409029	123.625018
185.285714	119.770079	120.404408	121.420136	121.456167	122.46439	123.681715
185.428571	119.831904	120.467673	121.463299	121.507904	122.536283	123.731807
185.571429	119.888447	120.523941	121.515024	121.561625	122.589276	123.776512
185.714286	119.934649	120.583235	121.55652	121.615145	122.642849	123.851596
185.857143	119.990428	120.642102	121.602532	121.667136	122.702088	123.906807
186	120.057921	120.693622	121.662771	121.719595	122.738703	123.97191
186.142857	120.113804	120.759702	121.713135	121.770857	122.79213	124.053895
186.285714	120.166872	120.82109	121.761094	121.823984	122.852425	124.115225
186.428571	120.22985	120.872058	121.813821	121.875523	122.91386	124.182875
186.571429	120.273536	120.928683	121.863016	121.927101	122.963991	124.250187
186.714286	120.329198	120.982296	121.90256	121.97826	123.006852	124.305408
186.857143	120.389416	121.025664	121.953229	122.029916	123.062524	124.342715
187	120.423244	121.075473	121.998039	122.080679	123.113511	124.386046
187.142857	120.478939	121.122988	122.043902	122.132005	123.171639	124.41234
187.285714	120.53439	121.170977	122.096174	122.18568	123.22002	124.459715
187.428571	120.586251	121.221888	122.145459	122.237928	123.283959	124.50082
187.571429	120.644256	121.281452	122.194951	122.290492	123.339637	124.547135
187.714286	120.693336	121.34229	122.250939	122.343084	123.399649	124.592511
187.857143	120.747223	121.395916	122.302256	122.39687	123.442508	124.642456
188	120.791239	121.450027	122.353617	122.449945	123.492901	124.687004
188.142857	120.831602	121.503847	122.40885	122.504178	123.552194	124.730169
