depth(m) lower_95(kyr) lower_68(kyr) median(kyr) mean(kyr) upper_68(kyr) upper_95(kyr)
0.540000 2.986387 3.765571 4.543696 4.547877 5.290654 6.134733
0.665000 3.454054 4.282460 5.108758 5.118027 5.933877 6.872095
0.790000 3.978123 4.861857 5.702447 5.709461 6.564487 7.629000
0.915000 4.493419 5.436093 6.276642 6.328360 7.284102 8.338415
1.040000 5.141230 6.017350 6.946480 6.975995 7.962938 8.972476
1.167500 5.835778 6.677539 7.766664 7.754868 8.771466 9.886001
1.295000 6.478194 7.503586 8.611347 8.562906 9.613202 10.616681
1.422500 7.280696 8.317857 9.417033 9.334895 10.295214 11.146790
1.550000 8.224542 9.135954 10.151495 10.091601 10.989790 11.764941
1.670000 9.047900 10.032633 10.904674 10.862758 11.691459 12.413784
1.755000 9.626640 10.481830 11.372607 11.328740 12.121063 12.819635
1.840000 10.099406 11.024428 11.856867 11.781298 12.525120 13.171701
1.945000 10.802220 11.587997 12.400976 12.317581 12.983312 13.605146
2.050000 11.391671 12.177632 12.915929 12.839204 13.468079 14.050783
2.120000 11.782233 12.540957 13.209299 13.162163 13.775090 14.378399
2.200000 12.107862 12.918344 13.589372 13.521492 14.169741 14.689575
2.280000 12.477501 13.221545 13.916506 13.864151 14.519683 15.039756
2.403333 12.968434 13.692799 14.348875 14.334706 14.981866 15.618028
2.526667 13.377576 14.137586 14.792356 14.804951 15.485596 16.203953
2.650000 13.760958 14.569958 15.237603 15.260100 15.934871 16.835716
2.778571 14.208074 15.003710 15.687521 15.716518 16.424463 17.461627
2.907143 14.569666 15.359377 16.105294 16.166259 16.994595 18.278189
3.035714 15.034962 15.734969 16.513761 16.628107 17.526242 18.956006
3.164286 15.428651 16.106470 16.925847 17.069500 18.010346 19.468469
3.292857 15.828439 16.507288 17.356904 17.507059 18.451999 20.078963
3.421429 16.201959 16.903970 17.754418 17.949622 18.981686 20.546354
3.550000 16.620139 17.283104 18.197356 18.372886 19.421083 21.059511
3.672500 16.904337 17.615464 18.555235 18.759367 19.858957 21.594329
3.795000 17.286836 17.963568 18.962804 19.153564 20.319312 22.241776
3.917500 17.597075 18.333149 19.364143 19.539696 20.755825 22.671835
4.040000 17.949497 18.673619 19.743356 19.928023 21.172208 23.074558
4.167500 18.239614 19.031673 20.132336 20.336409 21.655390 23.516110
4.295000 18.561560 19.409207 20.540882 20.754064 22.130608 24.020482
4.422500 18.852504 19.785459 20.957624 21.175212 22.651405 24.695043
4.550000 19.149873 20.183626 21.317584 21.582482 23.114870 25.068218
4.695385 19.537384 20.576304 21.819332 22.048471 23.599859 25.624934
4.840769 19.926490 21.005922 22.296431 22.521334 24.078630 26.244157
4.986154 20.280517 21.419143 22.756860 22.964896 24.618235 26.635702
5.131538 20.601470 21.820095 23.195633 23.414469 25.055866 27.068387
5.276923 20.927785 22.246155 23.649407 23.892838 25.567387 27.507584
5.422308 21.288703 22.653532 24.180464 24.368485 26.059793 27.990195
5.567692 21.762050 23.080656 24.644107 24.835666 26.532057 28.484690
5.713077 22.127192 23.536366 25.134114 25.315251 27.088736 29.167940
5.858462 22.478832 23.990159 25.625286 25.800491 27.623349 29.657780
6.003846 22.902406 24.536971 26.078095 26.298098 28.119151 30.365562
6.149231 23.353392 25.014531 26.630140 26.809495 28.702171 30.878683
6.294615 23.821117 25.506702 27.083078 27.336765 29.281145 31.746186
6.440000 24.296274 26.047951 27.632603 27.893021 29.917835 32.587804
6.567500 24.681950 26.498226 28.151331 28.416051 30.421499 33.334769
6.695000 25.217303 27.010351 28.618168 28.958938 31.081862 33.947717
6.822500 25.781555 27.548716 29.194851 29.510610 31.686697 34.694710
6.950000 26.165786 28.017631 29.833100 30.098276 32.300975 35.443713
7.090000 26.592961 28.574359 30.411249 30.753890 33.086185 36.294359
7.230000 27.251893 29.160101 31.054732 31.426708 33.851065 37.180153
7.370000 27.703170 29.680857 31.734262 32.079570 34.742736 38.115573
7.510000 28.387330 30.200233 32.341566 32.772495 35.534395 39.248603
7.650000 29.020124 30.797218 32.926062 33.434344 36.293593 40.428160
7.790000 29.547929 31.328983 33.578900 34.135867 37.081157 41.343966
7.930000 30.137151 31.920424 34.340414 34.820015 37.719576 42.181828
8.060000 30.664334 32.373804 34.996518 35.455970 38.655613 42.905793
8.190000 31.071189 32.932781 35.596114 36.079205 39.267578 43.681358
8.320000 31.429224 33.515480 36.176067 36.696081 40.049780 44.248548
8.450000 31.924480 34.108933 36.724947 37.303115 40.694266 45.114818
8.587500 32.318111 34.589930 37.360081 37.911437 41.370527 45.605743
8.725000 32.705877 35.136565 38.028660 38.538662 42.121757 46.135823
8.862500 33.175334 35.626772 38.761995 39.152322 42.786123 46.805358
9.000000 33.605292 36.130709 39.532426 39.758458 43.427422 47.193869
9.137500 34.008877 36.680836 40.163891 40.385576 44.176569 47.840923
9.275000 34.369082 37.133993 40.802100 41.000361 44.893423 48.352866
9.412500 34.824970 37.666836 41.500022 41.607376 45.583166 48.961687
9.550000 35.225199 38.163778 42.214304 42.228574 46.221755 49.722450
9.687500 35.602823 38.631264 42.809777 42.832703 46.916936 50.233039
9.825000 36.001600 39.110220 43.543323 43.456461 47.503209 50.619912
9.962500 36.418649 39.573701 44.174547 44.064322 48.172350 51.239404
10.100000 36.911377 40.077058 44.889279 44.688611 48.737923 51.833857
10.222500 37.503137 40.485808 45.426161 45.242791 49.305031 52.295333
10.345000 37.914719 40.852120 46.021567 45.791329 49.884460 52.880497
10.467500 38.331796 41.394510 46.483287 46.317410 50.378692 53.615253
10.590000 38.904703 41.863107 47.163136 46.854350 50.879270 54.116238
10.715000 39.305172 42.371723 47.826757 47.407038 51.531110 54.818940
10.840000 39.661393 42.874269 48.398500 47.943986 52.134766 55.595135
10.965000 40.073758 43.445515 49.148704 48.488506 52.801367 56.008384
11.090000 40.447498 43.872432 49.764789 49.016978 53.302374 56.504217
11.215000 40.824849 44.335887 50.344750 49.531094 53.809078 56.951745
11.340000 41.257913 44.813379 50.822996 50.040332 54.327638 57.392628
11.465000 41.659931 45.298557 51.341309 50.520934 54.814686 57.810377
11.590000 42.113460 45.792541 51.792080 50.992900 55.169119 58.193572
11.715000 42.513453 46.367933 52.240783 51.462780 55.723213 58.646920
11.840000 42.889824 47.018648 52.669280 51.921206 56.200281 58.976361
11.965000 43.295703 47.506509 53.092654 52.378369 56.609970 59.385415
12.090000 43.754959 48.012954 53.546715 52.825689 57.026541 59.654617
12.228889 44.134480 48.627287 54.013021 53.316721 57.369072 60.101180
12.367778 44.692728 49.210537 54.425539 53.805415 57.739221 60.463604
12.506667 45.443502 49.765334 54.858623 54.274976 58.166402 60.915287
12.645556 45.959245 50.339642 55.311577 54.752945 58.604303 61.246605
12.784444 46.780497 51.122012 55.729761 55.265786 59.042170 61.625879
12.923333 47.263432 51.785474 56.184464 55.748558 59.411980 62.038718
13.062222 47.726677 52.476151 56.648257 56.239812 59.791680 62.423427
13.201111 48.030506 53.064796 57.124293 56.723559 60.177666 62.814843
13.340000 48.551922 53.740993 57.591001 57.210796 60.588548 63.118517
13.478889 49.404117 54.387300 58.032955 57.695137 60.953410 63.556036
13.617778 50.072883 54.999806 58.552717 58.178830 61.322769 63.920991
13.756667 50.672205 55.466496 59.028393 58.650153 61.734062 64.317388
13.895556 51.026806 56.063168 59.543422 59.127604 62.136693 64.678622
14.034444 51.612233 56.649840 59.993076 59.612064 62.540266 65.021818
14.173333 52.102229 57.215908 60.418796 60.088151 62.952604 65.384105
14.312222 52.667981 57.791042 60.914874 60.580380 63.438208 65.777576
14.451111 53.738151 58.406662 61.379487 61.070800 63.839135 66.110563
14.590000 54.353285 58.950058 61.865519 61.558572 64.275422 66.640689
14.721250 54.970518 59.350431 62.324136 62.016938 64.628875 67.005585
14.852500 55.852941 59.817232 62.819393 62.485994 65.024850 67.451356
14.983750 56.823174 60.360121 63.211374 62.974029 65.444845 67.784137
15.115000 57.466281 60.872646 63.685529 63.454719 65.893164 68.164114
15.246250 58.306534 61.472889 64.197279 63.952555 66.369544 68.554800
15.377500 59.055538 62.091703 64.679256 64.453973 66.786575 68.864700
15.508750 59.865345 62.720875 65.109304 64.954513 67.222635 69.243308
15.640000 60.832347 63.309428 65.638359 65.482721 67.689794 69.688015
15.765000 61.278341 63.753962 66.081494 65.966227 68.084882 70.107978
15.890000 61.950032 64.434568 66.608752 66.502849 68.568736 70.517076
16.015000 62.677186 65.017074 67.208299 67.058374 69.060340 71.033344
16.140000 63.408226 65.617131 67.761088 67.614115 69.542182 71.409637
16.265000 63.884623 66.298246 68.335744 68.216237 70.035253 71.889460
16.390000 64.805010 67.037296 68.900665 68.815702 70.600885 72.364277
16.515000 65.694416 67.761223 69.510596 69.474605 71.239811 73.089029
16.640000 66.562212 68.497635 70.135839 70.154914 71.906001 73.791367
16.765000 67.428466 69.226420 70.843473 70.901842 72.694305 74.530523
16.890000 68.333800 69.960804 71.625200 71.704570 73.438980 75.279158
17.015000 69.088392 70.802142 72.441532 72.507690 74.270961 76.145882
17.140000 70.082794 71.596669 73.235789 73.309398 75.084302 76.904099
17.265000 70.936310 72.293566 74.040775 74.099734 75.917042 77.621632
17.390000 71.525278 73.060839 74.831080 74.868514 76.767147 78.485595
17.515000 72.180485 73.895344 75.605638 75.637245 77.484357 79.315420
17.640000 72.872154 74.596381 76.465218 76.434605 78.204423 79.856012
17.765000 73.454925 75.382796 77.152948 77.153596 78.902017 80.745737
17.890000 74.301651 76.170595 77.853585 77.866351 79.502606 81.533733
18.015000 75.116541 76.935412 78.582003 78.586745 80.197903 82.285449
18.140000 75.637458 77.748914 79.261752 79.287217 80.898293 83.071397
18.267500 76.185786 78.411097 79.986676 79.992732 81.563844 83.714747
18.395000 76.998816 79.210881 80.638819 80.715758 82.326764 84.430271
18.522500 77.836239 79.886198 81.315341 81.410679 83.020857 84.881388
18.650000 78.587067 80.551761 82.048545 82.100365 83.727279 85.589548
18.791429 79.201848 81.229183 82.824270 82.857966 84.448303 86.621582
18.932857 79.937010 81.845149 83.500995 83.572847 85.265903 87.653102
19.074286 80.475044 82.515861 84.214829 84.328960 86.144595 88.951173
19.215714 81.192860 83.135727 84.824267 85.038598 86.969323 89.839823
19.357143 81.903508 83.859030 85.519406 85.752165 87.707479 90.944963
19.498571 82.762278 84.542999 86.183563 86.501679 88.583875 92.030255
19.640000 83.520266 85.235995 86.836662 87.214536 89.389279 92.914369
19.767500 84.179009 85.899147 87.487460 87.895059 90.051290 93.585241
19.895000 84.906522 86.574878 88.236622 88.615773 90.737522 94.157921
20.022500 85.552240 87.252493 88.939393 89.278313 91.374338 94.635129
20.150000 86.168746 87.961409 89.673657 89.979058 92.070488 95.254933
20.275000 86.772637 88.571625 90.392945 90.658615 92.847605 95.991356
20.400000 87.461627 89.293478 91.219963 91.388913 93.576133 96.482754
20.525000 88.005295 89.982564 91.978628 92.108950 94.254240 97.003234
20.650000 88.550491 90.637691 92.618570 92.804186 94.964558 97.540796
20.791429 89.258474 91.268311 93.469138 93.578446 95.836948 98.573639
20.932857 89.855651 92.072412 94.224711 94.328612 96.598751 99.239659
21.074286 90.595383 92.877332 95.045490 95.113027 97.333993 100.199027
21.215714 91.333856 93.639852 95.786614 95.869413 98.180301 100.889652
21.357143 92.109702 94.320608 96.518320 96.647747 99.057729 101.746563
21.498571 92.580478 95.103741 97.278754 97.426079 99.845977 102.929002
21.640000 93.327936 95.923370 97.986336 98.217298 100.565995 103.868878
21.767500 94.012983 96.581943 98.652362 98.892386 101.216751 104.650649
21.895000 94.917855 97.334961 99.354827 99.585591 101.893970 105.439118
22.022500 95.650746 97.961973 100.023926 100.274229 102.549593 105.957375
22.150000 96.527499 98.704081 100.730324 100.993606 103.250560 106.548410
22.272500 97.389038 99.315470 101.430334 101.681010 104.090232 107.355388
22.395000 97.838777 99.910333 102.159742 102.338154 104.679286 107.950798
22.517500 98.340567 100.608559 102.750667 103.034449 105.358681 108.883036
22.640000 99.066188 101.280464 103.592136 103.754335 106.306273 109.491856
22.765000 99.854593 101.943129 104.335649 104.499556 107.042662 110.499449
22.890000 100.553889 102.701844 105.116606 105.301293 107.954511 111.244329
23.015000 101.381082 103.370021 105.980407 106.129359 108.919806 111.936169
23.140000 102.066068 104.240347 106.880228 106.986745 109.767777 112.585275
23.265000 102.985988 105.249735 107.883066 107.915877 110.637109 113.259781
23.390000 103.795865 106.212720 108.867485 108.852770 111.516982 113.896372
23.515000 104.785909 107.102284 109.748943 109.760723 112.366419 114.543269
23.640000 105.700790 108.181251 110.797874 110.729358 113.288112 115.215799
23.765000 106.705960 109.186574 111.816980 111.729252 114.210838 115.941837
23.890000 107.825735 110.525527 112.987329 112.813440 115.143823 116.823098
24.015000 109.118505 111.779633 113.998700 113.876752 115.986943 117.823753
24.140000 110.516654 113.022948 115.057866 114.971855 116.800201 118.730386
24.265000 112.081681 114.235700 116.198117 116.101997 118.005331 119.636509
24.390000 113.236448 115.495581 117.326200 117.240363 118.985172 120.612385
24.515000 114.845738 116.787138 118.415642 118.364586 119.975416 121.444028
24.640000 116.544995 117.942753 119.484078 119.483411 121.039796 122.315127
24.765000 117.378041 118.934327 120.358682 120.391505 121.932160 123.270850
24.890000 118.459428 119.791863 121.202066 121.252510 122.778184 124.243302
25.015000 119.420645 120.677483 122.034698 122.086273 123.581167 124.884445
25.140000 120.190577 121.416916 122.863320 122.888016 124.299553 125.676773
25.240000 120.755655 122.138763 123.553524 123.526361 124.940649 126.213953
25.340000 121.429210 122.758244 124.136740 124.132689 125.605229 126.730214
25.465000 122.117738 123.531303 125.013610 125.000751 126.446620 127.630746
25.590000 123.089381 124.465566 125.880273 125.839343 127.218857 128.398328
25.715000 123.913665 125.437615 126.715134 126.673124 127.989349 129.135743
25.840000 124.883017 126.240661 127.528706 127.480586 128.753045 129.992851
25.965000 125.563261 126.943520 128.257703 128.210419 129.430300 130.783820
26.090000 126.146027 127.726981 128.908400 128.942704 130.243298 131.553989
26.215000 127.079946 128.438823 129.595239 129.649489 130.938237 132.342863
26.340000 127.981722 129.120664 130.284125 130.351786 131.612141 132.977486
26.465000 128.711384 129.811619 130.963896 131.049179 132.320228 133.768123
26.590000 129.303852 130.413458 131.633065 131.736248 133.131891 134.498491
26.715000 129.950044 131.049593 132.324238 132.406402 133.869070 135.163237
26.840000 130.517096 131.643086 132.971060 133.060916 134.529608 135.712363
26.965000 130.923266 132.252062 133.678343 133.713678 135.236809 136.715330
27.090000 131.578440 132.824594 134.316389 134.312841 135.851648 137.450626
27.215000 132.107196 133.302134 134.860022 134.921319 136.570925 137.976595
27.340000 132.535671 133.826442 135.505119 135.505784 137.193857 138.646395
27.482857 133.096740 134.406094 136.094752 136.101805 137.817233 139.396874
27.625714 133.634097 134.922163 136.667656 136.694517 138.432880 140.121921
27.768571 134.189739 135.407836 137.188821 137.266275 139.068759 140.752522
27.911429 134.765577 135.913282 137.845254 137.830552 139.575497 141.632060
28.054286 135.242056 136.408402 138.380973 138.389045 140.132209 142.445059
28.197143 135.683739 136.941599 138.933677 138.946337 140.680564 143.148927
28.340000 136.116624 137.456618 139.531535 139.505508 141.216465 143.785674
28.465000 136.528881 137.927226 140.023084 139.996084 141.691319 144.388181
28.590000 136.938893 138.417221 140.500379 140.481119 142.193538 144.833841
28.715000 137.393241 138.908207 140.962700 140.967445 142.746964 145.577567
28.840000 137.855699 139.337168 141.395390 141.454169 143.275742 146.151698
28.965000 138.319722 139.780915 141.812669 141.950707 143.847343 146.787073
29.090000 138.744152 140.261220 142.315873 142.475183 144.445229 147.673464
29.215000 139.242525 140.769158 142.874283 143.001823 144.992135 148.155250
29.340000 139.748258 141.282663 143.407291 143.525785 145.669041 148.652817
29.465000 140.219345 141.834303 143.858824 144.027646 146.255545 149.246546
29.590000 140.699398 142.327369 144.341740 144.550622 146.808594 149.858871
29.715000 141.148495 142.863624 144.819688 145.085806 147.378399 150.418467
29.840000 141.507074 143.446943 145.364080 145.628741 147.982002 151.121984
29.965000 141.855132 143.834839 145.887521 146.134536 148.578898 151.805329
30.090000 142.242131 144.250061 146.363831 146.635943 149.224256 152.377743
30.215000 142.674989 144.715414 146.811897 147.116651 149.773538 152.842156
30.340000 143.094038 145.180818 147.265612 147.616751 150.455599 153.179274
30.482857 143.444990 145.601671 147.843161 148.156667 150.950968 153.701009
30.625714 143.860158 146.103478 148.294718 148.704784 151.530995 154.215437
30.768571 144.397582 146.638095 148.835293 149.249488 152.221729 154.718600
30.911429 144.857213 147.091497 149.352556 149.783409 152.825359 155.181882
31.054286 145.408620 147.513359 149.926480 150.314867 153.440901 155.700008
31.197143 145.879802 147.967106 150.487412 150.834895 154.007180 156.295049
31.340000 146.334285 148.441293 151.040683 151.336858 154.540813 156.821787
31.482857 146.845711 148.972276 151.602717 151.869910 155.059239 157.216099
31.625714 147.284882 149.470262 152.155708 152.418257 155.586742 157.673849
31.768571 147.725907 149.952382 152.740381 152.968430 156.257636 158.152112
31.911429 148.290899 150.563194 153.321087 153.515305 156.805139 158.663040
32.054286 148.738264 150.976020 153.913585 154.057971 157.405816 159.203599
32.197143 149.172438 151.487735 154.482287 154.590574 157.991753 159.761615
32.340000 149.666100 151.992358 154.982766 155.119434 158.561849 160.443530
32.482857 150.045512 152.559192 155.453006 155.650494 159.056746 160.878919
32.625714 150.506786 153.037798 156.018713 156.184315 159.602030 161.519892
32.768571 150.931695 153.525997 156.531737 156.717255 160.097498 162.161671
32.911429 151.440147 154.002907 157.088200 157.267757 160.680971 162.639208
33.054286 151.948916 154.525661 157.689511 157.820242 161.139663 163.271955
33.197143 152.357376 155.087058 158.310730 158.383749 161.750714 164.011160
33.340000 152.797607 155.659424 158.834630 158.968650 162.285672 164.771365
33.465000 153.320683 156.086266 159.384468 159.478607 162.762250 165.451338
33.590000 153.725242 156.645595 159.925139 159.984389 163.197119 166.049966
33.715000 154.175508 157.172079 160.455653 160.500185 163.662028 166.705840
33.840000 154.911346 157.686476 160.951208 161.015420 164.171634 167.341944
33.965000 155.506247 158.339376 161.460370 161.565693 164.608881 168.248271
34.090000 155.973933 158.908332 162.000739 162.111945 165.083281 169.078927
34.215000 156.550506 159.432822 162.661725 162.663408 165.577904 169.625379
34.340000 157.278154 159.955518 163.324882 163.225896 166.105695 170.531934
34.482857 157.974415 160.617670 163.933982 163.833598 166.681266 171.272470
34.625714 158.712982 161.161942 164.595239 164.438431 167.225408 172.013340
34.768571 159.333697 161.717263 165.263827 165.047051 167.898439 172.841822
34.911429 160.142954 162.290604 165.872818 165.669602 168.568813 173.463648
35.054286 160.807219 162.927431 166.464105 166.295322 169.168456 174.182578
35.197143 161.475291 163.532315 167.075399 166.932504 169.869070 175.168420
35.340000 162.029471 164.214312 167.679671 167.586030 170.560627 175.924436
35.470000 162.512662 164.699971 168.230351 168.193346 171.184751 176.744456
35.600000 163.027614 165.270855 168.847061 168.824242 171.846903 177.332735
35.730000 163.708078 165.835372 169.458957 169.449577 172.467026 178.059411
35.860000 164.218784 166.485046 170.044683 170.090898 173.183360 178.678185
35.990000 164.661994 167.081645 170.623439 170.730652 173.871497 179.256250
36.115000 165.168573 167.705772 171.331754 171.339194 174.583912 179.760499
36.240000 165.617106 168.252928 171.856021 171.957214 175.356426 180.316462
36.365000 166.166809 168.828018 172.412431 172.549614 175.918850 181.032154
