depth(m) lower_95(kyr) lower_68(kyr) median(kyr) mean(kyr) upper_68(kyr) upper_95(kyr)
0.000000 0.021097 0.112987 0.430758 0.499016 0.894623 1.481878
0.040000 0.216479 0.366246 0.704836 0.772470 1.176676 1.842791
0.080000 0.406510 0.602394 0.961055 1.034021 1.441681 2.168932
0.120000 0.624309 0.846517 1.232735 1.295886 1.719695 2.505726
0.160000 0.802923 1.072951 1.483636 1.553835 1.993723 2.787261
0.200000 1.031857 1.319470 1.754588 1.814720 2.283062 3.085813
0.240000 1.248872 1.557740 2.003352 2.071746 2.593460 3.371815
0.280000 1.463568 1.810720 2.254420 2.327143 2.855496 3.671086
0.320000 1.677103 2.057216 2.491378 2.582684 3.105570 3.959021
0.360000 1.918142 2.295624 2.751069 2.837004 3.408572 4.232474
0.400000 2.130189 2.538721 3.001046 3.091036 3.692258 4.512505
0.440000 2.381398 2.774068 3.257502 3.344564 3.973892 4.748455
0.480000 2.597792 3.025557 3.517831 3.603061 4.259128 4.987307
0.520000 2.800066 3.272517 3.777952 3.852472 4.520246 5.203873
0.560000 3.006047 3.514217 4.053356 4.108548 4.800358 5.437142
0.600000 3.249373 3.750669 4.306562 4.365412 5.058996 5.671434
0.640000 3.509964 4.005622 4.561634 4.624838 5.343189 5.893907
0.680000 3.750267 4.244588 4.832706 4.881893 5.591893 6.157042
0.720000 3.987488 4.489794 5.074322 5.145365 5.888401 6.395135
0.760000 4.263111 4.762322 5.368348 5.427108 6.166092 6.654674
0.800000 4.568503 5.047415 5.665331 5.716718 6.406678 6.968410
0.840000 4.845657 5.348563 5.989552 6.030154 6.723003 7.324440
0.880000 5.172970 5.669618 6.345053 6.360942 7.045900 7.616759
0.920000 5.454731 6.002200 6.718368 6.718001 7.412746 8.022369
0.960000 5.728065 6.367431 7.100243 7.092429 7.823568 8.474731
1.000000 6.110752 6.808954 7.566756 7.539577 8.255797 9.003726
1.040000 6.618339 7.300033 8.032686 8.056623 8.823728 9.609572
1.080000 7.095539 7.836927 8.587168 8.620732 9.455965 10.189462
1.120000 7.619138 8.365680 9.153646 9.185709 10.040511 10.624793
1.160000 8.211974 8.952830 9.872748 9.841981 10.718028 11.327101
1.200000 8.862618 9.474447 10.477142 10.390432 11.237970 11.873073
1.240000 9.279856 9.932752 11.003245 10.872245 11.703702 12.266935
1.250000 9.364988 10.035028 11.090971 10.971590 11.810618 12.342024
1.290000 9.738579 10.477741 11.443375 11.345815 12.130102 12.687477
1.330000 10.090177 10.852074 11.797109 11.700176 12.457021 13.018071
1.370000 10.574864 11.199116 12.110922 12.028317 12.752598 13.239185
1.410000 11.028317 11.649214 12.456455 12.397584 13.067835 13.569759
1.450000 11.550963 12.204889 12.934744 12.870938 13.476517 14.000423
1.490000 12.049705 12.812035 13.469557 13.405424 13.987059 14.543506
1.530000 12.836225 13.492347 14.057347 14.049931 14.598087 15.143925
1.570000 13.560764 14.102874 14.674281 14.690121 15.273890 15.898216
1.610000 14.366964 14.989426 15.598195 15.612236 16.250924 16.850774
1.650000 15.139276 15.783189 16.442992 16.459368 17.088814 17.909869
1.690000 15.840165 16.330043 17.007394 17.050496 17.731275 18.738920
1.730000 16.247800 16.774411 17.451657 17.549853 18.321217 19.316641
1.770000 16.529521 17.140868 17.893030 17.977922 18.886168 19.767284
1.810000 16.823532 17.465941 18.290817 18.393257 19.399680 20.311978
1.850000 17.162035 17.834534 18.754097 18.813437 19.881328 20.818273
1.890000 17.521062 18.186618 19.153454 19.232290 20.361809 21.215610
1.930000 17.786834 18.550313 19.651584 19.660898 20.785638 21.567201
1.970000 18.102030 18.955739 20.096698 20.083441 21.196507 21.945157
2.010000 18.397334 19.399582 20.575096 20.495430 21.566281 22.267377
2.050000 18.828309 19.819126 21.039721 20.921223 21.957709 22.547872
2.090000 19.122849 20.286850 21.472652 21.316246 22.273437 22.874734
2.130000 19.577702 20.695521 21.895730 21.732789 22.625196 23.188132
2.170000 19.919501 21.185892 22.306216 22.138857 22.953329 23.523660
2.210000 20.515095 21.692300 22.688996 22.539499 23.310767 23.882859
2.250000 20.952698 22.142896 23.059064 22.929220 23.669892 24.325995
2.290000 21.488271 22.618306 23.425424 23.321524 24.025770 24.778572
2.330000 21.871926 23.056753 23.771368 23.712991 24.370276 25.171649
2.370000 22.214012 23.437139 24.128939 24.085376 24.767118 25.622831
2.410000 22.569220 23.843565 24.485394 24.460811 25.143697 26.060174
2.450000 22.953129 24.203122 24.831177 24.826634 25.539702 26.431206
2.490000 23.329129 24.543263 25.196644 25.198376 25.933682 26.793487
2.530000 23.773578 24.915181 25.610846 25.585482 26.398268 27.072673
2.570000 24.142225 25.265534 25.992278 25.977199 26.835351 27.418511
2.610000 24.577113 25.631972 26.364564 26.357488 27.177163 27.796778
2.650000 24.899484 26.002706 26.774434 26.750095 27.569769 28.199534
2.690000 25.274041 26.328208 27.125020 27.097464 27.919098 28.524158
2.730000 25.464809 26.634113 27.443640 27.413650 28.204157 28.837361
2.750000 25.632433 26.829284 27.640599 27.590833 28.365938 29.040953
2.790000 25.893025 27.152788 27.955975 27.910239 28.748545 29.342016
2.830000 26.339592 27.474654 28.272116 28.227927 29.051472 29.693639
2.870000 26.600415 27.784058 28.580336 28.547448 29.378656 30.076652
2.910000 26.934702 28.114431 28.910331 28.861166 29.713074 30.390866
2.950000 27.265431 28.409299 29.205067 29.167177 30.013314 30.672867
2.990000 27.687083 28.699002 29.492229 29.470053 30.302175 30.923116
3.030000 28.152524 28.995189 29.763284 29.775214 30.610587 31.221836
3.110000 28.708883 29.646357 30.322755 30.352389 31.158165 31.811665
3.150000 29.023784 29.954931 30.604798 30.659800 31.466969 32.070669
3.190000 29.364582 30.252491 30.881303 30.956909 31.740747 32.375512
3.230000 29.709895 30.511409 31.196029 31.239416 32.003625 32.703885
3.310000 30.282252 31.061184 31.742569 31.771640 32.518733 33.252175
3.390000 30.822507 31.626826 32.275645 32.296349 33.034737 33.828214
3.430000 31.136099 31.893342 32.568230 32.588459 33.307339 34.124457
3.470000 31.433458 32.171968 32.837984 32.871377 33.566181 34.435740
3.510000 31.770167 32.442481 33.115996 33.154621 33.828623 34.795628
3.590000 32.288693 32.951985 33.640857 33.661604 34.338541 35.425592
3.630000 32.628434 33.244527 33.884225 33.929460 34.575935 35.676976
3.670000 32.909160 33.535644 34.174965 34.214859 34.860011 35.888717
3.710000 33.169270 33.835895 34.483106 34.510593 35.159449 36.161947
3.750000 33.514808 34.118172 34.765240 34.793943 35.439687 36.360874
3.790000 33.799306 34.383847 35.036937 35.080578 35.740645 36.843869
3.830000 34.111887 34.666521 35.326559 35.370212 36.060436 37.146929
3.870000 34.418324 34.937122 35.608744 35.650500 36.351465 37.421076
3.910000 34.711763 35.216127 35.897000 35.936866 36.601573 37.690320
3.950000 34.973304 35.482939 36.178890 36.217018 36.884120 37.961916
3.990000 35.247769 35.768098 36.459546 36.496181 37.190072 38.245108
4.030000 35.497007 36.042857 36.743718 36.779302 37.468233 38.525465
4.070000 35.760096 36.343355 37.034357 37.064598 37.748619 38.756572
4.110000 36.026973 36.623549 37.323119 37.348289 38.041804 39.061711
4.150000 36.329354 36.895095 37.611615 37.629996 38.315004 39.309499
4.190000 36.650351 37.202394 37.875956 37.914013 38.593979 39.608239
4.230000 36.934903 37.493640 38.173865 38.196143 38.880903 39.899480
4.250000 37.093090 37.638270 38.316626 38.347656 39.055521 40.046867
4.290000 37.371096 37.911429 38.607574 38.641662 39.319583 40.273890
4.330000 37.691197 38.210976 38.883615 38.930534 39.595704 40.603323
4.370000 37.969426 38.476668 39.178619 39.217076 39.883608 40.955554
4.410000 38.249379 38.767761 39.476072 39.501422 40.172010 41.244179
4.450000 38.478795 39.031177 39.761420 39.782282 40.457560 41.512353
4.490000 38.789322 39.310668 40.043387 40.072653 40.750215 41.828290
4.530000 39.079317 39.592784 40.349120 40.363301 41.001791 42.192351
4.570000 39.349292 39.855765 40.646399 40.658652 41.308145 42.594840
4.610000 39.659309 40.169841 40.931974 40.952749 41.592304 42.987477
4.650000 39.948458 40.485774 41.230063 41.265572 41.892948 43.374734
4.690000 40.218920 40.797091 41.518312 41.563510 42.184695 43.776701
4.730000 40.564972 41.147183 41.804284 41.879719 42.516496 44.101940
4.770000 40.848362 41.453849 42.114653 42.184567 42.819353 44.453465
4.810000 41.128330 41.780112 42.422897 42.496119 43.142180 44.758653
4.850000 41.453557 42.091554 42.727680 42.810327 43.441329 45.051036
4.890000 41.797456 42.446375 43.018612 43.133729 43.752658 45.379933
4.930000 42.169468 42.766479 43.334253 43.452452 44.149220 45.694202
4.970000 42.431669 43.082733 43.636215 43.764730 44.431633 45.999399
5.010000 42.780873 43.398200 43.960073 44.079075 44.742995 46.329089
5.050000 43.060382 43.702532 44.289788 44.395282 45.031581 46.656439
5.090000 43.356047 43.996482 44.589838 44.697762 45.316819 47.050494
5.130000 43.612336 44.305509 44.901290 45.006093 45.610555 47.325867
5.170000 43.961660 44.588660 45.215511 45.305861 45.906867 47.658635
5.210000 44.201437 44.877598 45.492065 45.597228 46.216387 47.918083
5.250000 44.487952 45.188432 45.812183 45.890951 46.520224 48.200841
5.290000 44.799108 45.476625 46.113841 46.188376 46.813284 48.506526
5.330000 45.080095 45.773489 46.393431 46.480822 47.107566 48.812910
5.410000 45.593983 46.302531 46.938230 47.029883 47.658186 49.519183
5.450000 45.905649 46.596601 47.228709 47.320587 47.930526 49.870171
5.490000 46.176463 46.876858 47.525594 47.617802 48.224398 50.217053
5.530000 46.494092 47.158947 47.809247 47.916036 48.520921 50.505413
5.650000 47.293392 47.930089 48.560325 48.733814 49.346617 51.821458
5.690000 47.607121 48.244598 48.871188 49.053806 49.695819 52.276514
5.730000 47.939569 48.527881 49.177386 49.384616 50.091110 52.612039
5.750000 48.084650 48.695457 49.346586 49.559162 50.276546 52.852068
5.790000 48.364815 48.986791 49.673389 49.914462 50.810264 53.192946
5.830000 48.665204 49.305336 50.030407 50.266259 51.221172 53.502595
5.870000 49.022184 49.586297 50.337462 50.611623 51.792127 53.852521
5.910000 49.326178 49.887460 50.659345 50.961083 52.287415 54.143320
5.950000 49.640800 50.185541 50.958162 51.308447 52.683556 54.486188
5.990000 49.960856 50.524024 51.294313 51.671424 53.135688 54.808239
6.030000 50.267698 50.862418 51.649872 52.030347 53.684432 55.119817
6.070000 50.559755 51.199741 51.976971 52.385323 54.125588 55.432306
6.110000 50.886323 51.551907 52.334134 52.757396 54.614219 55.726930
6.150000 51.229990 51.935613 52.676333 53.134190 55.113750 56.099749
6.190000 51.477937 52.284072 53.050208 53.514293 55.601724 56.445228
6.230000 51.807187 52.591882 53.422246 53.884849 55.997558 56.808916
6.270000 52.118561 52.918168 53.849917 54.262656 56.377758 57.188536
6.310000 52.465234 53.285150 54.213969 54.641352 56.746200 57.456757
6.350000 52.757209 53.593402 54.620336 55.010588 57.064619 57.785532
6.390000 53.073196 53.997232 55.035561 55.397142 57.363021 58.131092
6.430000 53.444156 54.375066 55.452193 55.776964 57.671167 58.446900
6.470000 53.842486 54.757637 55.924488 56.166640 57.949650 58.783271
6.510000 54.168161 55.160810 56.318130 56.550877 58.260650 59.065228
6.550000 54.642921 55.560738 56.716285 56.926326 58.573443 59.387592
6.590000 55.097729 55.933054 57.104424 57.294952 58.863384 59.751449
6.630000 55.490306 56.383815 57.526644 57.694947 59.214428 60.108811
6.670000 55.852539 56.820625 57.976430 58.111011 59.530946 60.452674
6.710000 56.287617 57.222213 58.442042 58.508434 59.885035 60.817425
6.750000 56.701824 57.655942 58.848446 58.901063 60.242248 61.092562
6.790000 57.090902 58.063382 59.232754 59.277902 60.585066 61.465933
6.830000 57.496849 58.491158 59.635174 59.677110 60.962929 61.804291
6.870000 57.904042 58.964955 60.077872 60.102065 61.342759 62.211203
6.910000 58.264536 59.433871 60.554840 60.566699 61.748768 62.615871
6.950000 58.839811 59.924539 61.075565 61.062830 62.197288 63.080861
6.990000 59.250600 60.470366 61.584504 61.559866 62.666892 63.472371
7.030000 59.944200 60.998683 62.074836 62.049049 63.127081 63.856252
7.070000 60.516842 61.528083 62.608674 62.547664 63.607646 64.215485
7.110000 61.037018 61.983294 63.081795 63.002049 63.976411 64.596380
7.150000 61.551417 62.412798 63.544052 63.440315 64.391090 64.948910
7.190000 61.951416 62.785963 64.013108 63.859779 64.772778 65.368531
7.230000 62.400275 63.196610 64.442315 64.262967 65.154592 65.827336
7.250000 62.573964 63.395810 64.631755 64.458380 65.349984 66.074159
7.290000 62.949856 63.767271 64.983671 64.826307 65.697926 66.382677
7.370000 63.529127 64.534328 65.667693 65.514319 66.361257 67.214264
7.410000 63.975353 64.912243 66.004684 65.874152 66.735477 67.598305
7.450000 64.312689 65.261123 66.362552 66.251695 67.115977 67.963478
7.490000 64.644711 65.633213 66.725200 66.635212 67.486180 68.335420
7.530000 65.064753 66.091936 67.091695 67.028420 67.896909 68.639528
7.610000 65.854858 66.942311 67.824950 67.789886 68.636661 69.372600
7.650000 66.349012 67.411060 68.185461 68.195080 69.024476 69.763953
7.690000 66.871634 67.886573 68.653031 68.644605 69.428923 70.238632
7.730000 67.414625 68.317008 69.142444 69.126567 69.922897 70.703862
7.770000 67.930173 68.776837 69.561824 69.573589 70.404616 71.137100
7.810000 68.375294 69.240259 70.039324 70.049600 70.897941 71.565639
7.850000 68.817414 69.711121 70.575686 70.573668 71.441048 72.147792
7.890000 69.321518 70.231257 71.111823 71.099804 71.970366 72.869017
7.930000 70.061430 70.838049 71.707542 71.720074 72.594468 73.484676
7.970000 70.574806 71.386347 72.307489 72.335280 73.277037 74.263589
8.010000 71.068239 71.980315 72.904528 72.956259 73.972780 74.976730
8.050000 71.673561 72.606593 73.577304 73.599940 74.589499 75.566120
8.090000 72.231386 73.274491 74.240247 74.296494 75.334087 76.417938
8.130000 72.825640 73.887290 74.991429 74.991867 76.081060 77.051202
8.170000 73.782213 74.771194 75.877217 75.840779 76.930346 77.824764
8.210000 74.565312 75.529196 76.596196 76.560775 77.583976 78.411722
8.250000 75.297118 76.244825 77.259485 77.213548 78.146805 78.826816
8.290000 75.947994 76.888607 77.892640 77.798474 78.638589 79.298475
8.330000 76.527987 77.505678 78.421993 78.337133 79.131605 79.716898
8.370000 77.210959 78.102629 78.944863 78.865761 79.550808 80.163036
8.410000 77.799228 78.659748 79.396372 79.352574 80.000804 80.624118
8.450000 78.407652 79.207502 79.851830 79.816309 80.425628 81.032533
8.490000 78.898087 79.693842 80.264510 80.258091 80.867109 81.435867
8.530000 79.384408 80.114451 80.686575 80.690125 81.307693 81.842681
8.570000 79.903934 80.538633 81.134801 81.134171 81.746738 82.344803
8.610000 80.449039 80.943453 81.550511 81.556109 82.169699 82.758515
8.650000 80.825571 81.363400 81.956874 81.957333 82.550854 83.137382
8.690000 81.241537 81.762700 82.351119 82.344785 82.949743 83.496238
8.730000 81.587827 82.113815 82.707777 82.712438 83.322438 83.868691
8.750000 81.799649 82.321009 82.893029 82.900698 83.494200 84.054670
8.790000 82.156932 82.719224 83.250303 83.264005 83.845718 84.362002
8.830000 82.514740 83.055810 83.635387 83.630801 84.198796 84.772305
8.870000 82.837447 83.452631 84.012240 84.012150 84.615595 85.207350
8.910000 83.277783 83.876213 84.410684 84.429646 85.006804 85.735353
8.950000 83.764014 84.327138 84.908892 84.940652 85.533158 86.413036
8.990000 84.255990 84.849782 85.572214 85.614306 86.341014 87.355687
9.030000 84.901022 85.517801 86.248870 86.342636 87.180808 88.472313
9.070000 85.425720 86.073615 86.952160 87.060557 88.034016 89.310294
9.110000 85.909338 86.704685 87.758158 87.839315 88.974351 90.202898
9.190000 86.925035 87.976448 89.450837 89.414655 90.773719 91.828748
9.230000 87.441926 88.707703 90.185059 90.098601 91.484806 92.389160
9.270000 87.932268 89.362371 90.848614 90.745670 92.091732 93.120843
9.310000 88.517788 90.003765 91.499719 91.394450 92.713409 93.727120
9.350000 89.157663 90.701955 92.193947 92.026337 93.276564 94.279644
9.390000 89.768329 91.371622 92.757965 92.623692 93.843747 94.734162
9.430000 90.488269 91.955411 93.345505 93.212298 94.432126 95.165519
9.470000 91.134386 92.587302 93.920030 93.775193 94.940729 95.663619
9.510000 91.743988 93.152139 94.456042 94.329991 95.463819 96.325764
9.550000 92.435173 93.796722 95.007444 94.926131 96.038730 96.972056
9.590000 93.253083 94.432024 95.635748 95.533740 96.612558 97.385737
9.630000 93.865687 95.129961 96.201958 96.127050 97.145197 97.910958
9.670000 94.507451 95.663218 96.752595 96.683438 97.689198 98.462088
9.710000 95.046729 96.180845 97.347030 97.216011 98.195942 98.910278
9.750000 95.479128 96.683250 97.829150 97.704831 98.617804 99.505632
9.790000 96.000842 97.177192 98.305884 98.187677 99.103012 100.038324
9.830000 96.520459 97.597547 98.756580 98.650378 99.513020 100.431992
9.870000 96.936022 98.113993 99.250045 99.111907 99.950374 100.992616
9.910000 97.424977 98.584879 99.663258 99.548520 100.367526 101.380752
9.950000 97.830946 99.027090 100.088537 99.978988 100.821374 101.833369
9.990000 98.293573 99.492272 100.501490 100.414543 101.276428 102.250967
10.030000 98.727343 99.965330 100.898238 100.840791 101.678280 102.754003
10.070000 99.145646 100.430223 101.289195 101.281940 102.092501 103.164450
10.110000 99.676641 100.949080 101.716382 101.730964 102.570610 103.655495
10.150000 100.007190 101.416565 102.159747 102.183418 103.094286 104.111906
10.190000 100.575896 101.858783 102.608279 102.661893 103.636037 104.669868
10.230000 100.970495 102.330442 103.043070 103.150117 104.214723 105.136114
10.250000 101.300591 102.549399 103.291224 103.398726 104.455559 105.394241
10.290000 101.889676 103.017610 103.846134 103.903258 104.964229 105.891454
10.330000 102.400150 103.475149 104.367948 104.407364 105.444185 106.327708
10.370000 102.811135 103.911530 104.904689 104.902920 105.942567 106.802985
10.410000 103.330946 104.377697 105.424275 105.383401 106.419133 107.273838
10.450000 103.684391 104.860779 105.952157 105.886398 106.907226 107.741593
10.490000 104.240033 105.388642 106.445406 106.383903 107.379330 108.194450
10.530000 104.824065 105.887432 106.958535 106.887658 107.852257 108.650488
10.570000 105.315176 106.429854 107.463256 107.407784 108.319620 109.115518
10.610000 105.838798 106.981221 108.003858 107.952281 108.846245 109.720537
10.650000 106.505882 107.660871 108.564043 108.509249 109.379360 110.316012
10.690000 107.206751 108.250816 109.098585 109.092441 109.940879 110.884282
10.730000 107.739641 108.806218 109.589671 109.617048 110.524809 111.446634
10.770000 108.370462 109.339240 110.110391 110.138731 111.041175 111.968050
10.810000 108.917623 109.807792 110.620799 110.656611 111.594612 112.466856
10.850000 109.417100 110.278471 111.132600 111.188430 112.116241 113.046357
10.890000 109.934154 110.775648 111.685512 111.737283 112.699550 113.606020
10.930000 110.417749 111.325877 112.296443 112.291668 113.251560 114.197534
10.970000 111.062052 111.898849 112.911561 112.894559 113.831029 114.842306
11.050000 112.277618 113.253295 114.197289 114.221908 115.224977 116.097695
11.090000 112.935953 113.974716 114.921944 114.923011 115.938116 116.967957
11.130000 113.733534 114.700158 115.681669 115.665096 116.683613 117.677503
11.170000 114.520979 115.471327 116.412157 116.456635 117.505705 118.468426
11.210000 115.581137 116.440058 117.387626 117.434730 118.493250 119.467201
11.250000 116.602342 117.505647 118.470714 118.541726 119.567867 120.679008
11.290000 117.451881 118.363443 119.409058 119.431050 120.446214 121.597619
11.330000 118.322300 119.314977 120.316851 120.331649 121.346806 122.493450
11.370000 119.109027 120.109874 121.128083 121.159924 122.200039 123.362289
11.410000 119.953892 120.940314 121.956361 121.990784 123.057655 124.083639
11.450000 120.800814 121.735156 122.784041 122.793651 123.901960 124.999350
11.490000 121.580782 122.490605 123.640894 123.620234 124.697161 125.717650
11.530000 122.374489 123.422132 124.543081 124.518020 125.596759 126.616441
11.570000 123.454732 124.494335 125.539634 125.581745 126.681809 127.808770
11.610000 124.800102 125.951250 127.014305 127.064416 128.238262 129.450790
11.650000 126.594582 127.662086 128.948682 128.931592 130.269737 131.268562
11.690000 127.910782 128.970330 130.162679 130.187186 131.390489 132.562966
