depth(m) lower_95(kyr) lower_68(kyr) median(kyr) mean(kyr) upper_68(kyr) upper_95(kyr)
22.500000 0.313909 0.587210 0.738331 0.950121 1.402441 2.242280
22.642857 0.324486 0.595820 0.744296 0.958201 1.409218 2.253274
22.785714 0.331288 0.602355 0.749692 0.966104 1.415260 2.259815
22.928571 0.340434 0.609156 0.756759 0.973869 1.422467 2.263592
23.071429 0.349499 0.615312 0.765535 0.981476 1.427985 2.268191
23.214286 0.359953 0.621226 0.773635 0.989031 1.432541 2.271956
23.357143 0.369955 0.626789 0.784026 0.996837 1.439207 2.278186
23.500000 0.375500 0.631701 0.793476 1.004040 1.447270 2.282923
23.642857 0.381575 0.637358 0.802234 1.011419 1.453407 2.287246
23.785714 0.388162 0.642725 0.812465 1.018705 1.467110 2.292379
23.928571 0.393860 0.648587 0.821086 1.026209 1.471712 2.296383
24.071429 0.399603 0.653403 0.827597 1.033497 1.491014 2.301644
24.214286 0.416588 0.659468 0.836585 1.040555 1.496656 2.307418
24.357143 0.430698 0.664717 0.843222 1.047886 1.502145 2.314378
24.500000 0.441002 0.670596 0.848484 1.054869 1.514606 2.326652
24.642857 0.461735 0.676654 0.854871 1.061991 1.524693 2.331526
24.785714 0.483699 0.681604 0.869059 1.069371 1.537526 2.339492
24.928571 0.490141 0.687712 0.888683 1.076529 1.546171 2.351936
25.071429 0.497101 0.693334 0.900890 1.083748 1.560450 2.362596
25.214286 0.509022 0.699918 0.910775 1.091069 1.578645 2.378543
25.357143 0.522866 0.706211 0.918391 1.098464 1.592249 2.393481
25.500000 0.536577 0.712829 0.927718 1.105601 1.606647 2.406629
25.642857 0.540790 0.718257 0.935149 1.112891 1.627370 2.425999
25.785714 0.545446 0.726601 0.940581 1.120441 1.640007 2.443875
25.928571 0.551798 0.732990 0.946119 1.127978 1.651771 2.450443
26.071429 0.558250 0.740845 0.950595 1.135520 1.669943 2.459152
26.214286 0.564168 0.749158 0.955449 1.142688 1.678611 2.472194
26.357143 0.569119 0.761956 0.963035 1.150211 1.691493 2.484332
26.500000 0.575410 0.772424 0.967054 1.157344 1.701599 2.491292
26.642857 0.579899 0.781357 0.971708 1.164684 1.711605 2.499212
26.785714 0.584301 0.788059 0.975026 1.171835 1.720616 2.507649
26.928571 0.588946 0.800644 0.980677 1.179232 1.728284 2.514306
27.071429 0.595005 0.809537 0.985165 1.186311 1.740273 2.523803
27.214286 0.601405 0.822895 0.990400 1.193439 1.752418 2.531805
27.357143 0.604338 0.833459 0.994863 1.200551 1.761810 2.539665
27.500000 0.608885 0.849713 0.999796 1.207649 1.774756 2.560156
27.642857 0.614143 0.866708 1.003987 1.214915 1.784916 2.588424
27.785714 0.621715 0.873397 1.009022 1.222213 1.797148 2.593296
27.928571 0.627090 0.889663 1.013772 1.229576 1.804583 2.599976
28.071429 0.635082 0.897385 1.018528 1.236602 1.810572 2.605608
28.214286 0.642611 0.906904 1.023688 1.244077 1.824277 2.610969
28.357143 0.651879 0.912999 1.030576 1.251647 1.836945 2.614265
28.500000 0.660950 0.921042 1.034441 1.258991 1.849105 2.617780
28.642857 0.667922 0.932307 1.039785 1.266111 1.857214 2.621561
28.785714 0.679907 0.941379 1.044942 1.273156 1.864173 2.626861
28.928571 0.690462 0.948821 1.052689 1.280096 1.870292 2.651333
29.071429 0.701065 0.953315 1.057902 1.287605 1.880891 2.656517
29.214286 0.712672 0.960538 1.063679 1.295056 1.889065 2.666183
29.357143 0.721627 0.967667 1.071966 1.302445 1.896934 2.673218
29.500000 0.731888 0.974556 1.089431 1.309842 1.905106 2.680526
29.642857 0.754046 0.981118 1.100012 1.317085 1.910676 2.685061
29.785714 0.762834 0.988088 1.109398 1.324696 1.917744 2.690572
29.928571 0.775539 0.995150 1.122556 1.332305 1.925079 2.706321
30.071429 0.785886 1.002380 1.136657 1.339622 1.932750 2.711671
30.214286 0.804120 1.009505 1.144214 1.347536 1.939701 2.716306
30.357143 0.813276 1.015177 1.151458 1.355362 1.946826 2.724406
30.500000 0.822212 1.022540 1.158224 1.363099 1.952228 2.735656
30.642857 0.833916 1.029913 1.163782 1.371139 1.960776 2.743127
30.785714 0.845774 1.035828 1.168017 1.378974 1.967512 2.750905
30.928571 0.857329 1.043796 1.172069 1.386868 1.974018 2.755347
31.071429 0.870044 1.050899 1.177196 1.394601 1.981832 2.763421
31.214286 0.876942 1.059278 1.181938 1.402789 1.987663 2.769309
31.357143 0.883747 1.066923 1.187147 1.411385 1.994161 2.776303
31.500000 0.892555 1.075554 1.193935 1.419853 1.999907 2.781721
31.642857 0.899340 1.082921 1.199299 1.428249 2.004670 2.788287
31.785714 0.904152 1.089674 1.207112 1.436736 2.012481 2.794445
31.928571 0.909784 1.097009 1.215254 1.445349 2.019714 2.799512
32.071429 0.917952 1.103839 1.227606 1.453995 2.026080 2.804494
32.214286 0.930561 1.109828 1.246330 1.462186 2.032199 2.810478
32.357143 0.941046 1.115257 1.260133 1.470545 2.037362 2.816362
32.500000 0.946221 1.120165 1.273000 1.479019 2.044809 2.820737
32.642857 0.963916 1.125553 1.279505 1.487203 2.051364 2.826646
32.785714 0.973901 1.131221 1.291945 1.494968 2.058352 2.832354
32.928571 0.987667 1.135773 1.316065 1.502902 2.063274 2.837089
33.071429 0.995859 1.141382 1.335368 1.510832 2.069304 2.841812
33.214286 1.008486 1.146801 1.345192 1.518717 2.076384 2.848500
33.357143 1.015340 1.151651 1.358028 1.526466 2.084316 2.854895
33.500000 1.027919 1.155893 1.373278 1.534106 2.092630 2.859993
33.642857 1.036538 1.161731 1.385009 1.541909 2.098882 2.864851
33.785714 1.051731 1.167098 1.400894 1.549426 2.106663 2.869058
33.928571 1.057484 1.171745 1.425395 1.557555 2.112774 2.873078
34.071429 1.070744 1.177746 1.431325 1.565055 2.119532 2.878076
34.214286 1.090073 1.183605 1.439312 1.572851 2.127157 2.883440
34.357143 1.100221 1.188648 1.446667 1.580719 2.134995 2.886658
34.500000 1.114752 1.194731 1.453278 1.588488 2.141775 2.890407
34.642857 1.122825 1.200561 1.461058 1.596165 2.149015 2.895030
34.785714 1.139777 1.207222 1.469107 1.604124 2.154853 2.902335
34.928571 1.155993 1.214534 1.474536 1.612174 2.161851 2.909595
35.071429 1.174572 1.220994 1.481049 1.620031 2.167591 2.914455
35.214286 1.187086 1.229266 1.488112 1.627971 2.172942 2.919290
35.357143 1.194857 1.235091 1.493068 1.636021 2.180216 2.927022
35.500000 1.198590 1.242157 1.500251 1.644227 2.186401 2.932629
35.642857 1.206244 1.250199 1.506539 1.652149 2.192687 2.938243
35.785714 1.212942 1.257721 1.512537 1.660234 2.198091 2.942470
35.928571 1.220174 1.267711 1.518890 1.668549 2.204815 2.947006
36.071429 1.230958 1.278068 1.525051 1.677427 2.211255 2.952248
36.214286 1.241148 1.287413 1.531634 1.686235 2.218150 2.957183
36.357143 1.246635 1.302049 1.537835 1.695369 2.227153 2.961873
36.500000 1.253179 1.313717 1.545969 1.704567 2.235058 2.967355
36.642857 1.265243 1.323406 1.553482 1.713808 2.241088 2.972210
36.785714 1.275092 1.332499 1.565367 1.723892 2.247364 2.976640
36.928571 1.280898 1.341397 1.576292 1.733830 2.253321 2.981642
37.071429 1.293483 1.351377 1.586579 1.743408 2.259737 2.986748
37.214286 1.304174 1.360336 1.595484 1.753155 2.266297 2.991793
37.357143 1.311808 1.371487 1.602810 1.763587 2.274022 2.998580
37.500000 1.326918 1.379750 1.609132 1.773787 2.281647 3.004236
37.642857 1.333946 1.387889 1.615892 1.784042 2.289157 3.007588
37.785714 1.342082 1.396376 1.623141 1.794319 2.296555 3.012643
37.928571 1.348683 1.405734 1.629524 1.804484 2.303487 3.018028
38.071429 1.359473 1.414526 1.635295 1.814780 2.309783 3.024319
38.214286 1.366735 1.421163 1.641013 1.824499 2.318138 3.028778
38.357143 1.372118 1.429428 1.646027 1.834469 2.325743 3.034102
38.500000 1.378329 1.436660 1.652683 1.844446 2.333676 3.039882
38.642857 1.383158 1.443832 1.658706 1.854061 2.339395 3.045673
38.785714 1.392111 1.450397 1.666219 1.863547 2.347825 3.051515
38.928571 1.400459 1.458839 1.671811 1.873058 2.355067 3.057132
39.071429 1.409459 1.466437 1.678438 1.882285 2.363620 3.064595
39.214286 1.416832 1.473250 1.685968 1.891054 2.373822 3.070215
39.357143 1.425658 1.479460 1.693165 1.900151 2.380076 3.078021
39.500000 1.432664 1.488592 1.702744 1.909077 2.393577 3.087025
39.642857 1.442821 1.496334 1.713658 1.917897 2.400660 3.093700
39.785714 1.451620 1.506992 1.728677 1.927162 2.406121 3.100095
39.928571 1.458534 1.515254 1.742493 1.935717 2.411560 3.108354
40.071429 1.463585 1.528276 1.759233 1.944560 2.417120 3.112996
40.214286 1.470293 1.544467 1.766279 1.953817 2.421843 3.119135
40.357143 1.475642 1.561215 1.774409 1.963171 2.432632 3.127633
40.500000 1.481624 1.574835 1.783939 1.972500 2.441483 3.134035
40.642857 1.487436 1.592457 1.791654 1.981681 2.447606 3.141473
40.785714 1.493705 1.604065 1.796575 1.991218 2.459268 3.151663
40.928571 1.500455 1.614552 1.803453 2.001049 2.464959 3.160991
41.071429 1.505362 1.625264 1.813276 2.010607 2.473973 3.166902
41.214286 1.511611 1.636034 1.822773 2.020694 2.485662 3.173220
41.357143 1.519738 1.648126 1.832359 2.030296 2.496310 3.179740
41.500000 1.527634 1.667596 1.846373 2.040368 2.520474 3.188838
41.642857 1.533489 1.690912 1.857381 2.050738 2.541952 3.197074
41.785714 1.545289 1.705374 1.868970 2.060696 2.552820 3.204869
41.928571 1.552958 1.721349 1.879816 2.070412 2.569711 3.210095
42.071429 1.559720 1.737341 1.889032 2.080457 2.603292 3.215375
42.214286 1.571038 1.752462 1.897688 2.090751 2.613712 3.222643
42.357143 1.577299 1.758584 1.911129 2.100757 2.624278 3.229007
42.500000 1.590487 1.763588 1.918975 2.110544 2.631898 3.237323
42.642857 1.604759 1.774246 1.926736 2.120574 2.643443 3.243072
42.785714 1.617209 1.782913 1.935465 2.130760 2.655944 3.248599
42.928571 1.631514 1.793457 1.940610 2.141305 2.664442 3.256720
43.071429 1.638827 1.803113 1.950143 2.151377 2.672374 3.265799
43.214286 1.651730 1.817265 1.957286 2.161328 2.677820 3.274800
43.357143 1.658624 1.825439 1.962671 2.171160 2.681538 3.285865
43.500000 1.671656 1.833646 1.967707 2.181526 2.688611 3.293765
43.642857 1.680822 1.844377 1.972511 2.191856 2.693340 3.309642
43.785714 1.697410 1.852725 1.979220 2.202294 2.707954 3.315844
43.928571 1.703766 1.861455 1.983888 2.212447 2.721916 3.323017
44.071429 1.733697 1.872213 1.989076 2.222570 2.729200 3.340446
44.214286 1.744114 1.880620 1.995397 2.232691 2.735167 3.349814
44.357143 1.754218 1.889503 2.003216 2.242621 2.747324 3.359438
44.500000 1.776548 1.897413 2.007823 2.252712 2.754984 3.366949
44.642857 1.787287 1.907692 2.012706 2.262220 2.765385 3.374983
44.785714 1.794248 1.917625 2.020530 2.271954 2.777884 3.385269
44.928571 1.805482 1.929589 2.026724 2.281469 2.782037 3.397236
45.071429 1.815376 1.939961 2.032908 2.291106 2.788184 3.416773
45.214286 1.823025 1.949440 2.040652 2.300633 2.796663 3.427507
45.357143 1.830904 1.960183 2.054552 2.310285 2.805392 3.439546
45.500000 1.836578 1.967432 2.068440 2.319623 2.817970 3.462909
45.642857 1.840978 1.977836 2.076464 2.329247 2.824641 3.476558
45.785714 1.845133 1.984756 2.083004 2.338288 2.830708 3.482230
45.928571 1.850335 1.994688 2.095932 2.347211 2.836908 3.488483
46.071429 1.855254 2.004200 2.103504 2.356294 2.855374 3.495225
46.214286 1.859318 2.013017 2.109123 2.365391 2.866502 3.502715
46.357143 1.864365 2.022052 2.116397 2.374390 2.885794 3.508844
46.500000 1.866272 2.029976 2.127822 2.383488 2.894962 3.513344
46.642857 1.869908 2.037856 2.133148 2.392235 2.908165 3.520545
46.785714 1.872040 2.046409 2.142023 2.401102 2.914763 3.528165
46.928571 1.876115 2.053298 2.153316 2.409947 2.921021 3.534060
47.071429 1.880728 2.061120 2.167620 2.419198 2.932001 3.540486
47.214286 1.884285 2.068808 2.176228 2.427534 2.939883 3.548018
47.357143 1.887737 2.076118 2.183995 2.435920 2.950215 3.558295
47.500000 1.891384 2.083389 2.190672 2.444182 2.961141 3.565239
47.642857 1.893684 2.090737 2.195661 2.453172 2.968340 3.571483
47.785714 1.897273 2.097948 2.202321 2.462060 2.982962 3.579267
47.928571 1.900728 2.104393 2.211862 2.471380 3.002269 3.585074
48.071429 1.905043 2.111035 2.221189 2.480392 3.007798 3.591450
48.214286 1.910291 2.116463 2.231008 2.489242 3.017919 3.597982
48.357143 1.913882 2.122666 2.239803 2.498248 3.028819 3.603766
48.500000 1.918930 2.127800 2.251477 2.507602 3.041332 3.609719
48.642857 1.923215 2.132702 2.265683 2.517498 3.067668 3.616446
48.785714 1.927526 2.137938 2.281629 2.527360 3.090717 3.623418
48.928571 1.931729 2.143223 2.292459 2.537059 3.101665 3.629379
49.071429 1.936045 2.148316 2.308192 2.547138 3.114457 3.635012
49.214286 1.939442 2.152948 2.328900 2.557344 3.122332 3.642755
49.357143 1.942063 2.157868 2.341595 2.567116 3.129192 3.648654
49.500000 1.948557 2.162784 2.351850 2.577258 3.135357 3.654773
49.642857 1.951631 2.168294 2.363940 2.587179 3.142620 3.660899
49.785714 1.955456 2.173417 2.393664 2.597504 3.153864 3.668014
49.928571 1.960086 2.178621 2.400794 2.608155 3.165245 3.676187
50.071429 1.966356 2.183510 2.406193 2.618398 3.176811 3.682173
50.214286 1.969819 2.191788 2.415098 2.629012 3.209746 3.686750
50.357143 1.975081 2.198557 2.432572 2.639138 3.225642 3.693256
50.500000 1.982072 2.202764 2.444438 2.649469 3.244013 3.699871
50.642857 1.988972 2.211309 2.459211 2.659738 3.255039 3.707179
50.785714 1.997087 2.224084 2.473027 2.670473 3.270567 3.713882
50.928571 2.007225 2.237510 2.491577 2.680480 3.280325 3.719093
51.071429 2.023216 2.251119 2.505958 2.690787 3.286165 3.723538
51.214286 2.028747 2.271178 2.523036 2.700883 3.297576 3.729770
51.357143 2.055827 2.292248 2.540088 2.710866 3.309381 3.736214
51.500000 2.070445 2.305382 2.553117 2.720893 3.315322 3.741613
51.642857 2.087264 2.323409 2.571412 2.730978 3.324578 3.749240
51.785714 2.099536 2.332211 2.588430 2.741184 3.330200 3.755241
51.928571 2.108834 2.344430 2.601402 2.751190 3.344740 3.761904
52.071429 2.124870 2.355323 2.618899 2.761299 3.352541 3.768547
52.214286 2.137264 2.374365 2.633706 2.772085 3.366118 3.775479
52.357143 2.151065 2.380931 2.648609 2.782258 3.382882 3.782567
52.500000 2.177811 2.391303 2.656491 2.792680 3.396970 3.789561
52.642857 2.194236 2.405918 2.664042 2.802786 3.417861 3.795271
52.785714 2.204916 2.416559 2.671550 2.812978 3.429177 3.801071
52.928571 2.222478 2.420902 2.677693 2.823400 3.436900 3.806806
53.071429 2.234583 2.435080 2.686120 2.833781 3.446689 3.812125
53.214286 2.245829 2.451385 2.697941 2.844510 3.453343 3.817582
53.357143 2.263906 2.468308 2.706390 2.854811 3.464988 3.823506
53.500000 2.273609 2.479554 2.717861 2.865626 3.474629 3.829549
53.642857 2.291790 2.491542 2.734074 2.876286 3.483852 3.834308
53.785714 2.298646 2.499672 2.746468 2.886449 3.498463 3.839094
53.928571 2.305062 2.505344 2.754983 2.896834 3.506107 3.844701
54.071429 2.311020 2.512390 2.767673 2.906974 3.512891 3.849572
54.214286 2.316684 2.520417 2.778544 2.917051 3.524981 3.854704
54.357143 2.321903 2.528069 2.787250 2.927254 3.534736 3.860139
54.500000 2.326437 2.540559 2.798640 2.936998 3.540923 3.865150
54.642857 2.330629 2.551689 2.811280 2.946968 3.552332 3.870382
54.785714 2.335779 2.561819 2.823736 2.957298 3.565103 3.875199
54.928571 2.341538 2.569947 2.834390 2.966977 3.574595 3.880173
55.071429 2.348041 2.576345 2.842924 2.976511 3.583800 3.885582
55.214286 2.352166 2.582780 2.856259 2.986385 3.592218 3.889732
55.357143 2.356309 2.588692 2.864613 2.995777 3.600540 3.894168
55.500000 2.362253 2.597819 2.872296 3.005158 3.613835 3.898300
55.642857 2.368597 2.606507 2.878132 3.014103 3.622786 3.902494
55.785714 2.373326 2.613402 2.883221 3.023883 3.631853 3.907901
55.928571 2.379917 2.621512 2.888863 3.033083 3.641203 3.912305
56.071429 2.385451 2.628335 2.895048 3.042009 3.649183 3.916347
56.214286 2.391772 2.638884 2.900176 3.051385 3.661137 3.920848
56.357143 2.397543 2.647304 2.905381 3.060292 3.669741 3.924735
56.500000 2.403724 2.661872 2.910084 3.068960 3.677397 3.928109
56.642857 2.411267 2.678911 2.914843 3.077546 3.686272 3.932336
56.785714 2.417512 2.693381 2.919784 3.085939 3.694985 3.935777
56.928571 2.425051 2.704872 2.924766 3.094746 3.708885 3.939360
57.071429 2.434382 2.709304 2.930869 3.103059 3.716511 3.943387
57.214286 2.443088 2.715956 2.935584 3.111345 3.725862 3.948168
57.357143 2.451057 2.725843 2.941546 3.119794 3.734670 3.951643
57.500000 2.459989 2.744365 2.946999 3.128637 3.749110 3.954881
57.642857 2.469070 2.757113 2.954580 3.136887 3.760403 3.959128
57.785714 2.474853 2.783152 2.972423 3.145396 3.769132 3.963185
57.928571 2.484441 2.793741 2.986330 3.153653 3.779823 3.967741
58.071429 2.491173 2.806223 3.003036 3.161909 3.789002 3.971728
58.214286 2.499585 2.814035 3.017332 3.170231 3.801424 3.976117
58.357143 2.507566 2.825669 3.029596 3.178515 3.808617 3.980564
58.500000 2.519636 2.840957 3.042204 3.186623 3.813819 3.985539
58.642857 2.526556 2.847513 3.056455 3.195149 3.819590 3.989878
58.785714 2.541707 2.853713 3.069069 3.203419 3.824185 3.994779
58.928571 2.550474 2.860813 3.079328 3.211193 3.833662 3.999863
59.071429 2.562839 2.865555 3.088346 3.219217 3.837668 4.005104
59.214286 2.570729 2.870412 3.095280 3.226818 3.843181 4.011643
59.357143 2.585265 2.875655 3.102607 3.234955 3.848624 4.017188
59.500000 2.594681 2.881007 3.110593 3.242803 3.854346 4.022471
59.642857 2.607808 2.889386 3.117261 3.251202 3.860652 4.028263
59.785714 2.616769 2.897623 3.124297 3.259312 3.865557 4.033872
59.928571 2.623906 2.907403 3.129452 3.267457 3.871431 4.039142
60.071429 2.634902 2.913426 3.135769 3.275325 3.876777 4.045610
60.214286 2.649998 2.919539 3.142861 3.283503 3.882925 4.051388
60.357143 2.661652 2.927567 3.148405 3.291639 3.889291 4.059405
60.500000 2.671118 2.937436 3.153310 3.299903 3.896174 4.065467
60.642857 2.682893 2.948206 3.158308 3.308203 3.901246 4.072775
60.785714 2.694983 2.955458 3.164094 3.316702 3.907638 4.079071
60.928571 2.710774 2.963086 3.168451 3.324759 3.913691 4.085667
61.071429 2.726890 2.970362 3.173996 3.333280 3.921224 4.091885
61.214286 2.737976 2.983298 3.178425 3.341849 3.927856 4.098170
61.357143 2.757550 2.994068 3.184777 3.350492 3.933853 4.104842
61.500000 2.764256 3.010008 3.189051 3.359109 3.940727 4.110096
61.642857 2.779663 3.022150 3.193246 3.367472 3.948508 4.116005
61.785714 2.788748 3.031895 3.197469 3.375664 3.956337 4.123427
61.928571 2.796213 3.044274 3.201863 3.384151 3.965854 4.128464
62.071429 2.807888 3.053602 3.205962 3.392863 3.984654 4.135177
62.214286 2.822089 3.062023 3.210431 3.401193 3.996856 4.141283
62.357143 2.827160 3.069328 3.215007 3.409305 4.008313 4.147719
62.500000 2.831559 3.079214 3.219898 3.417419 4.018509 4.154039
62.642857 2.835984 3.087693 3.222936 3.425459 4.027142 4.160654
62.785714 2.842076 3.095420 3.228557 3.433652 4.043951 4.166797
62.928571 2.851165 3.106007 3.232807 3.441788 4.050578 4.172621
63.071429 2.857785 3.114726 3.238201 3.449883 4.056660 4.181090
63.214286 2.864326 3.123513 3.243522 3.457822 4.073089 4.186549
63.357143 2.871602 3.131583 3.248308 3.465936 4.087479 4.193732
63.500000 2.878801 3.139407 3.255648 3.474038 4.108050 4.201121
63.642857 2.887079 3.149733 3.261751 3.482039 4.125032 4.207134
63.785714 2.893268 3.160313 3.266550 3.489979 4.139484 4.213720
63.928571 2.900751 3.170116 3.272297 3.497611 4.148229 4.218995
64.071429 2.908019 3.177623 3.277534 3.505830 4.168629 4.224751
64.214286 2.922775 3.186966 3.283168 3.513995 4.180630 4.230237
64.357143 2.930592 3.196330 3.288277 3.522194 4.201126 4.234689
64.500000 2.940090 3.206181 3.294351 3.530209 4.212311 4.239621
64.642857 2.947774 3.215637 3.300167 3.538129 4.220948 4.244107
64.785714 2.954874 3.226465 3.306670 3.546289 4.226437 4.249771
64.928571 2.962816 3.236215 3.314408 3.554217 4.231752 4.254720
65.071429 2.971039 3.246520 3.321801 3.562115 4.235939 4.260583
65.214286 2.976656 3.256188 3.328953 3.569981 4.242733 4.266170
65.357143 2.986020 3.265656 3.334520 3.577933 4.247221 4.270855
65.500000 2.992577 3.273150 3.344442 3.585803 4.252608 4.275388
65.642857 2.999126 3.279206 3.353435 3.593497 4.255977 4.280281
65.785714 3.006314 3.285593 3.363414 3.601443 4.259238 4.284982
65.928571 3.012745 3.291147 3.372409 3.609641 4.263355 4.290466
66.071429 3.019504 3.296796 3.383318 3.617823 4.268055 4.294855
66.214286 3.024213 3.301542 3.394686 3.626008 4.273450 4.299304
66.357143 3.031192 3.306585 3.402902 3.634113 4.278254 4.303800
66.500000 3.037198 3.311206 3.409778 3.642234 4.282409 4.309487
66.642857 3.043769 3.315843 3.420782 3.650344 4.285788 4.314001
66.785714 3.049040 3.320293 3.429742 3.658405 4.292347 4.319038
