depth(m) lower_95(kyr) lower_68(kyr) median(kyr) mean(kyr) upper_68(kyr) upper_95(kyr)
0.045000 2.580002 3.226448 4.033974 4.009789 4.715560 5.425076
0.167500 3.045490 3.722728 4.454762 4.470806 5.200142 5.928972
0.290000 3.418260 4.166425 4.941089 4.932304 5.704883 6.475964
0.412500 3.885046 4.620018 5.375121 5.407808 6.245015 7.111047
0.535000 4.293349 5.032931 5.815920 5.876073 6.770063 7.730785
0.660000 4.673383 5.443342 6.316596 6.361803 7.299741 8.294746
0.785000 5.163651 5.914366 6.793577 6.867601 7.856971 8.777029
0.910000 5.616891 6.397161 7.261870 7.359093 8.387945 9.335771
1.035000 6.103717 6.903788 7.848996 7.906240 8.964916 9.858076
1.162500 6.682875 7.480802 8.493907 8.522393 9.576326 10.495888
1.290000 7.333772 8.164737 9.184527 9.201617 10.197333 11.061862
1.417500 7.833800 8.903909 9.897862 9.850087 10.796347 11.489625
1.545000 8.568196 9.672473 10.648422 10.549848 11.401760 12.078683
1.670000 9.495051 10.455811 11.343513 11.250988 12.057727 12.714390
1.755000 9.973460 10.888688 11.704170 11.664829 12.416360 13.045870
1.840000 10.397038 11.335655 12.131538 12.075582 12.796296 13.399184
1.942500 11.122681 11.884760 12.589741 12.559818 13.265442 13.879037
2.045000 11.588759 12.412760 13.046873 13.031063 13.678782 14.272883
2.120000 12.017469 12.721279 13.393985 13.371718 14.039247 14.555324
2.200000 12.373082 13.079199 13.742571 13.732163 14.424234 14.871793
2.280000 12.682566 13.454284 14.069941 14.069359 14.725332 15.226589
2.403333 13.158861 13.941201 14.560447 14.552482 15.204949 15.790948
2.526667 13.631324 14.381685 15.036883 15.028240 15.686124 16.290981
2.650000 14.019047 14.812431 15.506241 15.496002 16.198147 16.812022
2.777857 14.457206 15.225805 15.976265 15.980307 16.707158 17.453593
2.905714 14.799162 15.618728 16.440941 16.442130 17.210862 18.053559
3.033571 15.112924 16.023826 16.853085 16.883246 17.706071 18.690596
3.161429 15.582343 16.465705 17.283459 17.309328 18.160108 19.114368
3.289286 15.974262 16.803692 17.720044 17.744621 18.644911 19.623788
3.417143 16.373013 17.177335 18.142470 18.175764 19.139962 20.174803
3.545000 16.735528 17.600281 18.547660 18.591022 19.572555 20.652618
3.667500 17.068567 17.949451 18.978367 18.972192 19.931366 21.221545
3.790000 17.414083 18.318896 19.339208 19.355293 20.340473 21.717981
3.912500 17.777919 18.687194 19.677543 19.732545 20.745211 22.221021
4.035000 18.139439 19.021347 20.031053 20.107780 21.136800 22.675715
4.162500 18.489978 19.411484 20.431138 20.506897 21.512259 23.059061
4.290000 18.785974 19.791643 20.790682 20.895102 21.903568 23.634007
4.417500 19.116179 20.171016 21.158621 21.294374 22.350442 24.076939
4.545000 19.447033 20.536695 21.544488 21.679542 22.805543 24.762316
4.690385 19.860576 20.969387 21.991837 22.132725 23.250976 25.245572
4.835769 20.319789 21.378627 22.416825 22.585598 23.746656 25.900408
4.981154 20.793006 21.784016 22.876370 23.045456 24.278137 26.678289
5.126538 21.130596 22.223156 23.266428 23.493675 24.816737 27.286764
5.271923 21.535631 22.603216 23.697530 23.932947 25.299605 27.913315
5.417308 21.931575 23.010462 24.155126 24.401624 25.932175 28.381621
5.562692 22.366780 23.438434 24.577485 24.851773 26.340922 28.807657
5.708077 22.760760 23.844003 25.015157 25.312537 26.826526 29.333788
5.853462 23.070524 24.281518 25.442806 25.776734 27.309448 29.999800
5.998846 23.453126 24.669753 25.883209 26.245011 27.873228 30.722598
6.144231 23.957508 25.107040 26.341233 26.733023 28.458870 31.264468
6.289615 24.410990 25.559331 26.869988 27.233739 29.041562 31.834100
6.435000 24.840640 26.002021 27.340408 27.752635 29.663025 32.478900
6.562500 25.221565 26.421894 27.839369 28.257174 30.183908 33.083437
6.690000 25.619781 26.881797 28.381506 28.799661 30.814726 33.803226
6.817500 26.097818 27.351649 28.981966 29.354832 31.452321 34.702745
6.945000 26.452577 27.821547 29.523542 29.913409 32.075269 35.301171
7.085714 26.942794 28.291078 30.187534 30.563132 32.864484 36.378625
7.226429 27.405763 28.877462 30.912425 31.255780 33.603801 37.567278
7.367143 27.918787 29.377685 31.583546 31.929333 34.330184 38.432734
7.507857 28.345801 29.884688 32.262910 32.554264 34.985886 39.189028
7.648571 28.768724 30.408987 33.016561 33.210884 35.741584 39.831075
7.789286 29.261116 30.948099 33.624730 33.859101 36.350591 40.806829
7.930000 29.713613 31.487722 34.364562 34.517195 37.097879 41.670009
8.058750 30.042490 31.961392 35.002771 35.122542 37.749597 42.156899
8.187500 30.498231 32.513965 35.617213 35.723805 38.480160 43.400298
8.316250 30.883499 33.026762 36.194642 36.318861 39.190830 43.973887
8.445000 31.259580 33.528403 36.833813 36.920977 39.898027 44.630734
8.582500 31.646274 34.135000 37.367423 37.486747 40.515482 45.128386
8.720000 32.006986 34.673986 37.887744 38.084190 41.318168 45.907655
8.857500 32.416479 35.148065 38.486017 38.697681 42.071604 46.304090
8.995000 32.856674 35.689500 39.094201 39.285423 42.685026 46.924644
9.132500 33.456038 36.233064 39.750067 39.870376 43.355001 47.393315
9.270000 33.960376 36.746151 40.259118 40.458722 44.004731 47.982461
9.407500 34.313850 37.347691 40.867568 41.046506 44.840504 48.527961
9.545000 34.824118 37.784756 41.473656 41.645982 45.457753 49.398655
9.682500 35.251642 38.354939 42.029539 42.233839 46.017680 50.074539
9.820000 35.685930 38.836517 42.690522 42.846553 46.696480 50.982634
9.957500 36.166269 39.413420 43.313123 43.459575 47.448506 51.781018
10.095000 36.675573 39.907810 43.860023 44.034998 47.978781 52.306252
10.217500 37.037017 40.579575 44.484544 44.552496 48.671181 52.760924
10.340000 37.299570 41.126002 44.994270 45.076390 49.280672 53.321458
10.462500 37.692615 41.530109 45.480672 45.602154 50.010460 53.811158
10.585000 38.045757 42.047106 45.911326 46.134679 50.560253 54.246127
10.710000 38.420781 42.615158 46.377661 46.650078 51.089946 54.872885
10.835000 38.870194 43.263582 46.945477 47.171419 51.591932 55.149870
10.960000 39.321220 43.707439 47.462670 47.681436 52.175829 55.688959
11.085000 39.676549 44.186722 47.998169 48.207238 52.688008 56.201703
11.210000 40.105969 44.715762 48.486137 48.741484 53.264197 56.629800
11.335000 40.631877 45.216325 49.006474 49.248005 53.743985 57.033968
11.460000 41.042839 45.671386 49.518680 49.738002 54.325642 57.386260
11.585000 41.441742 46.084541 49.899065 50.233405 54.832516 57.898840
11.710000 41.838783 46.517403 50.541762 50.710985 55.249713 58.271187
11.835000 42.226253 47.010786 50.943079 51.175286 55.779422 58.685938
11.960000 42.957979 47.594806 51.397191 51.643805 56.242230 58.995224
12.085000 43.535994 48.084524 51.816180 52.098530 56.680892 59.255891
12.223889 44.595101 48.551855 52.357473 52.614848 57.192870 59.736822
12.362778 45.320886 49.032870 52.804675 53.115312 57.679370 60.031810
12.501667 45.899759 49.653267 53.362669 53.636963 58.061748 60.385744
12.640556 46.303594 50.361448 53.863138 54.134090 58.443559 60.696993
12.779444 47.052992 51.195752 54.335783 54.653035 58.866018 61.081545
12.918333 47.625000 51.682074 54.964019 55.144532 59.184710 61.451649
13.057222 48.084171 52.215596 55.461829 55.649431 59.602432 61.863292
13.196111 48.841526 52.837312 55.973070 56.133343 59.966827 62.158927
13.335000 49.450660 53.430862 56.423842 56.626327 60.320058 62.429170
13.473889 49.973471 53.994963 57.063500 57.130127 60.730857 62.821701
13.612778 50.541936 54.519062 57.575934 57.633489 61.109973 63.235253
13.751667 51.040905 55.033259 58.252046 58.141908 61.574492 63.524372
13.890556 51.756954 55.628627 58.838711 58.640992 61.920329 63.765672
14.029444 52.312832 56.185646 59.451715 59.144955 62.297486 64.099167
14.168333 52.693579 56.661684 59.886445 59.630698 62.669327 64.555126
14.307222 53.112429 57.143578 60.469089 60.139161 63.107938 65.055434
14.446111 53.693727 57.662418 61.040076 60.641681 63.547952 65.411863
14.585000 54.452991 58.227556 61.579075 61.154994 63.996402 65.816525
14.716250 55.111963 58.809618 62.043811 61.643782 64.392529 66.140198
14.847500 55.716225 59.237242 62.526864 62.101045 64.789557 66.541860
14.978750 56.405187 59.673502 63.014378 62.576902 65.220595 67.108739
15.110000 57.004839 60.277951 63.488367 63.066132 65.652677 67.653659
15.241250 57.716808 60.894824 63.919933 63.539806 66.054342 68.029891
15.372500 58.402333 61.454386 64.421782 64.035115 66.427418 68.576224
15.503750 59.022826 62.093752 64.923392 64.565193 66.861832 69.045308
15.635000 59.858031 62.777486 65.432122 65.103975 67.314226 69.354034
15.760000 60.519140 63.379012 65.876106 65.613933 67.825231 69.919692
15.885000 61.199180 63.996719 66.319847 66.126788 68.227244 70.388950
16.010000 61.880919 64.601366 66.853238 66.665720 68.682395 70.827786
16.135000 62.638737 65.258754 67.339202 67.206072 69.109790 71.273222
16.260000 63.416031 66.002225 67.909634 67.800371 69.621242 71.672576
16.385000 64.117376 66.609753 68.490700 68.417183 70.209614 72.077788
16.510000 64.994441 67.332133 69.100754 69.061932 70.790368 72.660488
16.635000 65.743031 68.109085 69.794083 69.731138 71.367495 73.138690
16.760000 66.958760 68.917471 70.529914 70.503286 72.138980 73.996062
16.885000 67.772541 69.704627 71.281342 71.270448 72.862854 74.806275
17.010000 68.838332 70.612539 72.062657 72.076332 73.627195 75.667022
17.135000 69.690199 71.357100 72.841546 72.901073 74.491352 76.232503
17.260000 70.603474 72.115532 73.575756 73.681794 75.250026 77.205154
17.385000 71.216426 72.854815 74.410463 74.498106 76.226075 77.994241
17.510000 72.182875 73.594624 75.265320 75.336831 77.124264 78.811325
17.635000 72.877478 74.405345 76.022114 76.144105 77.887804 79.616126
17.760000 73.664945 75.249591 76.800590 76.905119 78.641867 80.245717
17.885000 74.274738 75.949391 77.592328 77.652095 79.334876 81.138319
18.010000 74.997701 76.752979 78.351052 78.386078 79.987012 81.811440
18.135000 75.853363 77.536798 79.091932 79.122788 80.710532 82.386422
18.262500 76.430742 78.260230 79.829289 79.896300 81.471600 83.159800
18.390000 77.154455 79.010508 80.606924 80.631066 82.186825 83.976109
18.517500 78.053378 79.735060 81.340964 81.355508 82.949926 84.608177
18.645000 78.791385 80.602713 82.027652 82.106001 83.626163 85.427623
18.786429 79.480760 81.393287 82.786967 82.884351 84.429289 86.392998
18.927857 80.194511 82.077707 83.510146 83.644041 85.183773 87.511627
19.069286 81.074471 82.801775 84.280192 84.388088 86.004861 88.367178
19.210714 81.770740 83.487041 85.004323 85.134760 86.796120 89.195951
19.352143 82.481476 84.215041 85.693674 85.887607 87.548347 90.046007
19.493571 83.385621 84.911029 86.338600 86.612099 88.333453 91.010980
19.635000 84.097252 85.649196 87.004938 87.342372 89.198578 91.862663
19.762500 84.773907 86.262924 87.668114 87.996609 89.844024 92.618347
19.890000 85.369695 86.899887 88.398339 88.683333 90.552653 93.503666
20.017500 86.149036 87.517226 89.133694 89.387154 91.099087 94.690970
20.145000 86.680556 88.161561 89.877422 90.054637 91.786770 95.363515
20.270000 87.133278 88.752658 90.592857 90.758252 92.510929 96.137302
20.395000 87.761966 89.355164 91.324114 91.452823 93.191089 96.768651
20.520000 88.340703 90.025781 92.103196 92.169454 93.936582 97.447936
20.645000 88.816776 90.744323 92.790041 92.872950 94.649953 98.545623
20.786429 89.286066 91.435007 93.487665 93.621572 95.458999 99.233775
20.927857 89.923767 92.064623 94.193409 94.363780 96.249024 99.945684
21.069286 90.711770 92.856612 94.908347 95.112443 97.108464 100.915405
21.210714 91.314733 93.606300 95.601248 95.848871 98.013842 101.748662
21.352143 92.025696 94.260117 96.363032 96.614418 98.890041 102.750618
21.493571 92.631576 94.965485 97.052280 97.361723 99.713103 103.599537
21.635000 93.621001 95.599768 97.732262 98.115139 100.554284 104.340725
21.762500 94.187254 96.216351 98.404329 98.808763 101.434367 104.843512
21.890000 94.898029 96.880115 99.047305 99.490479 102.366763 105.994212
22.017500 95.422043 97.485566 99.719578 100.160096 103.017121 106.667266
22.145000 95.993364 98.172686 100.422379 100.864397 103.825653 107.344680
22.267500 96.884324 98.830946 101.084174 101.557760 104.614942 108.247044
22.390000 97.557354 99.525291 101.783543 102.267913 105.400484 108.855390
22.512500 98.151105 100.123966 102.434880 102.973063 106.066904 109.530100
22.635000 98.734199 100.881738 103.163352 103.687407 106.714398 110.248669
22.760000 99.201703 101.627717 104.117679 104.458138 107.477270 110.742927
22.885000 99.942866 102.264979 104.945385 105.262708 108.126053 111.381371
23.010000 101.054122 103.212271 105.778256 106.076949 108.957661 112.155658
23.135000 101.868137 104.071917 106.788034 106.922513 109.629882 113.013779
23.260000 102.633015 104.963932 107.854734 107.827731 110.548464 113.574979
23.385000 103.694646 105.994824 108.763158 108.761305 111.437765 114.251563
23.510000 104.567530 106.968818 109.753776 109.691622 112.193546 114.835506
23.635000 105.436346 108.081240 110.719553 110.619579 113.027927 115.466392
23.760000 106.534040 109.111725 111.787350 111.594188 113.786790 116.105811
23.885000 107.950435 110.235105 112.749471 112.609995 114.695590 116.795659
24.010000 108.960204 111.569379 113.766565 113.630057 115.692923 117.518826
24.135000 110.241883 112.694505 114.789194 114.655301 116.523974 118.564219
24.260000 111.492457 113.891326 115.860509 115.749602 117.626567 119.466353
24.385000 112.664067 115.030529 116.870237 116.836123 118.667580 120.364737
24.510000 114.120927 116.296731 117.949482 117.940162 119.630382 121.280964
24.635000 115.839893 117.523309 119.082433 119.071687 120.676059 122.350828
24.760000 116.891015 118.419495 119.987695 119.997196 121.611428 123.137754
24.885000 117.602335 119.203792 120.909154 120.863269 122.494578 124.041350
25.010000 118.501858 120.088082 121.653665 121.677890 123.389496 124.857441
25.135000 119.520358 120.987273 122.443231 122.472080 124.097703 125.427277
25.235000 120.180739 121.610297 123.105618 123.133849 124.682604 125.983044
25.335000 120.700420 122.181723 123.787041 123.761645 125.294011 126.593862
25.460000 121.650832 123.088008 124.652738 124.658634 126.221308 127.507059
25.585000 122.543077 124.075052 125.676031 125.616082 127.127379 128.392342
25.710000 123.430686 125.047774 126.573916 126.495806 127.945134 129.154978
25.835000 124.411463 125.963544 127.443215 127.388071 128.856805 130.138583
25.960000 125.117954 126.783989 128.235216 128.199610 129.668903 131.013582
26.085000 126.050339 127.560907 128.981150 128.989964 130.470059 131.818550
26.210000 127.004620 128.323105 129.757686 129.766262 131.194948 132.545551
26.335000 127.797283 129.089445 130.487122 130.523341 131.952662 133.355018
26.460000 128.460843 129.806056 131.263384 131.277336 132.707550 134.316157
26.585000 129.174583 130.464996 131.952663 131.984270 133.469626 135.003210
26.710000 129.811425 131.143728 132.615018 132.668377 134.204081 135.637013
26.835000 130.465349 131.813723 133.281054 133.327790 134.826599 136.262883
26.960000 131.043036 132.470098 133.923990 133.963456 135.491160 136.808822
27.085000 131.657131 133.027450 134.621268 134.590435 136.142947 137.555256
27.210000 132.208202 133.610675 135.234856 135.190730 136.803740 138.219357
27.335000 132.674758 134.183814 135.744139 135.757028 137.378251 138.742987
27.477857 133.236220 134.674532 136.302901 136.340515 137.972267 139.435383
27.620714 133.849773 135.230165 136.852456 136.902026 138.542723 139.987223
27.763571 134.473597 135.772272 137.442061 137.466027 139.087164 140.643867
27.906429 135.074277 136.359541 137.971251 138.010637 139.686340 141.212967
28.049286 135.580852 136.909570 138.484731 138.552991 140.211761 141.885141
28.192143 136.046039 137.425036 139.063223 139.093568 140.738649 142.553957
28.335000 136.514642 137.971958 139.609043 139.621559 141.237401 142.937567
28.460000 136.933906 138.393772 140.040411 140.087544 141.693905 143.621621
28.585000 137.347887 138.806017 140.509739 140.550190 142.120996 144.075217
28.710000 137.843423 139.307276 140.979413 141.015152 142.585678 144.672242
28.835000 138.333295 139.759023 141.412428 141.480626 143.101933 145.451666
28.960000 138.794385 140.189916 141.965306 141.965949 143.594546 146.172687
29.085000 139.163789 140.598809 142.470086 142.447535 144.042926 146.574546
29.210000 139.570111 141.073928 142.897698 142.938984 144.600084 147.339597
29.335000 140.045044 141.588977 143.347843 143.424378 145.084305 147.792960
29.460000 140.436491 142.037351 143.821298 143.908515 145.578810 148.407597
29.585000 140.797819 142.526714 144.289456 144.395873 146.125448 149.086339
29.710000 141.258454 142.979292 144.736837 144.886951 146.643638 149.619845
29.835000 141.712039 143.473239 145.269723 145.395695 147.147283 150.153086
29.960000 142.070146 143.898145 145.751981 145.880915 147.701907 150.805208
30.085000 142.443071 144.334736 146.186952 146.353289 148.190497 151.465386
30.210000 142.915788 144.759044 146.638542 146.823874 148.743886 152.079902
30.335000 143.241381 145.221792 147.134989 147.295649 149.211905 152.507131
30.477857 143.764199 145.795429 147.662322 147.824347 149.731469 153.030397
30.620714 144.228329 146.230908 148.185359 148.360682 150.338991 153.813912
30.763571 144.658720 146.739158 148.721195 148.897761 150.947305 154.268681
30.906429 145.009148 147.245499 149.259766 149.414921 151.568773 154.858775
31.049286 145.507151 147.791390 149.783817 149.922393 152.138973 155.294376
31.192143 145.999920 148.288366 150.329424 150.442305 152.701351 155.899853
31.335000 146.406391 148.767562 150.918656 150.974297 153.227133 156.294260
31.477857 146.723515 149.222499 151.463435 151.484145 153.732290 156.649539
31.620714 147.097910 149.684243 152.002699 152.009753 154.270146 157.129374
31.763571 147.577930 150.171520 152.523326 152.535854 154.830355 157.517760
31.906429 147.996637 150.704505 153.084997 153.060067 155.318965 157.993177
32.049286 148.515223 151.315430 153.602590 153.599144 155.896624 158.466734
32.192143 149.202270 151.784921 154.201620 154.148134 156.494838 159.096961
32.335000 149.617949 152.325605 154.725438 154.698388 157.036358 159.624933
32.477857 150.093560 152.843182 155.303963 155.250831 157.633958 160.175461
32.620714 150.567947 153.386957 155.884469 155.783780 158.268558 160.683615
32.763571 150.987933 153.952508 156.437766 156.325215 158.745361 161.257950
32.906429 151.393076 154.422487 156.936731 156.880674 159.376965 161.815487
33.049286 151.941108 154.997681 157.519596 157.437524 159.928382 162.502224
33.192143 152.568941 155.557809 158.087160 158.011045 160.444535 163.251070
33.335000 153.253220 156.102364 158.627779 158.599495 161.043173 163.947421
33.460000 153.667627 156.609696 159.138481 159.121596 161.554911 164.553686
33.585000 153.975206 157.103471 159.633555 159.650631 162.115236 165.144813
33.710000 154.549892 157.659922 160.165991 160.174361 162.719846 165.642852
33.835000 155.012302 158.166554 160.682054 160.700145 163.296310 166.368731
33.960000 155.590389 158.676082 161.214846 161.234614 163.899146 167.032754
34.085000 156.036793 159.164420 161.672783 161.747379 164.340161 167.574945
34.210000 156.470249 159.656010 162.237128 162.266223 164.910505 168.292158
34.335000 157.038145 160.127693 162.725327 162.794977 165.473807 169.100496
34.477857 157.660888 160.711219 163.281759 163.391926 166.216844 170.107372
34.620714 158.219890 161.184447 163.827136 163.989734 166.911550 170.654665
34.763571 158.807856 161.735653 164.352878 164.584076 167.514272 171.591721
34.906429 159.326498 162.269863 164.901520 165.185443 168.173669 172.125954
35.049286 159.967522 162.808654 165.403595 165.804333 168.826881 172.964527
35.192143 160.646593 163.361714 166.006822 166.421718 169.542346 174.025016
35.335000 161.252714 163.910283 166.548533 167.062384 170.214724 174.983501
35.465000 161.719046 164.561307 167.063485 167.644624 170.890929 175.778778
35.595000 162.256591 165.076562 167.661389 168.235917 171.656919 176.450910
35.725000 162.873567 165.521679 168.271513 168.815190 172.393159 177.239348
35.855000 163.371308 166.046581 168.859631 169.416850 173.081622 177.673571
35.985000 163.883700 166.606641 169.400846 170.019115 173.810859 178.291129
