depth(m) lower_95(kyr) lower_68(kyr) median(kyr) mean(kyr) upper_68(kyr) upper_95(kyr)
0.200000 9.181414 9.994732 11.060106 11.056169 12.091859 12.979541
0.290000 11.631574 12.848188 14.217659 14.255276 15.622404 17.336271
0.380000 14.788556 15.846677 17.034308 17.092845 18.331504 19.928136
0.490000 16.690019 17.815670 19.091066 19.181559 20.553034 22.153455
0.590000 18.213333 19.433299 20.752864 20.894038 22.299056 24.120290
0.720000 20.293626 21.603679 23.020381 23.184898 24.793510 27.076046
0.850000 22.072862 23.736138 25.252517 25.449733 27.269990 29.489059
0.990000 24.391941 25.965612 27.560345 27.809045 29.685682 32.516256
1.100000 26.207516 27.925920 29.616749 29.902669 31.973932 35.145513
1.175000 27.693989 29.364668 31.160795 31.452962 33.455588 37.320234
1.250000 29.035995 30.804226 32.642324 33.084603 35.329744 39.677684
1.390000 31.343065 33.680266 35.710107 36.282910 39.184135 43.343316
1.493333 33.206243 35.702542 38.206545 38.808149 42.641222 46.314216
1.596667 35.330966 37.809826 40.677766 41.422188 45.562164 49.250270
1.700000 37.398928 40.049337 43.630156 44.006896 48.419208 51.672825
1.775000 38.575179 41.706674 45.747748 45.943039 50.335869 53.768337
1.850000 40.306809 43.458639 47.928030 47.833728 52.338373 55.585287
1.980000 43.013329 46.271619 50.972494 50.935585 55.504528 58.329908
2.100000 45.277703 49.105900 54.193791 53.866796 58.250024 60.787545
2.190000 47.675721 51.902731 56.935112 56.293167 60.206846 62.621512
2.300000 49.647322 55.434997 60.135571 59.400214 62.794939 65.696180
2.390000 52.596679 58.599231 62.416445 61.830023 64.903970 68.375775
2.490000 55.909307 61.518246 64.860617 64.670898 67.113969 75.969845
2.590000 59.887403 64.624152 67.161139 67.489192 69.317280 83.326723
2.690000 64.926773 67.732108 69.590317 70.338099 71.492516 87.487783
2.720000 66.330738 68.755679 70.518351 71.289738 72.327388 88.273490
2.750000 67.407206 69.730320 71.412274 72.229845 73.323173 89.109382
2.810000 70.054182 71.702138 73.395859 74.672564 75.754112 90.527642
2.840000 71.384385 72.672762 74.660544 75.934133 77.679020 91.305971
2.900000 73.180560 74.910217 77.675181 80.875450 88.784144 93.298003
2.960000 75.180458 77.225522 88.892163 85.942313 93.089802 97.039087
3.000000 77.598263 79.583049 93.601260 89.369392 97.149594 99.170424
3.020000 78.467606 80.316170 94.796351 90.290322 98.143450 100.030091
3.050000 79.981404 81.274730 96.406944 91.527956 99.318556 100.958135
3.080000 81.123275 82.080279 97.646702 92.592628 100.363517 101.950998
3.100000 81.705598 82.626861 98.511126 93.260594 101.031864 102.661601
3.110000 81.941636 82.926755 98.926151 93.585643 101.402159 103.048520
3.140000 82.649282 83.604865 99.947955 94.463005 102.369644 104.111129
3.170000 83.385305 84.394130 100.880611 95.411423 103.341540 105.291918
3.200000 84.231684 85.216302 101.820715 96.436105 104.318719 106.186763
3.260000 86.050435 88.024237 104.023697 99.510988 106.588460 108.543184
3.300000 87.276176 90.997972 105.405291 101.359009 108.044673 109.577239
3.320000 88.024216 92.013404 106.053242 102.193456 108.810869 110.241242
3.350000 89.024351 93.416754 107.146764 103.473374 109.822240 111.174877
3.380000 90.481376 95.332935 108.024372 104.789302 110.630627 112.047843
3.400000 91.458237 96.227704 108.763108 105.569348 111.219331 112.615116
3.440000 93.324197 99.220504 110.219493 107.476143 112.415351 113.544302
3.450000 93.776689 99.894860 110.591002 107.880009 112.689957 113.846265
3.470000 94.975895 100.931182 111.305970 108.737763 113.270949 114.309466
3.500000 97.708585 103.202608 112.553027 110.160483 114.182441 115.278611
3.530000 100.741315 105.154257 113.781204 111.684153 115.309824 116.669909
3.550000 102.379693 106.299058 114.528275 112.536042 115.939451 117.439086
3.560000 103.012922 106.854243 114.927356 112.991308 116.338377 117.769400
3.620000 114.522533 116.416824 117.987734 118.025248 119.607369 121.623570
3.650000 117.362044 118.827720 120.272904 120.317057 121.861083 123.428560
3.680000 119.318383 120.677079 122.049258 122.057791 123.462956 124.947337
3.700000 120.403670 121.708792 123.113678 123.127699 124.514022 125.909597
3.750000 123.030078 124.495642 126.009467 125.999526 127.536377 128.805747
3.780000 125.988510 127.190716 128.486133 128.449208 129.647447 130.766866
3.800000 127.111748 128.216829 129.397705 129.366772 130.466089 131.465146
3.830000 128.061156 129.287936 130.403445 130.350208 131.353207 132.259242
3.850000 128.788003 129.973515 131.018827 130.981621 132.001706 132.810033
3.880000 129.892092 130.841632 131.841461 131.812960 132.780385 133.595003
3.950000 131.801417 132.807666 133.704147 133.699408 134.610352 135.498889
4.000000 133.311008 134.104670 135.027666 135.028690 135.909507 136.932757
4.010000 133.582068 134.444510 135.338337 135.333794 136.174207 137.273627
4.040000 134.446576 135.324176 136.180240 136.174107 137.017052 137.967705
4.070000 135.327204 136.134808 136.947361 136.965722 137.799864 138.854663
4.100000 136.144907 136.880720 137.686987 137.724814 138.532507 139.793983
4.130000 136.769704 137.639703 138.397763 138.472825 139.328826 140.602304
4.140000 136.991579 137.889392 138.668820 138.742457 139.560353 140.887382
4.160000 137.468916 138.397330 139.145027 139.246210 140.101590 141.472119
4.190000 138.294652 139.090324 139.823015 139.960327 140.875043 142.324087
4.200000 138.566704 139.332577 140.090327 140.226128 141.186867 142.732921
4.220000 139.004836 139.819523 140.595147 140.748221 141.788638 143.336482
4.250000 139.686530 140.461564 141.384115 141.532369 142.726302 144.218120
4.280000 140.408641 141.160975 142.125175 142.322819 143.602336 145.056675
4.310000 141.264125 141.908593 143.005883 143.232574 144.648479 146.124177
4.340000 142.040293 142.702073 144.005563 144.175384 145.766592 147.082263
4.360000 142.636423 143.283800 144.668378 144.842224 146.493124 147.763257
4.370000 142.913383 143.592979 145.072346 145.183614 146.819931 148.146859
4.410000 143.888833 144.817859 146.395853 146.461845 148.078425 149.521705
4.440000 144.668456 145.791560 147.497339 147.454534 149.057133 150.444704
4.470000 145.491233 146.856220 148.499587 148.459523 150.047140 151.265038
4.520000 146.856334 148.375088 149.976585 149.961673 151.449961 152.797940
4.560000 148.033878 149.531104 151.159587 151.134960 152.664572 154.039322
4.620000 149.582998 151.145363 152.962988 152.850119 154.427728 155.840606
4.680000 151.074811 152.898745 154.637067 154.534190 156.115281 157.152864
4.710000 152.041357 153.963786 155.587142 155.501201 157.065391 158.084419
4.750000 153.461561 155.442830 157.117641 156.868135 158.214351 159.280930
4.760000 153.755573 155.784348 157.447600 157.204842 158.543335 159.557521
4.770000 154.041716 156.135662 157.731567 157.536131 158.867895 159.865999
4.800000 154.815301 157.074670 158.614233 158.437118 159.732475 161.036836
4.830000 155.877612 158.028453 159.427767 159.324507 160.590471 161.998216
4.870000 157.369396 159.279990 160.556232 160.527628 161.695900 163.308073
4.890000 158.456638 160.020573 161.133695 161.168982 162.365039 163.961783
4.920000 159.558766 160.999685 162.014776 162.102377 163.298172 165.007324
4.950000 160.545466 161.817928 162.817322 162.975145 164.260216 165.854572
4.970000 161.318483 162.436124 163.356436 163.577744 165.017416 166.451247
4.980000 161.554524 162.682934 163.682466 163.879982 165.330829 166.779693
5.010000 162.439031 163.429849 164.435502 164.710123 166.231114 167.794246
5.030000 162.990241 164.000423 164.978847 165.273006 166.904220 168.396220
5.040000 163.365705 164.296899 165.220224 165.567267 167.203610 168.720207
5.070000 164.093704 165.031009 166.045632 166.373833 168.039145 169.451646
5.100000 164.843342 165.760685 166.782217 167.139173 168.855285 170.247368
5.130000 165.536937 166.408133 167.490675 167.865514 169.678268 170.977819
5.160000 166.087269 167.081496 168.211601 168.634106 170.442006 171.941219
5.190000 166.776988 167.787631 168.965764 169.428141 171.328365 173.511544
5.220000 167.507016 168.452250 169.690017 170.184195 172.133255 174.885548
5.250000 168.259248 169.117696 170.380013 170.913310 172.872865 176.085269
5.280000 168.913400 169.808303 171.078464 171.649098 173.625810 177.070302
5.310000 169.583388 170.429568 171.787442 172.367961 174.436691 178.149621
5.340000 170.312639 171.197420 172.548666 173.145520 175.175762 179.097753
5.370000 171.050455 171.924270 173.307200 173.936962 175.925232 179.975692
5.400000 171.825331 172.760609 174.201634 174.757664 176.748160 180.620559
5.450000 173.091748 174.063357 175.707664 176.114306 177.993389 182.022776
5.460000 173.462898 174.370818 175.993277 176.433950 178.266356 182.296066
5.490000 174.272565 175.348885 176.966377 177.388070 179.425769 183.065359
5.520000 175.054034 176.421058 177.979996 178.395106 180.610470 184.051051
5.550000 176.114144 177.548053 179.108657 179.541576 181.626149 184.964629
5.580000 177.179723 178.569418 180.152373 180.654750 182.785806 185.960060
5.610000 178.009685 179.549126 181.291632 181.755294 184.076355 187.389126
5.640000 178.808826 180.473478 182.559149 182.884934 185.393726 188.703752
5.670000 179.690595 181.480454 183.691950 184.040292 186.880738 189.672577
5.700000 180.700641 182.486785 184.903069 185.269768 188.332384 190.697411
5.730000 181.792186 183.593921 186.475427 186.590868 189.710454 191.723387
5.845000 185.584561 189.114574 192.541405 192.226724 195.103404 197.219797
5.960000 195.130427 196.577319 198.029959 198.016624 199.523641 200.805566
5.970000 195.502325 197.040734 198.475539 198.438690 199.864909 201.143924
6.000000 197.019897 198.428362 199.702963 199.670703 200.901595 202.046551
6.020000 197.876728 199.190551 200.456837 200.420349 201.666786 202.649077
6.030000 198.374935 199.575264 200.816270 200.772848 202.006513 203.037053
6.060000 199.342772 200.612438 201.713319 201.696431 202.834841 203.823897
6.090000 200.239962 201.556099 202.630334 202.595422 203.652526 204.644366
6.120000 201.242480 202.465929 203.558837 203.517968 204.572791 205.600585
6.150000 202.168230 203.383540 204.373670 204.355292 205.362179 206.360886
6.180000 203.115782 204.211965 205.202056 205.176057 206.186223 207.139459
6.210000 204.010710 204.962770 205.962345 205.952478 206.937663 207.830648
6.240000 204.710503 205.749872 206.689066 206.723118 207.745513 208.561696
6.270000 205.496297 206.510495 207.444226 207.501459 208.529214 209.479459
6.300000 206.467289 207.294710 208.245533 208.310748 209.313831 210.459944
6.330000 207.202886 208.071343 209.070479 209.159707 210.185374 211.549758
6.360000 208.014985 208.920126 209.991423 210.094274 211.216979 213.133337
6.390000 208.930042 209.968824 211.104178 211.239907 212.469813 214.600126
6.420000 210.238626 211.365993 212.658965 212.728718 214.068487 215.632973
6.450000 211.693779 213.021148 214.336029 214.309915 215.573220 216.839378
6.480000 213.666184 215.121427 216.497561 216.444220 217.719470 218.906053
6.510000 216.630762 217.708247 218.907329 218.976316 220.243508 221.777941
6.540000 218.550011 219.687950 220.938869 221.013889 222.364186 223.862760
6.570000 220.287220 221.480803 222.824419 222.859304 224.244163 225.726484
6.600000 221.778668 222.938627 224.361151 224.408217 225.849080 227.311785
6.610000 222.202833 223.434809 224.850927 224.905631 226.351657 227.810135
6.630000 222.956805 224.467670 225.932843 225.942788 227.426952 229.299654
6.660000 224.429304 226.010831 227.741386 227.766719 229.548067 231.375004
6.690000 225.791051 227.540473 229.908671 229.749451 231.823045 233.281205
6.720000 227.855512 230.140025 232.493505 232.201506 234.125304 235.512311
6.750000 232.433775 234.801035 236.323076 236.448020 238.369026 240.735404
6.780000 236.134253 237.849018 240.384796 240.111196 242.342283 243.624121
6.810000 241.310469 243.315406 244.698449 244.588032 246.281102 247.788527
6.840000 243.759154 245.170916 246.598472 246.636147 248.353744 250.619268
6.870000 245.025132 246.475974 248.196016 248.209847 250.188509 252.529863
6.900000 245.899258 247.584287 249.388203 249.469881 251.787699 254.158863
6.930000 246.904295 248.702060 250.633517 250.671255 253.169839 255.181205
6.990000 248.246764 250.571282 252.657342 252.742893 255.218556 257.132498
7.020000 249.423377 251.768592 253.710978 253.816324 256.282669 257.953491
7.050000 250.413772 252.879066 254.803438 254.889612 257.284247 258.869534
7.080000 251.588875 253.855919 255.851726 255.863757 258.163375 259.871196
7.110000 252.567145 254.735883 256.756627 256.784246 258.974680 260.839769
7.140000 253.394886 255.621098 257.733327 257.654361 259.781889 261.607461
7.170000 254.460734 256.483257 258.569464 258.497897 260.512006 262.341234
7.200000 255.311107 257.338530 259.386018 259.349049 261.373196 263.115927
7.260000 256.903716 258.924871 260.981185 260.901967 262.903437 264.624221
7.290000 257.711187 259.784956 261.894274 261.770384 263.701576 265.455800
7.320000 258.620409 260.739266 262.889742 262.678890 264.535302 266.141172
7.350000 259.452227 261.660954 263.745453 263.545667 265.344618 266.815713
7.380000 260.613019 262.512234 264.635928 264.424202 266.197856 267.628044
7.410000 261.542171 263.561065 265.517426 265.331020 266.999257 268.355165
7.440000 262.416123 264.582385 266.345347 266.235609 267.839230 269.387820
7.470000 263.539238 265.645588 267.205374 267.166507 268.701048 270.380263
7.500000 264.504740 266.673765 268.161413 268.121193 269.576488 271.304571
7.530000 265.692469 267.769377 269.119473 269.111176 270.536858 272.176607
7.560000 267.096719 268.710880 270.115123 270.119898 271.582085 273.145861
7.590000 268.269938 269.679985 271.143934 271.177621 272.636587 274.396778
7.620000 269.559070 270.816390 272.246569 272.353761 273.855935 275.934154
7.650000 270.770397 272.246502 273.694973 273.813090 275.443812 277.430300
7.680000 272.154769 273.556682 275.271535 275.338039 277.069456 278.840763
7.710000 273.886631 275.373458 277.260359 277.232813 279.027310 280.262305
7.740000 276.079812 277.992627 279.755196 279.468752 280.799340 281.511731
7.770000 278.500187 280.091973 281.195660 281.064953 282.052254 282.869149
7.800000 280.123782 281.283366 282.181798 282.150749 283.069883 283.872208
7.830000 281.150556 282.153325 282.976186 283.011118 283.904711 284.878909
7.860000 282.070769 282.931348 283.737349 283.780262 284.684752 285.800398
7.890000 282.744489 283.657876 284.481388 284.507808 285.396930 286.550950
7.920000 283.363936 284.324069 285.199847 285.238323 286.174552 287.290386
7.950000 284.200558 285.077677 285.943429 285.987749 286.969638 287.988701
7.980000 284.872937 285.796538 286.673545 286.740401 287.659967 288.888014
8.010000 285.522894 286.514716 287.395392 287.486991 288.346684 289.831041
8.040000 286.260035 287.266630 288.099238 288.221726 289.093855 290.782229
8.070000 287.026365 287.939312 288.849192 289.030211 289.937561 292.096712
8.100000 287.854899 288.762197 289.673555 289.945077 290.982788 293.825704
8.130000 288.653254 289.571200 290.555791 290.975724 292.279460 296.134922
8.160000 289.520908 290.474789 291.586587 292.117930 293.651127 298.052549
