depth(m) lower_95(kyr) lower_68(kyr) median(kyr) mean(kyr) upper_68(kyr) upper_95(kyr)
40.870000 1492.778791 1500.795435 1504.435834 1504.233604 1507.489664 1515.533969
40.920000 1503.406822 1507.755053 1510.474427 1510.798114 1514.023105 1520.106672
40.970000 1510.083447 1513.381135 1517.427409 1517.426855 1521.592284 1525.298420
41.020000 1514.883748 1520.124609 1524.272925 1523.713053 1527.501061 1529.973374
41.070000 1525.081686 1528.460138 1530.952119 1530.591960 1533.099021 1534.795750
41.120000 1530.059655 1532.204394 1534.088796 1533.888004 1535.657890 1537.679311
41.170000 1533.109578 1535.016849 1536.735313 1536.659485 1538.368436 1540.730082
41.220000 1536.520320 1537.886150 1539.442653 1539.462171 1540.819580 1542.992605
41.270000 1539.500230 1541.186158 1542.438066 1542.577679 1543.866027 1546.585730
41.320000 1542.741658 1544.181663 1545.689518 1546.148680 1548.147624 1552.255028
41.370000 1546.590495 1548.272039 1551.390622 1551.825157 1555.625843 1559.333467
41.420000 1550.592228 1554.042677 1558.381102 1558.029224 1561.705161 1565.070864
41.470000 1556.889239 1561.762208 1565.027552 1564.511182 1567.218472 1569.494055
41.520000 1568.546774 1571.089293 1573.138217 1573.110640 1575.269763 1577.697432
41.570000 1574.161478 1575.967106 1577.819237 1577.972968 1580.107228 1582.262980
41.620000 1579.611220 1581.419615 1583.789047 1584.416231 1586.936467 1594.356325
41.670000 1584.487408 1586.810320 1589.502566 1591.002413 1596.565619 1603.297960
41.720000 1588.381308 1591.006235 1595.355535 1596.337626 1601.539936 1610.422569
41.770000 1592.033330 1595.990463 1599.223144 1601.647355 1609.435938 1621.069230
41.820000 1596.289097 1600.467511 1603.057092 1606.514557 1620.154902 1626.228887
41.870000 1599.333008 1603.535371 1607.214215 1611.582274 1624.536580 1629.885162
41.920000 1603.833662 1607.169251 1620.157181 1618.330145 1628.859101 1632.616097
41.970000 1608.275581 1617.441676 1627.851415 1625.273189 1632.239466 1635.146798
42.020000 1619.092739 1627.208039 1633.195723 1631.677679 1635.491552 1637.738090
42.070000 1624.189393 1633.422014 1636.458673 1635.810415 1638.548770 1640.530827
42.170000 1637.875891 1640.617840 1642.473004 1642.330023 1644.296235 1646.310904
42.220000 1642.106686 1643.801629 1645.462578 1645.590298 1647.444642 1649.592667
42.270000 1644.564079 1646.277899 1648.071279 1648.195907 1650.100314 1652.420851
42.320000 1646.677793 1648.797037 1650.606131 1650.675728 1652.590151 1654.846122
42.370000 1649.354184 1651.297118 1653.124929 1653.159266 1655.024631 1657.324254
42.420000 1651.605044 1653.737868 1655.656790 1655.599947 1657.480434 1659.463001
42.470000 1654.240645 1656.181481 1658.100525 1658.106185 1659.996656 1662.055650
42.520000 1656.535100 1658.876344 1660.879919 1660.993484 1663.132360 1665.879704
42.620000 1661.179635 1663.548200 1666.107554 1667.071337 1669.983363 1681.181507
42.670000 1663.554351 1665.914231 1669.126744 1670.537663 1674.533951 1687.154708
42.745000 1666.679357 1670.103894 1675.281811 1677.041114 1685.001057 1694.262604
42.820000 1670.003030 1674.619433 1683.022156 1683.432049 1692.186108 1700.082514
42.895000 1674.899123 1680.663233 1689.058093 1688.878781 1696.126624 1704.459757
42.970000 1681.604155 1688.745978 1694.243664 1694.264477 1699.661862 1708.257143
43.020000 1685.707689 1692.657350 1697.217103 1697.536127 1702.240105 1710.527280
43.070000 1691.120597 1696.351448 1700.184704 1700.655698 1704.866406 1713.885340
43.120000 1695.181391 1699.204025 1703.064939 1703.566591 1707.602825 1717.046887
43.170000 1697.775262 1701.757489 1705.542773 1706.268959 1710.290456 1721.228683
43.220000 1700.748552 1704.630436 1708.237819 1709.022597 1712.773772 1724.694686
43.320000 1706.435201 1710.052620 1713.212299 1714.480008 1718.351859 1730.291842
43.370000 1710.201493 1713.453263 1716.382925 1717.779848 1721.814585 1732.864872
43.420000 1712.987825 1716.577186 1719.513525 1720.909923 1725.247014 1735.705900
43.520000 1717.903380 1721.581421 1725.558247 1727.259382 1734.546148 1740.808036
43.570000 1720.919899 1724.370732 1729.064800 1730.703846 1738.603713 1743.656647
43.670000 1725.890856 1729.328429 1737.380957 1737.188342 1744.887062 1748.762080
43.720000 1728.310157 1732.146661 1740.864843 1740.316160 1747.768660 1751.326639
43.770000 1731.289899 1735.443483 1744.249671 1743.533029 1750.561930 1753.871126
43.870000 1736.812626 1743.383248 1750.985729 1749.760985 1755.251955 1758.360534
43.920000 1740.125636 1747.915161 1753.993356 1752.988090 1757.767061 1760.858409
43.970000 1743.690068 1752.577013 1757.374953 1756.550093 1760.672513 1764.111981
44.020000 1749.488322 1756.597411 1760.303810 1759.975705 1763.611426 1767.402158
44.070000 1754.791072 1759.817107 1763.404363 1763.368916 1767.045602 1771.205955
44.120000 1758.696715 1763.074647 1766.497798 1766.607625 1770.324416 1774.998789
44.170000 1761.760957 1765.930058 1769.442866 1769.647443 1773.507355 1778.069660
44.220000 1764.826972 1768.714283 1772.409084 1772.721365 1776.503337 1782.850835
44.270000 1767.471090 1771.061069 1774.961343 1775.819071 1779.911856 1791.501488
44.320000 1769.938479 1773.674636 1777.226984 1778.882511 1782.898645 1802.969174
44.370000 1772.751158 1776.336667 1779.800412 1782.142465 1786.583068 1806.283875
44.420000 1775.403091 1778.625237 1782.280585 1785.515832 1794.029639 1809.726221
44.470000 1778.057968 1781.132515 1785.128726 1789.150973 1803.484731 1812.766353
44.520000 1780.540104 1783.555028 1788.405727 1792.935363 1807.644384 1815.471192
44.570000 1783.462758 1787.036725 1795.317912 1797.498448 1811.666336 1818.265439
44.620000 1786.262528 1790.558743 1801.814502 1802.451810 1815.494777 1821.081797
44.670000 1788.962181 1796.209853 1806.785836 1807.166325 1819.023617 1823.643778
44.720000 1792.428030 1802.062900 1812.438748 1811.886418 1822.241342 1826.404549
44.770000 1798.554968 1806.758317 1817.750827 1816.489940 1825.644682 1828.987834
44.845000 1805.740641 1815.221303 1825.311767 1823.129470 1829.949024 1832.500102
44.920000 1813.358324 1823.715249 1831.258116 1829.265242 1833.883451 1835.647653
44.970000 1819.767902 1829.352040 1834.257096 1832.761723 1836.162425 1837.589947
45.020000 1824.666738 1833.303684 1836.642206 1835.682007 1838.194463 1839.434316
45.070000 1834.553338 1837.637052 1839.077623 1838.780846 1840.211101 1841.217226
45.120000 1839.458834 1840.466606 1841.371955 1841.331026 1842.188119 1843.124021
45.170000 1841.514969 1842.710122 1843.958850 1844.110781 1845.337876 1847.799642
45.220000 1843.823989 1845.276345 1847.110461 1847.929227 1850.646416 1856.345794
45.270000 1846.288830 1848.261763 1852.204066 1852.544242 1857.009767 1860.073243
45.320000 1849.331141 1854.060982 1859.007573 1857.905317 1861.026120 1862.334278
45.370000 1861.241469 1862.190079 1863.075671 1863.058603 1863.951404 1864.756808
45.420000 1863.961302 1865.374667 1867.258918 1867.944888 1870.492305 1876.368427
45.470000 1866.663390 1869.305290 1873.012225 1873.638960 1878.499225 1883.484697
45.570000 1875.322949 1881.106142 1885.822673 1885.371430 1889.473496 1893.395854
45.620000 1880.701859 1885.744512 1889.730567 1889.451354 1893.246386 1896.457644
45.670000 1884.384361 1889.230558 1892.918381 1892.847480 1896.839202 1900.020352
45.720000 1888.582574 1892.279636 1896.258990 1896.382537 1900.787619 1904.188720
45.770000 1892.477799 1896.454734 1900.662908 1900.913284 1905.509689 1910.238217
45.820000 1898.641926 1903.268998 1908.639271 1908.589540 1914.147799 1918.375965
45.857000 1901.935841 1907.006465 1912.615717 1912.511298 1918.023848 1921.787097
45.870000 1902.628925 1907.978127 1913.926423 1913.598459 1919.248816 1922.380239
45.920000 1905.830296 1912.922658 1920.251145 1919.007260 1924.210489 1927.539562
45.970000 1909.738182 1919.668998 1924.224443 1923.487075 1927.843408 1931.175406
46.020000 1916.092052 1923.881191 1927.708644 1927.289520 1931.322555 1934.274402
46.070000 1922.626635 1927.122151 1930.593118 1930.285193 1933.933787 1936.434352
46.120000 1925.468541 1929.995679 1933.225379 1932.972709 1936.463778 1938.657378
46.220000 1931.455399 1934.892795 1937.834035 1937.604674 1940.371708 1942.009332
46.270000 1934.140854 1937.083717 1940.126891 1939.817297 1942.426327 1944.016660
46.320000 1936.228314 1939.459617 1942.231107 1941.910051 1944.264908 1945.757816
46.370000 1938.864847 1941.644822 1944.253055 1943.962532 1946.088634 1947.619395
46.420000 1941.342310 1944.039102 1946.230455 1945.988619 1947.924348 1949.310280
46.470000 1944.047475 1946.264424 1948.108457 1947.929670 1949.606689 1950.811957
46.520000 1946.449998 1948.399452 1949.783535 1949.740226 1951.272473 1952.496362
46.570000 1948.411600 1950.091150 1951.342758 1951.344865 1952.733966 1953.948106
46.620000 1950.157940 1951.617787 1952.875456 1952.831937 1954.077157 1955.240319
46.670000 1951.794420 1953.089062 1954.232622 1954.213810 1955.388829 1956.520903
46.720000 1953.441107 1954.597609 1955.628448 1955.624789 1956.675177 1957.717180
46.770000 1955.388771 1956.256569 1957.110939 1957.125721 1958.031551 1958.940993
46.820000 1956.970618 1958.046757 1959.180882 1959.414275 1960.678506 1963.062866
46.870000 1958.598556 1960.056632 1961.774349 1962.152150 1964.455867 1967.125694
46.920000 1960.704266 1962.525913 1964.958613 1965.192678 1968.037351 1970.074816
46.990000 1964.046390 1966.143280 1969.111216 1968.874797 1971.427424 1973.207771
47.040000 1966.384826 1968.989351 1971.491131 1971.222767 1973.451844 1974.888360
47.090000 1968.929098 1971.384776 1973.563645 1973.342712 1975.295850 1976.642423
47.140000 1971.360248 1973.454718 1975.498166 1975.317893 1977.058989 1978.468415
47.190000 1973.265882 1975.369507 1977.151247 1977.029181 1978.719538 1979.925120
47.240000 1975.033598 1977.003372 1978.725926 1978.605098 1980.217258 1981.464047
47.290000 1976.627218 1978.561820 1980.231846 1980.111155 1981.710331 1983.026685
47.340000 1978.272743 1979.979969 1981.687929 1981.576157 1983.141549 1984.478794
47.390000 1979.901350 1981.498314 1983.097886 1983.046412 1984.656467 1986.022642
47.440000 1981.395069 1982.946969 1984.562532 1984.546417 1986.136400 1987.707525
47.490000 1982.893336 1984.529497 1986.121689 1986.111025 1987.712444 1989.292186
47.540000 1984.561481 1986.111917 1987.734376 1987.732505 1989.265262 1991.175132
47.590000 1986.193808 1987.739643 1989.306755 1989.380120 1990.965836 1993.380387
47.640000 1987.820542 1989.354404 1990.965228 1991.115109 1992.729455 1995.456859
47.690000 1989.718649 1991.045632 1992.798304 1992.987890 1994.722957 1998.057355
47.740000 1991.296825 1992.802680 1994.683472 1995.085363 1997.399622 2000.870138
47.790000 1992.980884 1994.568054 1996.672189 1997.200497 2000.146109 2003.366225
47.840000 1994.614770 1996.377283 1998.954525 1999.275398 2002.433472 2005.365296
47.890000 1996.427285 1998.498395 2001.209270 2001.424064 2004.499651 2007.228295
47.940000 1998.370713 2000.550207 2003.535449 2003.592787 2006.651796 2009.192813
47.990000 2000.366111 2002.956864 2006.068179 2005.924375 2008.863764 2011.234592
48.040000 2002.613846 2005.310981 2008.506812 2008.486557 2011.406627 2014.480392
48.090000 2004.846113 2007.713434 2011.159552 2011.304051 2014.679443 2018.824469
48.140000 2006.863161 2009.986068 2013.769860 2014.563477 2019.311541 2025.662390
48.190000 2008.853080 2012.017787 2016.884211 2019.052165 2027.391869 2033.514802
48.240000 2010.301165 2013.764745 2019.711254 2023.243272 2035.088968 2038.937879
48.290000 2011.919980 2015.685068 2023.142496 2026.803641 2039.332449 2043.066106
48.340000 2013.828141 2017.895864 2028.068652 2029.727225 2042.353959 2046.572780
48.465000 2020.604054 2026.496769 2040.021097 2038.439693 2049.301633 2053.720698
48.590000 2034.922817 2039.849636 2047.639086 2047.704156 2055.766925 2059.281514
48.640000 2038.308773 2043.299668 2050.786112 2050.654911 2058.024491 2061.030972
48.690000 2040.729957 2046.571542 2054.632296 2053.629296 2060.127603 2063.181281
48.740000 2043.849219 2049.937387 2058.129755 2056.584124 2062.321664 2065.125431
48.840000 2050.601169 2057.506895 2063.380293 2062.401694 2066.894046 2069.666921
48.940000 2060.449206 2065.363660 2068.282811 2068.107946 2071.304536 2073.795976
49.015000 2065.035881 2068.608324 2071.583220 2071.431806 2074.366387 2076.931879
49.090000 2068.656322 2071.949576 2074.825935 2074.649497 2077.354986 2079.423691
49.140000 2071.041085 2074.117165 2076.940278 2076.760790 2079.375151 2081.278245
49.190000 2073.828719 2076.274992 2078.962936 2078.859453 2081.302924 2083.066134
49.240000 2075.578668 2078.554274 2080.870782 2080.776717 2083.080285 2085.080518
49.340000 2079.477963 2081.856852 2084.268006 2084.268646 2086.575340 2089.089977
49.390000 2081.314189 2083.741935 2086.171166 2086.193475 2088.375208 2091.717843
49.440000 2083.734127 2085.789254 2088.313125 2088.443257 2090.787258 2094.695838
49.490000 2085.436338 2088.043854 2090.436993 2090.896144 2093.683609 2098.824437
49.540000 2087.317269 2090.172023 2092.971998 2093.447630 2096.598370 2102.799717
