depth(m) lower_95(kyr) lower_68(kyr) median(kyr) mean(kyr) upper_68(kyr) upper_95(kyr)
68.140000 1480.582633 1483.140433 1487.470376 1493.811082 1516.677976 1524.731583
68.225000 1481.389832 1484.171958 1488.332823 1494.648900 1517.567620 1525.253157
68.310000 1482.003316 1485.024193 1489.059570 1495.467413 1518.691824 1525.870218
68.450000 1483.318982 1486.284968 1490.178508 1496.844421 1520.573641 1526.883261
68.525000 1484.010954 1487.090245 1490.819724 1497.605535 1521.290456 1527.474373
68.600000 1484.689880 1487.865336 1491.396483 1498.341460 1522.282406 1527.873431
68.685000 1485.551397 1488.686550 1492.046101 1499.140167 1523.072566 1528.439203
68.770000 1486.239641 1489.395237 1492.696280 1499.947201 1524.088450 1529.060973
68.904286 1487.125636 1490.433488 1493.613920 1501.302933 1525.292775 1529.850748
69.038571 1488.375765 1491.472114 1494.469072 1502.740078 1526.107381 1530.581806
69.172857 1489.622514 1492.466702 1495.244054 1504.141170 1527.364466 1531.397130
69.307143 1490.679422 1493.499914 1496.000162 1505.507638 1528.448782 1532.183370
69.441429 1491.847842 1494.451979 1496.809758 1506.945471 1529.512190 1533.015305
69.575714 1492.869500 1495.311383 1497.695563 1508.290235 1530.718953 1533.953138
69.710000 1494.202690 1496.233519 1498.495040 1509.713856 1531.832580 1534.828913
69.810000 1495.083963 1496.908186 1499.105314 1510.545320 1532.883833 1535.594667
69.950000 1496.005001 1497.801434 1499.951581 1511.742775 1534.570287 1537.022068
70.056667 1496.864108 1498.545572 1500.643383 1512.538827 1535.593444 1538.238355
70.163333 1497.506484 1499.211717 1501.396728 1513.336211 1536.579759 1539.492805
70.270000 1498.300419 1499.937822 1502.140182 1514.150940 1537.549171 1540.376178
70.370000 1499.061923 1500.609926 1502.699121 1514.910000 1538.357230 1541.147299
70.492500 1499.908810 1501.457984 1503.554899 1515.824922 1539.456749 1542.145430
70.615000 1500.719999 1502.262888 1504.356118 1516.773309 1540.641134 1543.006742
70.737500 1501.459746 1502.994727 1505.156008 1517.709855 1541.748433 1543.730802
70.860000 1502.303211 1503.817039 1505.925739 1518.638279 1542.714434 1544.827747
70.985000 1503.148174 1504.719458 1506.838856 1519.682006 1543.896754 1546.314289
71.110000 1503.935610 1505.643912 1507.981716 1520.780182 1545.017763 1547.884825
71.216667 1504.748479 1506.444799 1509.493912 1521.870847 1545.976599 1549.092526
71.323333 1505.417627 1507.323519 1511.154505 1523.025732 1546.980890 1550.158772
71.430000 1506.092144 1508.340744 1512.746939 1524.204627 1548.059981 1551.523086
71.573333 1507.072788 1509.418685 1515.912046 1526.016515 1549.355311 1553.227070
71.716667 1508.035024 1510.708621 1519.736770 1527.972320 1551.068114 1555.261686
71.860000 1508.982658 1512.001555 1522.795923 1529.808118 1552.435261 1557.066558
71.985000 1510.143487 1513.524886 1524.865041 1531.385896 1554.157474 1558.509942
72.110000 1511.555055 1515.137838 1526.337094 1532.962239 1555.552817 1560.395017
72.245000 1513.096039 1517.469678 1527.788030 1534.879146 1557.597192 1562.618697
72.380000 1515.142199 1519.631786 1529.260193 1536.718290 1559.531668 1564.947286
72.515000 1517.235246 1521.782899 1530.883052 1538.559660 1561.504935 1566.724391
72.650000 1519.746648 1524.088659 1533.145116 1540.467447 1563.682177 1568.010895
72.785000 1522.147838 1526.709957 1535.025426 1542.371353 1565.830957 1569.454121
72.920000 1524.951716 1528.994446 1537.185345 1544.111855 1567.413465 1570.982194
73.046667 1526.694338 1530.705184 1538.998203 1545.624377 1568.368947 1571.965896
73.173333 1528.843414 1532.182821 1541.505607 1547.151089 1569.174362 1572.758754
73.300000 1530.618297 1533.747755 1543.651938 1548.638794 1569.847407 1573.909308
73.443000 1532.198965 1535.546759 1546.063187 1550.295726 1570.611112 1575.066490
73.586000 1534.009350 1537.635351 1547.745037 1551.996993 1571.302254 1576.002075
73.729000 1535.372503 1540.115081 1549.792514 1553.654278 1572.065865 1576.910234
73.872000 1537.234443 1542.707153 1551.943825 1555.303588 1572.723486 1577.862191
74.015000 1538.946202 1544.919576 1554.026986 1556.952222 1573.423189 1578.683290
74.158000 1541.050658 1546.983408 1555.782559 1558.517568 1574.204257 1579.625336
74.301000 1543.075481 1549.353843 1557.472766 1560.092086 1574.807860 1580.658396
74.444000 1545.624268 1551.426155 1559.227034 1561.594438 1575.408606 1581.739870
74.587000 1548.147332 1553.492269 1560.821973 1563.110305 1575.966616 1582.637948
74.730000 1550.191991 1555.516952 1562.832384 1564.636626 1576.625451 1583.760596
74.873000 1552.676848 1557.573467 1564.789585 1566.187539 1577.226961 1584.478129
75.016000 1554.390911 1559.563390 1566.717511 1567.750547 1577.840663 1585.314522
75.159000 1556.781194 1561.686149 1568.496652 1569.366129 1578.455820 1586.313082
75.302000 1558.975949 1563.936795 1570.289880 1570.964582 1579.055143 1587.223484
75.445000 1560.974656 1566.083055 1571.943404 1572.540359 1579.617057 1588.094709
75.588000 1563.369253 1568.463846 1573.511891 1574.147710 1580.352493 1588.902029
75.731000 1565.411510 1570.578778 1575.258653 1575.709937 1580.959740 1589.755351
75.874000 1568.006181 1572.677583 1576.905130 1577.267272 1581.666366 1590.519361
76.017000 1570.886191 1575.345024 1578.623703 1578.924559 1582.380803 1591.353477
76.160000 1573.742495 1577.644578 1580.120736 1580.569928 1583.090768 1592.146787
76.235000 1574.867013 1578.748718 1581.034197 1581.399956 1583.677809 1592.591109
76.310000 1575.933846 1579.608940 1581.809026 1582.205585 1584.338637 1592.996802
76.420000 1578.394910 1580.784313 1582.934182 1583.354473 1585.598925 1593.702075
76.530000 1579.927556 1581.985821 1583.979123 1584.514808 1586.696751 1594.357616
76.620000 1580.796046 1582.898844 1584.964385 1585.563041 1588.085905 1594.881387
76.710000 1581.831406 1583.853431 1585.940512 1586.585392 1589.273806 1595.375771
76.847500 1583.317735 1585.553878 1588.006476 1588.420813 1591.819865 1596.235366
76.985000 1584.831046 1587.102464 1590.282099 1590.401637 1593.964490 1597.212981
77.122500 1586.262297 1589.154644 1592.681976 1592.409626 1595.721684 1597.973714
77.260000 1587.674647 1591.506404 1594.882472 1594.333665 1597.121516 1598.947328
77.380000 1588.938494 1593.847183 1596.467562 1595.946290 1598.383807 1599.813178
77.500000 1590.392954 1596.014227 1597.963232 1597.515585 1599.462792 1600.750673
77.585000 1591.446505 1597.032126 1598.838950 1598.439100 1600.227476 1601.397765
77.670000 1592.375786 1598.099653 1599.656202 1599.307176 1601.050205 1602.164265
77.750000 1593.005228 1598.875023 1600.373546 1600.027310 1601.662208 1602.817129
77.830000 1594.107619 1599.554079 1601.047959 1600.720470 1602.363092 1603.420170
77.948000 1595.437781 1600.487047 1601.966986 1601.622438 1603.123443 1604.290335
78.066000 1597.300145 1601.393522 1602.820635 1602.499389 1603.964811 1605.040696
78.184000 1599.058933 1602.256327 1603.641091 1603.411367 1604.815191 1605.884366
78.302000 1600.868235 1603.162856 1604.503862 1604.301669 1605.611804 1606.713361
78.420000 1602.022248 1604.067206 1605.360542 1605.196259 1606.450035 1607.522996
78.510000 1603.044795 1604.810535 1606.068822 1605.937680 1607.121919 1608.301035
78.600000 1604.248428 1605.640908 1606.762960 1606.683267 1607.823372 1609.081696
78.710000 1605.181568 1606.635719 1607.683651 1607.678308 1608.815485 1610.342506
78.813333 1605.950186 1607.459090 1608.556977 1608.624455 1609.916522 1612.067085
78.916667 1606.808091 1608.219314 1609.413819 1609.568675 1611.010710 1613.700486
79.020000 1607.834525 1609.031814 1610.313590 1610.538732 1612.105570 1615.036745
79.162500 1608.921446 1610.133936 1611.579859 1611.820438 1613.622723 1616.514547
79.305000 1609.900301 1611.202962 1612.863386 1613.106144 1615.119099 1618.044461
79.447500 1611.023375 1612.334872 1614.183263 1614.384171 1616.518947 1619.433615
79.590000 1612.021293 1613.567999 1615.428989 1615.631723 1617.804957 1620.766802
79.732500 1613.096470 1614.721474 1616.778887 1616.889833 1619.108032 1621.934078
79.875000 1614.155894 1616.028637 1618.020691 1618.158507 1620.357547 1623.123492
80.017500 1615.433203 1617.353256 1619.314358 1619.457646 1621.653906 1624.061336
80.160000 1616.772066 1618.705636 1620.601783 1620.756742 1622.951461 1625.250100
80.296667 1617.840835 1619.789578 1621.826799 1622.008963 1624.373338 1626.631095
80.433333 1619.112632 1620.938958 1623.018663 1623.211691 1625.564431 1628.094515
80.570000 1620.157829 1622.189643 1624.264370 1624.425371 1626.815776 1629.266230
80.690000 1621.388968 1623.293562 1625.358889 1625.531158 1627.734556 1630.543275
80.810000 1622.624433 1624.466106 1626.488633 1626.642777 1628.737499 1631.801416
80.900000 1623.138635 1625.438683 1627.385243 1627.559203 1629.663203 1632.692485
80.990000 1623.958818 1626.473012 1628.336192 1628.469750 1630.507935 1633.504143
81.000000 1624.027460 1626.585416 1628.441275 1628.580556 1630.635271 1633.703387
81.095000 1624.932014 1627.654397 1629.984226 1629.902021 1631.904704 1635.234267
81.190000 1625.673528 1628.809912 1631.242822 1631.260200 1633.630435 1636.758347
81.290000 1626.761208 1629.871128 1632.415774 1632.505443 1635.359720 1637.726658
81.390000 1627.718449 1631.044807 1633.492936 1633.637480 1636.767253 1638.669580
81.475000 1628.388729 1631.879320 1634.504440 1634.624251 1637.898251 1639.462192
81.560000 1629.446185 1632.800194 1635.507275 1635.599770 1638.828159 1640.113705
81.610000 1630.124676 1633.273936 1636.069477 1636.140052 1639.272012 1640.516715
81.730000 1631.709411 1634.719615 1637.671858 1637.438881 1640.285180 1641.454356
81.830000 1633.044433 1635.827626 1638.928139 1638.541370 1641.146943 1642.210131
81.850000 1633.177247 1636.023509 1639.093148 1638.751109 1641.354550 1642.398221
81.930000 1634.298250 1636.878293 1639.833038 1639.519761 1641.935222 1643.051409
82.010000 1635.552531 1637.815363 1640.587576 1640.271287 1642.585792 1643.725068
82.135000 1636.968999 1639.342542 1641.848652 1641.512884 1643.529189 1644.885313
82.260000 1638.672338 1640.879416 1642.989993 1642.778562 1644.533945 1646.299172
82.390000 1640.180589 1642.261810 1644.167438 1644.007537 1645.649584 1647.729829
82.520000 1641.479679 1643.428783 1645.341719 1645.267378 1646.984837 1649.284485
82.615000 1642.461581 1644.449533 1646.183073 1646.233656 1647.988830 1650.398365
82.710000 1643.234880 1645.382531 1647.058085 1647.149536 1648.918805 1651.451235
82.750000 1643.582115 1645.722783 1647.410889 1647.531412 1649.374554 1651.871002
82.875000 1644.768624 1646.709356 1648.382976 1648.600829 1650.573940 1653.184617
83.000000 1645.698988 1647.664060 1649.331268 1649.632151 1651.710212 1654.527590
83.125000 1646.714592 1648.694531 1650.329048 1650.625340 1652.928072 1655.251295
83.250000 1647.639572 1649.649378 1651.311402 1651.625035 1653.949780 1656.384088
83.395000 1648.892724 1650.750035 1652.404955 1652.766809 1655.151508 1657.555770
83.540000 1650.097224 1651.792677 1653.588949 1653.906679 1656.316040 1658.869479
83.640000 1650.896151 1652.580669 1654.392743 1654.718978 1657.111918 1659.642634
83.740000 1651.599074 1653.355580 1655.245843 1655.533532 1657.857312 1660.449303
83.840000 1652.371658 1654.197132 1656.073528 1656.359469 1658.684769 1661.419904
83.980000 1653.630208 1655.269380 1657.212516 1657.514784 1659.781138 1662.619147
84.120000 1654.826360 1656.339801 1658.486481 1658.735356 1661.175553 1664.171881
84.260000 1655.875943 1657.561608 1659.727810 1659.922621 1662.424583 1665.679717
84.400000 1657.001936 1658.618210 1660.901151 1661.164503 1663.790947 1667.207656
84.540000 1658.292957 1659.812093 1661.992643 1662.459150 1665.186996 1669.238185
84.645000 1659.213235 1660.680443 1663.017124 1663.560350 1666.429089 1670.748045
84.750000 1659.971305 1661.613476 1664.109429 1664.697469 1667.830221 1672.704683
84.850000 1660.861206 1662.620894 1665.257937 1665.904429 1669.643184 1674.370754
84.950000 1661.702771 1663.504367 1666.398264 1667.111015 1671.162714 1675.774813
85.050000 1662.502901 1664.330323 1667.638852 1668.307816 1672.551811 1677.875288
85.150000 1663.156737 1665.190647 1668.748101 1669.545479 1674.047421 1679.948088
85.250000 1663.917569 1666.052488 1669.956756 1670.789867 1675.658385 1682.014582
85.350000 1664.625015 1666.918781 1671.057163 1672.016249 1677.272466 1683.446662
85.480000 1665.685283 1668.017397 1672.874864 1673.826228 1680.283933 1685.264574
85.610000 1666.603456 1669.166244 1674.778377 1675.624065 1683.037499 1687.022356
85.640000 1666.830431 1669.516250 1675.135331 1675.983408 1683.544872 1687.365732
85.765000 1667.730879 1671.084236 1677.399448 1677.831803 1684.994900 1688.614004
85.890000 1668.684275 1673.119475 1679.922616 1679.722415 1686.405636 1689.678267
86.015000 1669.650516 1675.264576 1682.231979 1681.664076 1688.009840 1691.082983
86.140000 1671.147763 1677.481459 1684.309740 1683.548200 1689.399634 1692.172046
86.250000 1672.189268 1679.379241 1685.935959 1685.045170 1690.552676 1693.111867
86.395000 1673.694508 1682.127222 1688.048596 1687.062443 1691.807554 1694.518944
86.540000 1675.885428 1684.763290 1689.910961 1689.031296 1693.127574 1695.685057
86.643333 1677.874236 1686.568233 1691.081722 1690.198589 1693.934485 1696.384172
86.746667 1679.093685 1688.213194 1692.026417 1691.318713 1694.791490 1697.208170
86.850000 1680.805661 1689.536990 1692.935327 1692.355064 1695.591229 1697.944656
86.956667 1682.966478 1690.787982 1693.825307 1693.341237 1696.269977 1698.609852
87.063333 1685.102618 1691.982810 1694.684095 1694.301198 1697.049385 1699.312744
87.170000 1688.215011 1692.969447 1695.504671 1695.213165 1697.753798 1699.960793
87.315000 1690.604893 1694.168127 1696.530423 1696.377719 1698.676116 1700.897051
87.460000 1692.608196 1695.270806 1697.627224 1697.504030 1699.546355 1701.777310
87.555000 1693.655363 1696.047619 1698.333970 1698.232982 1700.229385 1702.427803
87.650000 1694.778813 1696.807400 1699.010456 1698.960696 1700.880300 1703.150157
87.750000 1695.849060 1697.624179 1699.739131 1699.684271 1701.549503 1703.858041
87.850000 1696.637200 1698.324916 1700.499532 1700.404009 1702.234116 1704.557613
87.950000 1697.615118 1699.023333 1701.212057 1701.127821 1702.995568 1705.120216
88.050000 1698.416750 1699.753003 1701.842882 1701.824624 1703.750455 1705.982944
88.195000 1699.520676 1700.759309 1702.713402 1702.801181 1704.717966 1706.870878
88.340000 1700.444085 1701.705532 1703.653263 1703.760386 1705.681286 1707.853803
88.440000 1701.145301 1702.408595 1704.323736 1704.468243 1706.341944 1708.529771
88.540000 1701.925972 1703.122446 1705.044264 1705.180006 1707.099953 1709.338521
88.640000 1702.590492 1703.847515 1705.762614 1705.884617 1707.806518 1710.055998
88.743333 1703.227164 1704.535701 1706.423717 1706.609281 1708.544814 1711.021680
88.846667 1703.981115 1705.226425 1707.128619 1707.344705 1709.300102 1712.011023
88.950000 1704.747078 1705.973182 1707.837506 1708.103168 1710.056461 1712.968011
89.045000 1705.488887 1706.698228 1708.546357 1708.814065 1710.800242 1713.927963
89.140000 1706.135112 1707.435781 1709.327856 1709.563461 1711.463898 1714.947008
89.250000 1706.801853 1708.203757 1710.140782 1710.433863 1712.407689 1716.025729
89.375000 1707.711465 1709.107724 1711.211546 1711.478660 1713.469433 1717.295071
89.500000 1708.733077 1710.062812 1712.306094 1712.611531 1714.681903 1719.565836
89.600000 1709.345108 1710.966178 1713.172640 1713.634118 1715.872136 1721.583236
89.700000 1710.159003 1711.925141 1714.177749 1714.698643 1717.089304 1723.337395
89.800000 1711.049321 1712.833694 1715.303345 1715.864500 1718.551219 1724.953254
89.930000 1712.183038 1714.132369 1716.923386 1717.582468 1720.731610 1726.596407
90.060000 1713.364184 1715.731781 1718.781134 1719.358428 1722.780082 1728.833485
90.190000 1714.473165 1717.370309 1720.828929 1721.261583 1725.174995 1730.506747
90.320000 1715.506196 1719.072349 1722.745077 1723.047104 1727.165833 1732.801511
90.450000 1716.493638 1720.598943 1724.646363 1724.851884 1729.234231 1734.280497
90.535000 1717.086446 1721.561435 1725.670479 1725.958476 1730.410817 1735.657706
90.620000 1717.793616 1722.551421 1726.772108 1727.008412 1731.638710 1736.747196
90.750000 1719.426320 1724.042593 1728.288766 1728.611894 1733.356163 1738.439514
90.875000 1720.648819 1725.297134 1729.732201 1730.083042 1734.915025 1739.889577
91.000000 1721.974672 1726.532183 1731.021619 1731.588270 1736.794931 1741.506491
91.116667 1723.248646 1727.781169 1732.597963 1732.943538 1738.242837 1742.948895
91.233333 1724.636819 1728.965646 1734.131347 1734.329285 1739.647230 1744.022067
91.350000 1726.432078 1730.282193 1735.463988 1735.720807 1741.095143 1745.629833
91.450000 1727.800141 1731.583286 1736.821692 1736.908750 1741.950078 1746.816417
91.550000 1729.062526 1732.680615 1738.365397 1738.154929 1743.142114 1747.807202
91.650000 1730.190253 1734.071285 1739.607618 1739.430020 1744.315369 1748.637992
91.783333 1731.716265 1736.397704 1741.458556 1741.051017 1745.719397 1749.604876
91.916667 1734.049524 1738.050662 1742.963432 1742.690377 1747.010528 1750.776999
92.050000 1736.126255 1740.111516 1744.594941 1744.400967 1748.405893 1751.682813
92.150000 1738.004493 1741.750678 1745.829802 1745.677821 1749.342504 1752.364916
92.250000 1739.971647 1743.301160 1747.020614 1746.879908 1750.388421 1753.190599
92.355000 1741.245529 1744.688249 1748.197582 1748.067122 1751.476082 1753.953294
92.460000 1742.112608 1746.137628 1749.373760 1749.296212 1752.584846 1754.966300
92.563333 1743.266184 1747.259128 1750.592707 1750.492706 1753.710508 1756.115478
92.666667 1744.696272 1748.493132 1751.752216 1751.627898 1754.794752 1756.951073
92.770000 1745.934461 1749.738112 1752.895152 1752.836105 1755.964691 1757.964421
92.890000 1747.389238 1751.160710 1754.232734 1754.140408 1757.137594 1759.004323
93.010000 1748.720483 1752.689634 1755.529827 1755.502128 1758.344558 1760.332752
93.123333 1749.965857 1753.883099 1756.839065 1756.763932 1759.517900 1761.966528
93.236667 1751.717720 1755.204507 1758.140318 1758.081605 1760.865836 1763.502457
93.350000 1753.372593 1756.559685 1759.260164 1759.348012 1762.038382 1765.408618
93.463333 1754.576000 1757.686413 1760.402182 1760.515907 1763.244403 1766.975506
93.576667 1755.856121 1758.833927 1761.451017 1761.684384 1764.388835 1768.571716
93.690000 1757.127412 1759.806889 1762.607106 1762.863989 1765.567062 1770.096836
93.793333 1758.290708 1760.857229 1763.685124 1763.946005 1766.653661 1771.590689
93.896667 1759.512840 1761.848147 1764.624899 1765.020319 1767.765577 1773.107517
94.000000 1760.630124 1762.725290 1765.639092 1766.040892 1768.968319 1773.828189
94.125000 1761.608367 1763.777899 1766.738140 1767.212264 1770.277632 1775.775615
94.250000 1762.565544 1764.745213 1767.735204 1768.382441 1771.534972 1777.401035
94.356667 1763.535500 1765.696053 1768.713432 1769.425285 1772.641016 1778.602530
94.463333 1764.416076 1766.711098 1769.754498 1770.470218 1773.760769 1780.708953
94.570000 1765.184769 1767.849114 1770.799177 1771.519880 1774.782918 1782.159096
94.705000 1766.331488 1769.078271 1772.036241 1772.931889 1776.323830 1784.517218
94.840000 1767.445101 1770.309340 1773.177281 1774.379757 1778.186154 1788.175180
94.970000 1768.611336 1771.612102 1774.548241 1775.922751 1779.756699 1796.661382
95.100000 1769.779073 1772.674726 1775.831783 1777.417331 1781.445819 1799.057139
95.220000 1770.722812 1773.849732 1777.265205 1778.999035 1783.601815 1803.004153
95.340000 1771.711883 1775.011746 1778.733132 1780.644686 1785.689245 1805.119055
95.460000 1772.768709 1776.195752 1780.207189 1782.372142 1788.300957 1806.913771
95.605000 1774.461881 1777.744130 1782.089027 1785.008079 1792.877435 1808.741411
95.750000 1775.801100 1779.285189 1784.317697 1787.875765 1800.257279 1811.058598
95.853333 1776.632451 1780.356086 1786.137993 1789.704235 1802.627169 1812.648537
95.956667 1777.750200 1781.592111 1787.738729 1791.642249 1804.637081 1813.899467
96.060000 1778.973054 1782.752728 1789.620423 1793.498138 1806.578942 1815.555046
