depth(m) lower_95(kyr) lower_68(kyr) median(kyr) mean(kyr) upper_68(kyr) upper_95(kyr)
14.315000 1493.076063 1497.438913 1500.211491 1499.783541 1502.240966 1503.714332
14.340000 1495.399849 1499.274080 1501.887907 1501.441068 1503.590990 1505.031554
14.365000 1497.746480 1501.003029 1503.426257 1503.030561 1505.056788 1506.511609
14.390000 1500.000766 1502.724027 1504.867874 1504.621046 1506.492425 1508.111832
14.415000 1501.860187 1504.569855 1506.520565 1506.537205 1508.584035 1510.958719
14.440000 1504.183767 1506.128621 1508.059182 1508.255315 1510.506328 1513.096606
14.465000 1506.775471 1508.437552 1510.522320 1510.775388 1513.178599 1515.751439
14.490000 1508.919746 1510.749104 1513.348199 1513.505825 1516.128889 1519.242103
14.540000 1512.938608 1516.131873 1518.862143 1518.829856 1521.498922 1524.317231
14.565000 1515.294004 1518.616323 1521.371685 1521.321468 1524.196882 1526.808261
14.615000 1520.444221 1523.289930 1526.504093 1526.394159 1529.495612 1531.739589
14.640000 1526.196716 1528.966933 1531.117568 1530.883324 1532.802316 1533.976540
14.665000 1530.621627 1532.376973 1533.724562 1533.564827 1534.705728 1535.828797
14.690000 1533.357980 1534.584380 1535.556693 1535.493929 1536.416349 1537.389182
14.715000 1534.972026 1535.931282 1536.912010 1536.868706 1537.796515 1538.692368
14.740000 1536.125567 1537.168820 1538.144472 1538.076857 1539.039175 1539.927691
14.765000 1537.271343 1538.347997 1539.314994 1539.250409 1540.118668 1540.932932
14.790000 1538.351937 1539.568162 1540.493135 1540.439443 1541.314745 1542.152001
14.815000 1539.702843 1540.811787 1541.681214 1541.655481 1542.505993 1543.360945
14.840000 1540.832297 1541.903267 1542.808792 1542.802318 1543.680670 1544.481289
14.865000 1542.150357 1543.166691 1544.038542 1544.040502 1544.976274 1546.034727
14.890000 1543.365361 1544.232692 1545.144072 1545.233390 1546.252821 1547.432853
14.915000 1544.416939 1545.428683 1546.379776 1546.492713 1547.604552 1549.032190
14.940000 1545.557064 1546.564971 1547.623462 1547.789408 1549.024327 1551.035572
14.965000 1546.699039 1547.841303 1549.029222 1549.209018 1550.582959 1552.876161
14.990000 1547.867173 1549.067346 1550.344841 1550.597808 1552.203374 1554.409621
15.015000 1548.994145 1550.376361 1551.759303 1551.995710 1553.729671 1555.907202
15.040000 1550.132466 1551.543079 1553.175384 1553.391242 1555.312089 1557.577980
15.065000 1551.193988 1552.819019 1554.630009 1554.894729 1556.990946 1559.892789
15.090000 1552.406929 1554.192744 1556.085846 1556.493312 1558.802851 1563.207229
15.115000 1553.836555 1555.658705 1557.988104 1558.607123 1562.037688 1566.424298
15.140000 1555.045542 1557.024034 1559.956767 1560.839402 1565.920840 1569.071801
15.165000 1556.502737 1558.689387 1562.091401 1563.083191 1568.582865 1571.998507
15.215000 1561.630623 1564.616626 1567.554785 1567.958586 1571.409044 1575.926711
15.240000 1568.754103 1570.365785 1572.557864 1572.706355 1574.887115 1577.886540
15.265000 1571.058787 1573.083032 1575.411050 1575.431697 1577.924128 1579.975881
15.290000 1572.912244 1575.524622 1578.055292 1577.849148 1580.041791 1581.796895
15.315000 1574.501788 1578.133743 1580.280569 1580.033059 1582.138467 1583.665717
15.340000 1576.087268 1579.964831 1581.941766 1581.758356 1583.620332 1585.381868
15.365000 1579.956270 1582.037686 1583.908320 1583.884654 1585.610863 1587.706521
15.390000 1582.026259 1583.665875 1585.460096 1585.580127 1587.422321 1589.597827
15.415000 1584.165805 1585.683640 1587.393384 1587.532107 1589.398412 1591.791691
15.440000 1585.561555 1587.192233 1589.227702 1589.315359 1591.392418 1593.464993
15.465000 1587.324410 1589.239390 1591.178868 1591.183907 1593.074557 1595.188135
15.490000 1589.002986 1591.629321 1593.464584 1593.303446 1594.947607 1596.762321
15.515000 1590.573499 1593.715534 1595.505680 1595.323883 1597.028284 1598.397633
15.540000 1592.535083 1595.756294 1597.351135 1597.153233 1598.699847 1599.967140
15.565000 1595.413214 1597.457514 1599.073692 1598.883759 1600.338357 1601.394949
15.590000 1597.941996 1599.452386 1600.897156 1600.740871 1601.981194 1602.898304
15.615000 1599.787992 1601.201596 1602.390539 1602.310341 1603.432286 1604.309105
15.640000 1601.600962 1602.727194 1603.808329 1603.788042 1604.865411 1605.953209
15.665000 1603.058995 1604.238300 1605.305625 1605.307130 1606.393086 1607.600211
15.690000 1604.669827 1605.798818 1606.922578 1606.941408 1608.184594 1609.332742
15.715000 1606.142760 1607.277508 1608.397083 1608.529572 1609.786228 1611.730926
15.740000 1607.577732 1608.713792 1609.963054 1610.161333 1611.590841 1613.879816
15.765000 1608.920504 1610.239078 1611.766389 1611.990488 1613.848222 1615.840357
15.790000 1610.334219 1611.836313 1613.735927 1613.799722 1615.773247 1617.873213
15.815000 1611.758891 1613.433768 1615.493120 1615.548093 1617.596590 1619.994985
15.840000 1613.527754 1615.317451 1617.337774 1617.474728 1619.637864 1622.052408
15.865000 1615.013585 1616.886792 1619.167076 1619.256404 1621.648227 1623.726205
15.890000 1616.417536 1618.729475 1620.943012 1621.036762 1623.460073 1625.565363
15.915000 1618.217083 1620.621974 1623.024939 1622.944087 1625.133946 1627.090268
15.940000 1620.512796 1622.920534 1625.132657 1624.970267 1626.868246 1628.650697
15.965000 1622.749165 1624.891127 1626.939587 1626.824263 1628.656649 1630.778899
15.990000 1624.604096 1626.872426 1628.653544 1628.702744 1630.695335 1633.214004
16.015000 1626.055688 1628.529470 1630.783082 1630.888291 1633.408757 1636.276730
16.040000 1627.844449 1630.306720 1632.815721 1633.033691 1636.126017 1638.599342
16.065000 1629.383148 1632.231774 1635.305767 1635.270597 1638.368727 1640.630275
16.095000 1632.160465 1635.116913 1638.417928 1638.034415 1640.683866 1642.495224
16.115000 1633.522222 1637.324266 1640.100312 1639.764190 1642.174861 1643.783093
16.140000 1636.445458 1639.728408 1642.006182 1641.750014 1643.763304 1645.453041
16.165000 1640.140134 1642.149181 1643.998816 1643.906417 1645.698696 1647.220730
16.190000 1642.905850 1644.457869 1646.111975 1646.120876 1647.958286 1649.337684
16.215000 1644.848733 1646.238018 1647.911526 1647.881539 1649.488776 1650.906139
16.240000 1646.296758 1647.782750 1649.458201 1649.394031 1650.901515 1652.416902
16.265000 1647.625929 1649.223479 1650.809336 1650.780436 1652.278089 1653.627073
16.290000 1649.073834 1650.512736 1652.063823 1652.045396 1653.567132 1654.769094
16.315000 1650.211035 1651.740343 1653.233257 1653.232295 1654.704098 1655.967444
16.365000 1652.259787 1653.938037 1655.437829 1655.393128 1656.851830 1658.120720
16.390000 1653.472936 1655.114986 1656.578058 1656.531135 1657.989501 1659.211525
16.415000 1654.740543 1656.319612 1657.769890 1657.736719 1659.164497 1660.455800
16.440000 1655.996075 1657.546122 1659.038069 1659.007261 1660.471687 1661.804431
16.465000 1657.457167 1659.027446 1660.468498 1660.499286 1661.983359 1663.728765
16.490000 1659.174592 1660.730664 1662.327429 1662.460692 1664.178615 1666.504756
16.515000 1661.590592 1663.027402 1664.847253 1665.209831 1667.347171 1670.704869
16.540000 1663.183491 1664.992410 1667.084391 1667.427604 1669.877127 1673.367065
16.565000 1664.721271 1666.599349 1669.057030 1669.387822 1672.163820 1675.702753
16.590000 1666.105509 1668.205549 1670.835078 1671.159596 1674.255928 1677.949593
16.615000 1667.601377 1669.783230 1672.527579 1672.989710 1676.482437 1680.236954
16.640000 1669.111550 1671.514563 1674.600837 1675.028835 1678.797530 1682.686432
16.665000 1670.501496 1673.114858 1676.566843 1676.875112 1680.817561 1684.361313
16.690000 1671.840957 1674.777326 1678.491896 1678.784883 1682.755941 1686.742691
16.715000 1673.254526 1676.600393 1680.632862 1680.713504 1684.908988 1688.304554
16.740000 1674.994726 1678.468123 1682.851081 1682.760855 1686.863074 1690.384015
16.765000 1676.936546 1680.527679 1684.969990 1684.792589 1688.875012 1692.153503
16.790000 1678.603216 1682.655223 1687.018577 1686.851941 1690.896886 1693.781901
16.815000 1680.794037 1684.962754 1689.079929 1688.981989 1692.830491 1695.773170
16.840000 1683.746814 1687.508167 1691.557703 1691.371441 1694.901399 1698.005588
16.865000 1685.974821 1690.323260 1694.290869 1693.958162 1697.380632 1700.450083
16.890000 1688.854581 1693.535373 1697.164778 1696.939776 1700.381132 1703.938664
16.940000 1697.718708 1700.824601 1704.054071 1704.202005 1707.789405 1711.116966
16.965000 1701.129927 1703.838678 1707.221677 1707.278078 1710.800660 1713.684195
17.010000 1708.071219 1711.417279 1714.392913 1714.199848 1716.963414 1719.309151
17.035000 1711.043307 1714.078167 1716.564090 1716.427966 1718.981785 1720.965407
17.060000 1713.116059 1715.980848 1718.412716 1718.290677 1720.513108 1722.665750
17.087500 1715.328746 1718.070529 1720.240645 1720.099535 1722.227699 1724.219153
17.112500 1716.797125 1719.707477 1721.835738 1721.686397 1723.822439 1725.749709
17.137500 1718.284749 1721.128793 1723.372347 1723.180742 1725.262775 1727.274435
17.162500 1719.845142 1722.494354 1724.678909 1724.614971 1726.791319 1728.904990
17.187500 1721.257498 1723.763146 1725.939818 1725.944961 1728.120967 1730.636829
17.212500 1722.574795 1725.030076 1727.217006 1727.229187 1729.372278 1732.155959
17.237500 1723.779459 1726.270677 1728.431762 1728.495049 1730.674366 1733.373197
17.262500 1725.105996 1727.590927 1729.644841 1729.756513 1732.004955 1734.965592
17.287500 1726.480573 1728.844743 1730.898439 1731.039378 1733.285995 1736.462708
17.312500 1727.785468 1730.029019 1732.196419 1732.342068 1734.678018 1738.151986
17.337500 1729.132118 1731.211082 1733.417922 1733.657831 1736.014145 1739.422671
17.365000 1730.405354 1732.613103 1734.792447 1735.126929 1737.782018 1741.209043
17.387500 1731.460548 1733.821128 1736.026429 1736.398256 1739.278839 1742.842392
17.412500 1732.812970 1735.062360 1737.315722 1737.740841 1740.669254 1744.518436
17.437500 1733.928213 1736.275983 1738.601560 1739.106893 1742.320331 1746.311775
17.465000 1735.249975 1737.681765 1740.009751 1740.629656 1744.104404 1748.061750
17.490000 1736.493738 1738.936806 1741.312175 1742.073047 1745.834724 1749.768178
17.515000 1737.987056 1740.148707 1742.842990 1743.574807 1747.694735 1751.736962
17.540000 1739.136586 1741.382947 1744.366717 1745.095905 1749.439308 1753.342458
17.550000 1739.772943 1742.067476 1745.161030 1745.784965 1750.191955 1753.808905
17.585000 1742.084207 1744.566880 1748.263343 1748.421231 1752.360257 1755.333317
17.610000 1743.633497 1746.640544 1750.283969 1750.353754 1754.037134 1756.611763
17.635000 1745.820699 1748.986230 1752.437868 1752.323219 1755.788854 1757.904751
17.660000 1747.596357 1751.475024 1754.508981 1754.347310 1757.396239 1759.582355
17.685000 1750.755118 1754.011978 1757.082770 1756.823990 1759.620399 1762.247845
17.710000 1753.263256 1756.460956 1759.325492 1759.199472 1761.786435 1765.234657
17.735000 1756.368297 1759.247188 1762.117395 1762.122511 1764.940697 1767.853030
17.760000 1758.724825 1761.458098 1764.444834 1764.521117 1767.656925 1770.885552
17.785000 1760.795979 1763.857416 1766.803365 1766.903260 1770.094115 1773.431437
17.810000 1763.209595 1766.014853 1769.302164 1769.250150 1772.377343 1775.806758
17.835000 1765.584996 1768.733292 1771.770955 1771.833304 1774.931348 1778.308065
17.860000 1768.299736 1771.328497 1774.667576 1774.554376 1777.493193 1780.660068
17.885000 1771.293628 1774.411763 1777.438033 1777.408393 1780.416023 1783.141128
17.910000 1774.840391 1777.710600 1780.581381 1780.497327 1783.387144 1785.781589
17.935000 1779.580495 1782.006697 1784.264758 1784.168992 1786.329162 1788.133601
17.960000 1782.495804 1784.302748 1786.288469 1786.229571 1788.273817 1789.472409
17.985000 1784.329514 1786.059746 1787.949626 1787.847456 1789.618146 1790.686714
18.020000 1786.765406 1788.367273 1789.967020 1789.841831 1791.257289 1792.354383
18.035000 1787.835131 1789.571802 1790.845143 1790.768590 1792.039336 1792.988045
18.085000 1791.884757 1792.797775 1793.633001 1793.640783 1794.536503 1795.359756
18.110000 1793.420881 1794.401844 1795.727243 1795.906778 1797.396805 1799.339215
18.135000 1794.785761 1796.461321 1798.355585 1798.356508 1800.283268 1801.962598
18.160000 1796.792232 1798.653453 1800.714917 1800.602155 1802.441200 1804.241748
18.185000 1798.544767 1800.542952 1802.362729 1802.293547 1804.012637 1805.705009
18.210000 1799.983728 1801.903246 1803.719525 1803.607220 1805.331902 1806.825079
18.235000 1801.079792 1803.013737 1804.812118 1804.738964 1806.501158 1807.984071
18.260000 1802.371255 1804.091058 1805.872146 1805.822863 1807.569520 1809.046602
18.285000 1803.178108 1805.047035 1806.892047 1806.825255 1808.535597 1810.085476
18.310000 1804.195139 1805.937473 1807.872473 1807.795456 1809.532235 1811.156604
18.335000 1805.175042 1806.894181 1808.873494 1808.778757 1810.543302 1812.272534
18.360000 1806.267880 1807.870614 1809.861570 1809.761884 1811.545967 1813.177265
18.385000 1807.342191 1808.833643 1810.861397 1810.742270 1812.494976 1814.119034
18.410000 1808.252100 1809.872008 1811.835181 1811.729451 1813.456852 1815.043718
18.435000 1809.035399 1810.785295 1812.773372 1812.678810 1814.493485 1816.009712
18.460000 1810.092397 1811.705129 1813.730214 1813.646551 1815.390263 1817.024415
18.485000 1811.156789 1812.668316 1814.680865 1814.607902 1816.409280 1818.087671
18.510000 1812.123722 1813.615036 1815.642548 1815.550418 1817.339470 1818.949697
18.535000 1812.962117 1814.538519 1816.640191 1816.495584 1818.253892 1819.722214
18.560000 1813.956447 1815.539785 1817.571335 1817.449613 1819.190996 1820.765963
18.585000 1814.907786 1816.538410 1818.522876 1818.411818 1820.240938 1821.828891
18.610000 1815.874765 1817.394109 1819.457592 1819.328987 1821.110571 1822.469328
18.635000 1816.741406 1818.302888 1820.426568 1820.268338 1822.046418 1823.486398
18.660000 1817.583403 1819.232107 1821.330492 1821.212906 1823.039206 1824.440284
18.685000 1818.500198 1820.196428 1822.308185 1822.160685 1824.022220 1825.350480
18.710000 1819.433291 1821.177060 1823.239594 1823.114171 1824.878974 1826.302771
18.735000 1820.476919 1822.190333 1824.233359 1824.080188 1825.826601 1827.359231
18.760000 1821.331585 1823.114501 1825.229412 1825.029386 1826.737517 1828.312533
18.785000 1822.362294 1824.137661 1826.154214 1825.984136 1827.701275 1829.187189
18.810000 1823.306940 1825.076497 1827.079256 1826.928914 1828.717903 1830.031350
18.835000 1824.377967 1826.056518 1828.005490 1827.886286 1829.642616 1830.955355
18.860000 1825.239633 1826.969435 1828.997166 1828.831589 1830.502790 1831.875992
18.885000 1826.189700 1828.052910 1830.021491 1829.830715 1831.503773 1832.918958
18.910000 1827.273409 1829.103604 1830.995353 1830.823471 1832.455438 1833.889198
18.935000 1828.402778 1830.120799 1831.991474 1831.802321 1833.324317 1834.779164
18.985000 1830.379239 1832.122509 1833.832038 1833.656525 1835.154730 1836.396521
19.010000 1831.312698 1833.160637 1834.790408 1834.665110 1836.132471 1837.318535
19.035000 1832.713173 1834.335174 1835.787270 1835.712061 1837.110880 1838.146703
19.085000 1835.053992 1836.405674 1837.808084 1837.709577 1839.016606 1840.097222
19.110000 1836.362558 1837.614384 1838.861088 1838.823853 1839.992739 1841.000086
19.135000 1837.760635 1838.954266 1840.019013 1839.971722 1840.972475 1841.893756
19.160000 1839.602624 1840.388652 1841.268875 1841.248059 1842.092316 1842.886280
19.185000 1840.714417 1841.670950 1842.682717 1842.809876 1843.885641 1845.770910
19.210000 1841.800216 1842.901504 1844.144916 1844.350005 1845.745681 1848.129966
19.235000 1843.044890 1844.303111 1846.006869 1846.240276 1848.142133 1850.699687
19.260000 1844.334429 1845.700975 1847.754654 1847.893650 1849.977274 1852.293834
19.285000 1845.423539 1847.098751 1849.201121 1849.324001 1851.454164 1853.633035
19.310000 1846.627280 1848.542183 1850.740396 1850.790940 1853.017104 1855.286807
19.335000 1848.029584 1850.147836 1852.324233 1852.319838 1854.513444 1856.477871
19.360000 1849.165132 1851.836243 1853.809185 1853.843173 1855.980645 1857.801270
19.385000 1851.046673 1853.403157 1855.342579 1855.380914 1857.433577 1859.489156
19.410000 1852.540494 1854.878108 1857.009271 1857.015091 1859.056065 1861.448736
19.435000 1854.115728 1856.593699 1858.636704 1858.715245 1860.642033 1863.678323
19.460000 1855.563962 1858.351566 1860.706397 1860.727463 1863.036791 1865.702960
19.485000 1857.588001 1860.013592 1862.439862 1862.618092 1865.241993 1868.321444
19.510000 1860.225007 1862.049025 1864.246935 1864.624111 1867.323610 1870.608174
19.535000 1861.855451 1864.169259 1866.817926 1867.042933 1869.959192 1873.286352
19.560000 1864.134048 1866.601293 1869.568873 1869.690935 1872.456822 1876.600745
19.585000 1866.108919 1869.232128 1872.285727 1872.499588 1875.932477 1879.209094
19.610200 1868.653696 1871.618733 1875.234121 1875.233883 1878.876680 1881.937028
19.635000 1870.469289 1873.836522 1877.864058 1877.771150 1881.471459 1884.490332
19.660000 1872.591013 1877.170676 1880.998539 1880.677874 1884.147801 1887.299856
19.685000 1876.257469 1880.485872 1883.879242 1883.634347 1886.977580 1890.093299
19.710000 1879.649717 1883.579351 1886.594275 1886.494045 1889.580435 1892.523484
19.735000 1882.128219 1885.819994 1889.037055 1888.892297 1891.972233 1894.879916
19.760000 1884.906063 1888.200916 1891.414370 1891.348347 1894.433850 1897.129940
19.785000 1887.127952 1890.990313 1894.078638 1893.953623 1896.918063 1899.606788
19.810000 1889.766660 1893.715873 1896.797151 1896.738325 1899.814106 1902.386452
19.835000 1893.981634 1896.809139 1899.829504 1899.881357 1902.912506 1905.887944
19.860000 1897.364767 1900.422832 1903.843058 1903.755701 1906.883172 1910.340474
19.885000 1905.149685 1906.508699 1908.757443 1909.281194 1912.430606 1915.426010
19.910000 1914.511267 1915.495454 1916.397263 1916.418994 1917.367091 1918.308731
19.935000 1916.194567 1917.321091 1918.548533 1918.654328 1919.990785 1921.961125
19.960000 1917.769932 1918.962154 1920.438688 1920.588306 1922.127854 1924.482829
19.985000 1919.071246 1920.499442 1922.256374 1922.443895 1924.342905 1926.503695
20.010000 1920.597024 1922.087931 1924.114392 1924.229764 1926.500511 1928.401836
20.035000 1921.787401 1923.507484 1925.749523 1925.768440 1928.013221 1929.914668
20.060000 1922.820121 1924.981922 1927.115466 1927.134734 1929.471994 1931.072756
20.085000 1924.031684 1926.192918 1928.393487 1928.396657 1930.636678 1931.959389
20.110000 1925.325246 1927.623262 1929.765966 1929.696523 1931.788604 1933.285154
20.135000 1926.560255 1928.857467 1931.084036 1930.953647 1933.013892 1934.435737
20.160000 1927.926896 1930.105547 1932.276467 1932.129647 1934.111753 1935.509667
20.185000 1929.292093 1931.274836 1933.553024 1933.324763 1935.238008 1936.536665
20.210000 1930.507552 1932.502846 1934.679657 1934.488401 1936.353708 1937.694813
20.235000 1931.528824 1933.780614 1935.816584 1935.623072 1937.366725 1938.922744
20.260000 1932.740940 1934.845211 1936.968985 1936.757835 1938.455740 1939.925998
20.285000 1933.945926 1936.026080 1938.101830 1937.850220 1939.509475 1941.008387
20.310000 1935.048460 1937.231872 1939.187495 1938.952699 1940.628447 1941.859835
20.335000 1936.441245 1938.466000 1940.283381 1940.098924 1941.739848 1943.047650
20.360000 1937.416942 1939.644288 1941.441347 1941.213346 1942.770393 1943.996852
20.385000 1938.332726 1940.898121 1942.474090 1942.308122 1943.763769 1945.043125
20.411000 1939.953758 1942.053096 1943.601107 1943.404547 1944.763608 1946.058117
20.460000 1942.139027 1944.058226 1945.470648 1945.305010 1946.633205 1947.615232
20.485000 1943.193386 1945.149030 1946.461665 1946.316694 1947.569572 1948.546352
20.510000 1944.642042 1946.176101 1947.393300 1947.323472 1948.506692 1949.534891
20.535000 1945.795907 1947.187551 1948.395955 1948.294576 1949.412172 1950.404713
20.560000 1946.901255 1948.275836 1949.325528 1949.266253 1950.317839 1951.235145
20.585000 1948.043971 1949.194968 1950.242300 1950.182319 1951.196174 1952.148106
