depth(m) lower_95(kyr) lower_68(kyr) median(kyr) mean(kyr) upper_68(kyr) upper_95(kyr)
109.370000 1495.319513 1496.505137 1497.957632 1497.798405 1499.009060 1499.641470
109.390000 1495.674997 1496.727655 1498.237779 1498.033565 1499.209378 1499.892856
109.420000 1496.028489 1497.090526 1498.635170 1498.370444 1499.502084 1500.139886
109.470000 1496.697277 1497.602621 1499.124589 1498.865676 1499.922329 1500.596479
109.530000 1497.341110 1498.161515 1499.714219 1499.422311 1500.428817 1501.062634
109.590000 1497.972957 1498.729842 1500.268246 1499.977098 1500.936742 1501.533139
109.650000 1498.477977 1499.255108 1500.836629 1500.516246 1501.417892 1502.037020
109.700000 1498.990481 1499.716057 1501.290114 1500.968628 1501.823499 1502.465794
109.740000 1499.343961 1500.086540 1501.664363 1501.348306 1502.181562 1502.783108
109.770000 1499.657618 1500.373427 1501.961785 1501.638615 1502.439439 1503.071699
109.790000 1499.859942 1500.562918 1502.173576 1501.849054 1502.662388 1503.246393
109.810000 1500.035042 1500.799208 1502.359296 1502.056590 1502.844015 1503.441068
109.830000 1500.225965 1501.003415 1502.570822 1502.262717 1503.045138 1503.673802
109.850000 1500.448081 1501.221369 1502.783486 1502.480830 1503.271236 1503.859713
109.870000 1500.676520 1501.473370 1502.997035 1502.700013 1503.501948 1504.045917
109.890000 1500.959636 1501.709264 1503.209285 1502.931547 1503.718360 1504.240281
109.910000 1501.179100 1501.990335 1503.420463 1503.168448 1503.970920 1504.443966
109.930000 1501.437860 1502.255189 1503.644271 1503.410971 1504.238107 1504.636244
109.950000 1501.654071 1502.524255 1503.879743 1503.650546 1504.469740 1504.834598
109.970000 1501.908402 1502.865808 1504.104678 1503.892419 1504.716156 1505.056528
109.990000 1502.146750 1503.212950 1504.339479 1504.135010 1504.917427 1505.310752
110.020000 1502.588831 1503.658369 1504.692294 1504.504984 1505.227688 1505.571494
110.060000 1503.231568 1504.350704 1505.148842 1505.012042 1505.637307 1506.085365
110.100000 1503.935438 1504.864187 1505.610709 1505.494907 1506.057124 1506.603937
110.130000 1504.377254 1505.226467 1505.953288 1505.847285 1506.389282 1506.961406
110.150000 1504.676189 1505.485729 1506.152009 1506.077762 1506.622759 1507.156860
110.170000 1504.933096 1505.751418 1506.366262 1506.303904 1506.817673 1507.406014
110.190000 1505.172966 1505.982942 1506.589260 1506.545485 1507.075653 1507.684604
110.210000 1505.437584 1506.262549 1506.798679 1506.784746 1507.334900 1507.993533
110.230000 1505.702871 1506.508237 1507.039074 1507.042624 1507.614262 1508.217557
110.250000 1506.028340 1506.754985 1507.309086 1507.306006 1507.886221 1508.466813
110.270000 1506.258718 1507.008914 1507.614044 1507.592806 1508.198310 1508.706662
110.290000 1506.570714 1507.268799 1507.947212 1507.899989 1508.514646 1509.082680
110.310000 1506.853791 1507.509638 1508.323673 1508.217169 1508.836750 1509.440810
110.330000 1507.084720 1507.726345 1508.667644 1508.521336 1509.118357 1509.748230
110.350000 1507.362927 1507.931170 1508.978011 1508.807515 1509.401852 1509.955914
110.360000 1507.442656 1508.032667 1509.125265 1508.942284 1509.548901 1510.049095
110.370000 1507.575902 1508.134947 1509.271165 1509.082066 1509.681138 1510.200359
110.380000 1507.731478 1508.257585 1509.406357 1509.219106 1509.794512 1510.304866
110.390000 1507.910559 1508.367456 1509.542950 1509.361245 1509.923650 1510.476563
110.400000 1508.082362 1508.462287 1509.685883 1509.499780 1510.060991 1510.614935
110.410000 1508.225130 1508.582836 1509.843163 1509.640018 1510.210329 1510.738149
110.420000 1508.332378 1508.691209 1509.979498 1509.779433 1510.341306 1510.850915
110.430000 1508.462630 1508.836629 1510.126467 1509.922545 1510.491496 1510.997830
110.440000 1508.581425 1508.994138 1510.254998 1510.074683 1510.665388 1511.174249
110.450000 1508.755160 1509.187188 1510.397715 1510.224967 1510.811299 1511.362071
110.460000 1508.899024 1509.354025 1510.553957 1510.377511 1510.956106 1511.524551
110.470000 1509.005728 1509.533916 1510.707114 1510.535101 1511.135240 1511.644756
110.480000 1509.107760 1509.768646 1510.867047 1510.703339 1511.340124 1511.814618
110.490000 1509.297730 1509.932305 1511.034878 1510.878037 1511.500227 1511.975527
110.500000 1509.466121 1510.105727 1511.225347 1511.051916 1511.699901 1512.137777
110.510000 1509.624065 1510.265773 1511.413869 1511.236593 1511.919633 1512.339835
110.520000 1509.833861 1510.434791 1511.595214 1511.424355 1512.104554 1512.514628
110.530000 1510.016250 1510.640437 1511.804912 1511.626494 1512.309337 1512.726758
110.540000 1510.183615 1510.800287 1512.021716 1511.829953 1512.513437 1512.946326
110.550000 1510.340679 1510.975350 1512.230188 1512.042079 1512.751635 1513.127733
110.560000 1510.519842 1511.115667 1512.465008 1512.245779 1512.958180 1513.282887
110.570000 1510.687837 1511.256729 1512.699589 1512.449105 1513.165890 1513.490715
110.580000 1510.906778 1511.426650 1512.943122 1512.658081 1513.358037 1513.684212
110.590000 1511.111498 1511.603011 1513.151416 1512.860612 1513.541442 1513.838203
110.600000 1511.263800 1511.736836 1513.362976 1513.045517 1513.745957 1514.017680
110.610000 1511.388877 1511.908253 1513.546430 1513.228163 1513.928172 1514.157946
110.620000 1511.510854 1512.067076 1513.732771 1513.412488 1514.108093 1514.346991
110.630000 1511.644019 1512.263979 1513.931028 1513.584672 1514.243147 1514.516433
110.640000 1511.757473 1512.449860 1514.091304 1513.752969 1514.407858 1514.704420
110.650000 1511.899574 1512.644157 1514.263249 1513.921042 1514.570715 1514.822859
110.660000 1511.996289 1512.864533 1514.452419 1514.095842 1514.737227 1515.008329
110.670000 1512.120449 1513.037118 1514.604942 1514.262732 1514.913239 1515.132545
110.680000 1512.274560 1513.274265 1514.747834 1514.417893 1515.057676 1515.305948
110.690000 1512.418442 1513.449813 1514.906457 1514.578912 1515.218548 1515.461780
110.700000 1512.567109 1513.620465 1515.054066 1514.731213 1515.339904 1515.577406
110.720000 1513.154273 1514.156382 1515.353768 1515.075029 1515.635092 1515.923107
110.730000 1513.316522 1514.338620 1515.484780 1515.222461 1515.774134 1516.071704
110.740000 1513.523878 1514.524623 1515.611840 1515.361528 1515.904483 1516.182115
110.750000 1513.673406 1514.626610 1515.742737 1515.493273 1516.047527 1516.349246
110.760000 1513.819353 1514.833653 1515.871179 1515.620078 1516.168516 1516.455790
110.780000 1514.096807 1515.112126 1516.085217 1515.859571 1516.395172 1516.679817
110.800000 1514.470766 1515.423912 1516.294878 1516.099621 1516.623836 1516.914753
110.820000 1514.717952 1515.772980 1516.498420 1516.322361 1516.817084 1517.114247
110.840000 1514.950960 1516.080509 1516.682787 1516.534987 1516.992463 1517.296840
110.860000 1515.187369 1516.340023 1516.872992 1516.732142 1517.178474 1517.475139
110.920000 1515.804845 1516.936973 1517.364209 1517.242482 1517.658409 1517.915218
110.940000 1516.032694 1517.132982 1517.528344 1517.424953 1517.814264 1518.090455
110.980000 1516.382555 1517.463402 1517.836791 1517.748768 1518.126748 1518.398280
111.020000 1516.745869 1517.805422 1518.144329 1518.058796 1518.406801 1518.704897
111.080000 1517.201632 1518.248369 1518.562634 1518.488013 1518.822848 1519.097846
111.100000 1517.364011 1518.406698 1518.713229 1518.645496 1518.970655 1519.255954
111.140000 1517.686016 1518.709654 1518.996232 1518.940646 1519.257459 1519.522467
111.200000 1518.216503 1519.112678 1519.401071 1519.345902 1519.637999 1519.904557
111.220000 1518.400320 1519.265735 1519.543480 1519.498810 1519.797161 1520.064414
111.260000 1518.726212 1519.576403 1519.819782 1519.788117 1520.066111 1520.391338
111.280000 1518.901024 1519.719199 1519.979519 1519.943249 1520.217941 1520.552646
111.340000 1519.383779 1520.113509 1520.381980 1520.363028 1520.622328 1521.076749
111.360000 1519.558789 1520.258166 1520.542993 1520.526990 1520.792702 1521.268422
111.380000 1519.726356 1520.422866 1520.700476 1520.691220 1520.956094 1521.532205
111.420000 1520.150558 1520.709360 1520.973105 1520.993643 1521.261988 1522.005737
111.460000 1520.554105 1520.978596 1521.263406 1521.296320 1521.584706 1522.316203
111.540000 1521.061754 1521.485166 1521.810434 1521.868396 1522.233069 1523.055576
111.560000 1521.222310 1521.633381 1521.971838 1522.032607 1522.397552 1523.206235
111.580000 1521.416320 1521.793356 1522.148047 1522.205095 1522.569549 1523.358931
111.640000 1521.876835 1522.240758 1522.605023 1522.691380 1523.120714 1523.880562
111.700000 1522.296121 1522.682550 1523.079621 1523.172040 1523.661655 1524.485113
111.820000 1523.038045 1523.514218 1524.022811 1524.094790 1524.659339 1525.519562
111.860000 1523.339226 1523.836883 1524.349596 1524.425483 1525.022774 1525.897073
111.980000 1524.233728 1524.660397 1525.219874 1525.311989 1525.939141 1526.927785
112.080000 1524.926492 1525.425850 1525.998982 1526.076582 1526.723016 1527.713918
112.180000 1525.643252 1526.156589 1526.763517 1526.831920 1527.503438 1528.538854
112.280000 1526.442696 1526.974165 1527.549902 1527.620833 1528.299125 1529.309063
112.340000 1527.057964 1527.470968 1528.077481 1528.139756 1528.829787 1529.809193
112.360000 1527.225692 1527.663004 1528.265628 1528.341736 1529.028420 1530.042439
112.380000 1527.478463 1527.885412 1528.466101 1528.565757 1529.250108 1530.240269
112.400000 1527.672565 1528.119328 1528.731665 1528.802999 1529.488487 1530.443293
112.420000 1527.895430 1528.399333 1529.054834 1529.068028 1529.727612 1530.668003
112.440000 1528.161816 1528.606624 1529.305152 1529.324739 1529.955023 1530.924039
112.460000 1528.440843 1528.889248 1529.593620 1529.607927 1530.251833 1531.167163
112.480000 1528.656302 1529.193519 1529.891935 1529.886246 1530.484814 1531.382413
112.500000 1528.937435 1529.474521 1530.183003 1530.162078 1530.747531 1531.680204
112.520000 1529.169121 1529.792847 1530.502883 1530.442979 1531.003654 1531.825722
112.540000 1529.450734 1530.093010 1530.773733 1530.711170 1531.243604 1532.043884
112.560000 1529.756836 1530.418912 1531.051834 1531.001830 1531.517371 1532.293855
112.580000 1530.028603 1530.765021 1531.338128 1531.297013 1531.768975 1532.503337
112.600000 1530.423388 1531.085336 1531.633132 1531.590828 1532.078532 1532.702134
112.620000 1530.755419 1531.378246 1531.910685 1531.886761 1532.341685 1532.940739
112.640000 1531.092759 1531.708809 1532.187021 1532.186759 1532.674493 1533.198763
112.660000 1531.505393 1532.020939 1532.506722 1532.502674 1532.969937 1533.518581
112.680000 1531.898727 1532.366588 1532.806057 1532.819642 1533.273494 1533.825881
112.700000 1532.203471 1532.682594 1533.123025 1533.119300 1533.553061 1534.123870
112.720000 1532.468319 1533.016986 1533.424414 1533.440134 1533.843537 1534.414590
112.740000 1532.813094 1533.306872 1533.741667 1533.750418 1534.191070 1534.717690
112.760000 1533.107340 1533.566911 1534.028461 1534.033454 1534.513234 1535.030712
112.780000 1533.363104 1533.831048 1534.277312 1534.305392 1534.785147 1535.306094
112.800000 1533.668142 1534.077165 1534.559964 1534.573406 1535.062002 1535.509953
112.820000 1533.925887 1534.315718 1534.826049 1534.824529 1535.296706 1535.741258
112.840000 1534.182215 1534.612884 1535.126917 1535.111596 1535.569370 1535.981422
112.860000 1534.441749 1534.894792 1535.387961 1535.385858 1535.842208 1536.289795
112.880000 1534.690683 1535.169793 1535.651037 1535.641695 1536.089966 1536.522230
112.900000 1534.981611 1535.417556 1535.898213 1535.886836 1536.335603 1536.748414
112.920000 1535.207567 1535.673868 1536.130634 1536.132134 1536.568479 1536.972135
112.940000 1535.444803 1535.926413 1536.360200 1536.359901 1536.778479 1537.151943
112.960000 1535.678862 1536.188582 1536.609104 1536.589141 1536.979423 1537.375948
112.980000 1535.904317 1536.404497 1536.839136 1536.808904 1537.162334 1537.552477
113.000000 1536.202017 1536.644696 1537.047686 1537.026218 1537.347145 1537.738918
113.020000 1536.445514 1536.867467 1537.247445 1537.231493 1537.535717 1537.914447
113.040000 1536.679095 1537.074633 1537.435162 1537.420612 1537.721019 1538.094067
113.060000 1536.907385 1537.278775 1537.618704 1537.607598 1537.896542 1538.333817
113.080000 1537.082104 1537.481761 1537.788771 1537.786024 1538.070771 1538.486804
113.140000 1537.610912 1537.994596 1538.260013 1538.257971 1538.504357 1538.842843
113.160000 1537.823371 1538.171266 1538.431096 1538.433742 1538.684793 1539.058243
113.180000 1538.042678 1538.358281 1538.610755 1538.614461 1538.855782 1539.281953
113.200000 1538.253790 1538.544066 1538.782975 1538.803763 1539.045438 1539.526930
113.220000 1538.451489 1538.724058 1538.965783 1538.986225 1539.230422 1539.818138
113.240000 1538.639290 1538.902193 1539.145225 1539.170232 1539.399342 1539.938377
113.260000 1538.827649 1539.088775 1539.338010 1539.356315 1539.587116 1540.188192
113.280000 1538.992654 1539.270485 1539.530700 1539.548306 1539.802656 1540.370550
113.300000 1539.200998 1539.438351 1539.712619 1539.736337 1540.021432 1540.581376
113.320000 1539.373250 1539.632763 1539.912221 1539.937005 1540.241240 1540.733091
113.340000 1539.587566 1539.839417 1540.128938 1540.154759 1540.463515 1540.939755
113.360000 1539.792608 1540.053654 1540.363838 1540.382294 1540.710959 1541.183113
113.380000 1540.000077 1540.272160 1540.583896 1540.622213 1540.995959 1541.420101
113.400000 1540.221788 1540.476065 1540.824220 1540.867684 1541.242623 1541.712189
113.420000 1540.471599 1540.760098 1541.111936 1541.140229 1541.531731 1542.021333
113.440000 1540.671716 1541.026904 1541.407039 1541.430532 1541.822463 1542.336923
113.460000 1540.927564 1541.292063 1541.696301 1541.718508 1542.156193 1542.668572
113.480000 1541.201603 1541.562917 1541.985707 1542.009930 1542.461299 1542.911351
113.500000 1541.458784 1541.833249 1542.291799 1542.302972 1542.777838 1543.206891
113.520000 1541.708689 1542.153838 1542.617075 1542.621041 1543.093328 1543.555569
113.540000 1542.038298 1542.461964 1542.947418 1542.953099 1543.427623 1543.954797
113.560000 1542.353402 1542.815298 1543.300266 1543.303173 1543.779020 1544.358162
113.580000 1542.650861 1543.130092 1543.651641 1543.649307 1544.168291 1544.702179
113.600000 1542.986475 1543.493107 1543.985677 1544.010045 1544.548305 1545.134303
113.620000 1543.277769 1543.834825 1544.330334 1544.367464 1544.919125 1545.461510
113.660000 1544.012802 1544.554867 1545.161308 1545.179430 1545.812484 1546.406821
113.680000 1544.370961 1544.915435 1545.525228 1545.540336 1546.140407 1546.783975
113.700000 1544.704427 1545.301913 1545.880517 1545.899827 1546.476640 1547.135925
113.720000 1545.033490 1545.638968 1546.268170 1546.263624 1546.830717 1547.565068
113.740000 1545.461576 1545.991749 1546.618915 1546.619186 1547.193801 1547.980558
113.760000 1545.818386 1546.340693 1546.937258 1546.947766 1547.547138 1548.266057
113.780000 1546.172419 1546.670322 1547.250803 1547.266267 1547.861041 1548.502448
113.800000 1546.453187 1546.984109 1547.548806 1547.584624 1548.190708 1548.827454
113.820000 1546.771046 1547.299546 1547.853869 1547.892668 1548.519070 1549.218289
113.840000 1547.115930 1547.601246 1548.179314 1548.217766 1548.831672 1549.518021
113.860000 1547.418945 1547.882891 1548.478149 1548.527980 1549.133535 1549.874834
113.880000 1547.713307 1548.203126 1548.830716 1548.858490 1549.468356 1550.213006
113.900000 1547.956851 1548.509068 1549.193817 1549.201442 1549.837660 1550.586644
113.920000 1548.237392 1548.863073 1549.516471 1549.531602 1550.215872 1550.955122
113.940000 1548.463539 1549.172310 1549.847128 1549.860952 1550.534450 1551.254656
113.960000 1548.804045 1549.478450 1550.217378 1550.197170 1550.914936 1551.563109
114.020000 1549.931539 1550.588790 1551.349087 1551.316686 1552.002691 1552.579336
114.040000 1550.248071 1550.939631 1551.703634 1551.640316 1552.298776 1552.835554
114.060000 1550.605439 1551.289897 1552.017510 1551.959098 1552.587424 1553.109038
114.100000 1551.449080 1552.061631 1552.610031 1552.608959 1553.151864 1553.712253
114.120000 1551.780039 1552.352032 1552.875910 1552.890721 1553.432132 1554.002690
114.140000 1552.149430 1552.646522 1553.189399 1553.188583 1553.729528 1554.282107
114.160000 1552.437688 1552.940110 1553.481850 1553.472741 1554.047460 1554.570085
114.180000 1552.685623 1553.208610 1553.772043 1553.755156 1554.279859 1554.838651
114.200000 1552.980453 1553.489260 1554.042808 1554.035659 1554.583551 1555.092214
114.220000 1553.284105 1553.774903 1554.313536 1554.317315 1554.852400 1555.325196
114.240000 1553.571041 1554.099425 1554.598559 1554.599717 1555.113019 1555.583980
114.260000 1553.839937 1554.393463 1554.896193 1554.886748 1555.403189 1555.901420
114.280000 1554.112104 1554.687392 1555.178997 1555.168437 1555.691916 1556.124662
114.300000 1554.366415 1554.954032 1555.462848 1555.442428 1555.953544 1556.348824
114.320000 1554.635157 1555.238564 1555.744843 1555.714588 1556.218405 1556.578843
114.340000 1554.906109 1555.514285 1556.023291 1555.985565 1556.466335 1556.803824
114.360000 1555.207405 1555.771733 1556.287907 1556.247573 1556.731076 1557.046747
114.380000 1555.518364 1556.076322 1556.550247 1556.507447 1556.948268 1557.276079
114.400000 1555.853854 1556.319222 1556.798184 1556.760335 1557.183097 1557.506355
114.420000 1556.109927 1556.578368 1557.054577 1557.007097 1557.421664 1557.697031
114.440000 1556.321030 1556.834943 1557.296399 1557.252386 1557.647085 1557.943716
114.460000 1556.582612 1557.074618 1557.539985 1557.493047 1557.881291 1558.198249
114.480000 1556.802137 1557.320044 1557.770551 1557.726515 1558.092777 1558.431594
114.500000 1557.049246 1557.587491 1557.987383 1557.954417 1558.317144 1558.698173
114.520000 1557.314655 1557.804184 1558.202155 1558.183906 1558.556350 1558.997864
114.540000 1557.551549 1558.035976 1558.415029 1558.411532 1558.781150 1559.258217
114.560000 1557.773673 1558.234565 1558.622641 1558.633802 1559.024293 1559.476129
114.580000 1557.997397 1558.465306 1558.824857 1558.849221 1559.254859 1559.754114
114.600000 1558.249762 1558.685717 1559.033322 1559.072914 1559.479864 1560.081063
114.620000 1558.455937 1558.876808 1559.256327 1559.300028 1559.720635 1560.400516
114.640000 1558.656114 1559.093324 1559.479326 1559.528779 1559.969502 1560.713117
114.660000 1558.902094 1559.307065 1559.715435 1559.769411 1560.207732 1561.027420
114.680000 1559.138541 1559.519246 1559.954720 1560.008017 1560.480717 1561.283630
114.700000 1559.320001 1559.739582 1560.185844 1560.237748 1560.729425 1561.515006
114.720000 1559.528889 1559.952611 1560.411763 1560.477707 1561.013213 1561.759526
114.740000 1559.733953 1560.167669 1560.651116 1560.721286 1561.279372 1562.015989
114.760000 1560.010385 1560.399073 1560.896983 1560.964780 1561.554798 1562.318959
114.780000 1560.184058 1560.622338 1561.122955 1561.199578 1561.822484 1562.587851
114.820000 1560.592150 1561.069473 1561.554853 1561.647625 1562.349152 1563.021289
114.840000 1560.806409 1561.319075 1561.768678 1561.875391 1562.624047 1563.221088
114.860000 1561.039054 1561.555249 1561.988743 1562.116716 1562.912271 1563.447597
114.880000 1561.228380 1561.790212 1562.204970 1562.347978 1563.152406 1563.682598
114.900000 1561.462520 1562.008499 1562.419163 1562.579533 1563.414103 1563.874816
114.920000 1561.754938 1562.250222 1562.654351 1562.814450 1563.649245 1564.083541
114.940000 1562.016159 1562.472099 1562.893916 1563.046102 1563.878850 1564.270889
114.960000 1562.308353 1562.684345 1563.135382 1563.286658 1564.096624 1564.492141
114.980000 1562.519227 1562.947449 1563.403297 1563.534557 1564.319902 1564.708252
115.000000 1562.780803 1563.173800 1563.676236 1563.776078 1564.519461 1564.880561
115.020000 1562.999389 1563.402381 1563.942275 1564.011214 1564.713606 1565.091071
115.040000 1563.259432 1563.662848 1564.224181 1564.254207 1564.922275 1565.306471
115.060000 1563.502929 1563.941499 1564.475569 1564.502857 1565.122452 1565.513024
115.080000 1563.769639 1564.217891 1564.705281 1564.748748 1565.345112 1565.703067
