depth(m) lower_95(kyr) lower_68(kyr) median(kyr) mean(kyr) upper_68(kyr) upper_95(kyr)
138.290000 2269.280756 2270.278009 2271.138280 2271.159278 2272.039032 2273.024709
138.370000 2270.402606 2271.455336 2272.490793 2272.638687 2273.722036 2275.904926
138.450000 2271.571240 2272.637532 2273.915825 2274.168653 2275.643361 2278.384712
138.530000 2272.474823 2273.665145 2275.213838 2275.534974 2277.434211 2280.722669
138.666667 2274.097021 2275.384465 2277.491908 2277.818618 2280.329887 2283.387994
138.803333 2275.642582 2277.262683 2279.755699 2280.104087 2282.991338 2286.554394
138.940000 2277.169270 2279.317911 2281.996053 2282.385101 2285.579416 2289.480161
139.076667 2278.964963 2281.477140 2284.416909 2284.763698 2288.020424 2292.888937
139.213333 2281.198556 2283.838211 2286.676535 2287.080591 2290.326937 2296.225563
139.350000 2283.775425 2286.197552 2289.108835 2289.506357 2292.809261 2298.055080
139.440000 2285.428540 2287.977645 2290.951159 2291.313602 2294.699724 2299.256075
139.530000 2287.272655 2290.042947 2292.709372 2293.151098 2296.587964 2300.631814
139.650000 2290.018152 2292.416301 2295.399914 2295.712609 2299.151815 2302.268270
139.730000 2291.725695 2294.069575 2297.159611 2297.315788 2300.672540 2303.588619
139.800000 2293.077147 2295.665010 2298.769851 2298.824929 2302.201309 2304.815033
139.875000 2294.047177 2297.114465 2300.528998 2300.389343 2303.652148 2305.999296
139.950000 2295.481859 2298.769341 2302.210868 2301.949764 2305.011286 2307.267747
140.030000 2296.873661 2300.477384 2303.824852 2303.536204 2306.386408 2308.662741
140.140000 2299.013218 2302.944860 2305.970557 2305.638086 2308.352726 2310.416918
140.250000 2301.819806 2305.316452 2307.857890 2307.721565 2310.197302 2312.431417
140.340000 2304.015047 2307.127358 2309.517561 2309.344224 2311.685701 2313.602543
140.430000 2306.206868 2308.685620 2310.896990 2310.780445 2312.905496 2314.903961
140.550000 2308.437966 2310.348497 2312.590902 2312.545026 2314.572543 2316.658021
140.630000 2309.683903 2311.567275 2313.653693 2313.614593 2315.720775 2317.578719
140.730000 2310.954165 2312.869690 2314.961555 2314.915469 2316.971486 2318.879859
140.850000 2312.617246 2314.354272 2316.388882 2316.378840 2318.386064 2320.403281
140.940000 2313.773370 2315.514806 2317.485338 2317.497914 2319.495480 2321.507555
141.030000 2314.895761 2316.623002 2318.520656 2318.609183 2320.605079 2322.608071
141.150000 2316.352567 2317.999858 2319.923384 2320.027750 2322.085642 2324.163337
141.230000 2317.219780 2319.013052 2320.921173 2321.069498 2323.070284 2325.327087
141.300000 2318.111963 2319.883169 2321.813430 2322.014416 2324.113847 2326.523914
141.410000 2319.502038 2321.158910 2323.255932 2323.421613 2325.597947 2328.074786
141.520000 2320.684955 2322.466285 2324.765944 2324.779826 2326.976197 2329.437564
141.630000 2321.957705 2323.903515 2326.179444 2326.177385 2328.374664 2331.088657
141.750000 2323.374948 2325.556995 2327.740235 2327.806152 2330.031062 2332.706918
141.840000 2324.798242 2326.757391 2329.139819 2329.192031 2331.513636 2333.787618
141.930000 2326.176538 2328.178485 2330.630579 2330.618666 2333.032669 2335.160552
142.050000 2327.801572 2330.201670 2332.644630 2332.674787 2335.099920 2337.687028
142.130000 2329.239009 2331.716092 2334.245824 2334.150331 2336.558802 2339.262642
142.230000 2331.520910 2333.755415 2336.322767 2336.194130 2338.565390 2340.832059
142.350000 2333.780062 2336.289907 2338.613002 2338.563647 2340.836180 2342.675926
142.440000 2335.463670 2337.999586 2340.236933 2340.164674 2342.524020 2344.221561
142.530000 2337.400991 2339.657941 2341.785588 2341.770085 2343.998739 2345.448444
142.650000 2340.087253 2342.019792 2343.830414 2343.808312 2345.633620 2347.184411
142.730000 2341.451608 2343.611071 2345.380637 2345.328006 2347.065766 2348.842878
142.800000 2343.194065 2345.061891 2346.886084 2346.838720 2348.554357 2350.385639
142.875000 2345.049836 2347.122858 2348.915858 2348.991916 2351.022387 2353.485259
142.950000 2347.158720 2348.994552 2350.897507 2351.043295 2353.135573 2355.767407
143.030000 2348.865754 2350.582744 2352.565047 2352.729066 2354.828055 2357.670342
143.130000 2350.981383 2352.710923 2354.798367 2355.030910 2357.353429 2359.955843
143.250000 2352.901479 2354.684989 2357.197546 2357.280720 2359.889225 2362.666357
143.340000 2354.023392 2356.092586 2358.845414 2358.891101 2361.612768 2364.562372
143.430000 2355.445752 2357.521293 2360.423448 2360.490028 2363.351465 2366.002471
143.530000 2356.683579 2359.194610 2362.190627 2362.216709 2365.177424 2367.636877
143.630000 2358.279934 2361.101745 2364.002511 2363.946030 2366.877333 2369.113024
143.730000 2359.708349 2362.759238 2365.771344 2365.616039 2368.492589 2370.458832
143.850000 2361.557200 2364.789961 2367.858780 2367.594068 2370.239484 2372.188593
143.940000 2363.252861 2366.481083 2369.374208 2369.113585 2371.717446 2373.577816
144.030000 2365.038186 2368.105090 2370.997490 2370.687132 2373.163191 2374.993392
144.150000 2367.796259 2370.695028 2373.055603 2372.832226 2374.965033 2376.680088
144.230000 2369.269699 2372.236199 2374.498220 2374.308665 2376.347763 2378.115118
144.340000 2372.220424 2374.441410 2376.374104 2376.329552 2378.140304 2380.504770
144.450000 2374.437228 2376.466119 2378.184078 2378.278899 2380.102601 2382.470265
144.530000 2375.841227 2377.587374 2379.321611 2379.497432 2381.394636 2383.893998
144.630000 2377.433952 2378.913810 2380.711744 2380.905262 2382.875962 2385.606406
144.750000 2378.895800 2380.458652 2382.252932 2382.480317 2384.578300 2387.402384
144.840000 2379.917328 2381.635825 2383.361363 2383.689966 2385.913309 2388.727121
144.930000 2381.003996 2382.803735 2384.629731 2384.914159 2387.200268 2389.933567
145.050000 2382.633342 2384.456411 2386.336894 2386.658007 2389.076159 2391.650367
145.130000 2383.772360 2385.685587 2387.634137 2387.962136 2390.675482 2393.009555
145.230000 2385.353935 2387.259929 2389.666444 2389.762186 2392.480448 2394.298330
145.350000 2387.476954 2389.578194 2392.355312 2392.133216 2394.567723 2395.899812
145.440000 2389.563263 2391.919132 2394.352853 2394.041939 2395.925763 2397.239754
145.530000 2391.676167 2394.417776 2396.189901 2395.905271 2397.315778 2398.416861
145.650000 2396.291667 2397.321079 2398.316086 2398.315795 2399.280196 2400.228215
