depth(m) lower_95(kyr) lower_68(kyr) median(kyr) mean(kyr) upper_68(kyr) upper_95(kyr)
40.380000 1191.726728 1192.393971 1193.078413 1193.092512 1193.772772 1194.539016
40.430000 1193.173557 1193.848380 1194.776880 1194.991754 1195.989434 1198.490374
40.480000 1194.319279 1195.134417 1196.373778 1196.725425 1198.388707 1201.110828
40.530000 1195.382012 1196.477203 1198.252964 1198.512238 1200.679388 1203.085432
40.580000 1196.374378 1197.714652 1200.146777 1200.211540 1202.584998 1205.421259
40.630000 1197.485962 1199.123391 1201.538655 1201.791211 1204.418240 1207.252365
40.730000 1200.348866 1202.300761 1204.367349 1204.758617 1207.658252 1210.110828
40.780000 1201.418721 1203.647055 1205.780757 1206.086267 1208.925208 1211.415207
40.855000 1203.404435 1205.415731 1207.621721 1208.110073 1211.323047 1213.687937
40.930000 1205.491630 1207.163009 1209.554448 1210.120982 1213.530511 1215.614461
40.980000 1206.773793 1208.238980 1211.081007 1211.505860 1214.907317 1216.844350
41.030000 1207.908337 1209.374757 1213.196097 1212.960307 1216.417213 1218.048330
41.080000 1209.028496 1210.616225 1215.069366 1214.423923 1217.661796 1219.346734
41.130000 1210.406036 1212.223953 1216.633099 1215.935120 1218.979348 1220.668552
41.180000 1211.873561 1214.162030 1218.095799 1217.477517 1220.012568 1221.864284
41.230000 1213.165374 1216.004283 1219.487452 1218.950531 1221.176138 1223.253930
41.305000 1215.395863 1218.778716 1221.090951 1220.837293 1222.670092 1224.779041
41.380000 1218.740872 1221.101199 1222.751960 1222.705345 1224.181028 1226.222030
41.430000 1220.497943 1222.347843 1223.849524 1223.872512 1225.233974 1227.364840
41.480000 1221.840076 1223.449960 1224.792494 1224.984414 1226.285558 1229.686394
41.530000 1223.140241 1224.537696 1225.918489 1226.202980 1227.532873 1232.759822
41.580000 1224.151485 1225.651011 1227.105397 1227.463064 1228.886345 1233.989447
41.655000 1225.751220 1227.303594 1229.135471 1229.622718 1231.934164 1236.186882
41.730000 1227.402738 1229.109259 1231.329508 1231.847463 1234.879554 1238.563252
41.830000 1229.608884 1231.705754 1234.330970 1234.828826 1238.631139 1241.145793
41.880000 1230.858163 1233.179661 1236.377989 1236.560825 1240.152934 1242.302755
41.930000 1232.309200 1234.915552 1238.654693 1238.452446 1241.973650 1243.857264
42.030000 1235.262553 1238.895286 1243.044866 1242.471572 1245.125675 1248.181678
42.163333 1239.283782 1244.883178 1249.030799 1249.340486 1253.978186 1259.103484
42.296667 1244.405596 1251.319031 1256.747657 1256.147122 1260.860722 1264.088300
42.430000 1254.539360 1259.569992 1262.964489 1262.515770 1265.444078 1268.092753
42.480000 1257.521498 1261.689181 1264.669989 1264.286433 1266.937458 1269.602545
42.580000 1261.882224 1265.290367 1267.780687 1267.557055 1269.853137 1272.394440
42.680000 1264.589591 1267.819128 1270.195929 1270.088227 1272.358557 1274.534872
42.780000 1267.554379 1270.252438 1272.427689 1272.484326 1274.686954 1276.598453
42.880000 1270.525046 1272.768761 1274.754024 1274.864828 1276.870761 1278.512311
42.910000 1271.626558 1273.621424 1275.587921 1275.679601 1277.612852 1279.165620
42.930000 1272.420803 1274.241630 1276.225491 1276.270351 1278.145968 1279.667129
42.960000 1273.207583 1275.144790 1277.053631 1277.097898 1278.923375 1280.238643
42.980000 1273.902956 1275.763237 1277.602108 1277.649202 1279.432733 1280.714142
43.010000 1274.756707 1276.693567 1278.378975 1278.459781 1280.136309 1281.358639
43.030000 1275.179675 1277.305894 1278.992227 1279.004007 1280.593035 1281.758994
43.060000 1276.003378 1278.130596 1279.831682 1279.783633 1281.328460 1282.541214
43.080000 1276.521869 1278.757979 1280.372443 1280.335943 1281.829799 1283.013406
43.160000 1278.322734 1280.796858 1282.414270 1282.456586 1283.959080 1285.469320
43.210000 1279.386810 1282.069284 1283.862890 1283.892403 1285.576059 1287.468935
43.310000 1281.277791 1284.078549 1286.620009 1286.890150 1289.439658 1292.855953
43.410000 1283.227126 1286.079031 1289.675929 1289.920306 1293.490601 1297.501900
43.510000 1285.126657 1288.106328 1293.035794 1292.834645 1296.577168 1301.423970
43.585000 1287.169784 1290.570258 1295.211600 1295.003343 1298.588946 1302.967355
43.660000 1289.665602 1293.540608 1297.461781 1297.367663 1300.499641 1305.143088
43.710000 1291.725955 1295.570900 1299.220567 1299.255672 1302.306490 1306.677904
43.830000 1300.003158 1302.785378 1306.325488 1307.301721 1311.864093 1317.778434
43.880000 1302.336063 1304.685017 1308.889353 1309.910897 1315.225024 1319.492314
43.930000 1303.951097 1306.594810 1311.401849 1312.228933 1317.663445 1320.823045
43.980000 1305.402842 1308.226435 1314.835696 1314.526717 1319.757026 1322.114770
44.030000 1306.666046 1310.735579 1317.681785 1316.831736 1321.381402 1323.573453
44.080000 1308.382591 1313.815086 1319.821603 1319.037971 1322.816735 1324.861711
44.130000 1310.044491 1317.194415 1321.751187 1321.090439 1324.222702 1326.121292
44.180000 1313.635205 1319.689491 1323.396079 1322.941222 1325.672056 1327.442640
44.230000 1316.792982 1321.594154 1324.827328 1324.522218 1326.939912 1328.826656
44.280000 1320.388874 1324.204780 1326.520701 1326.480040 1328.356527 1330.164328
44.330000 1323.273036 1325.908503 1327.938190 1327.997282 1329.652015 1331.384415
44.380000 1325.410042 1327.421171 1329.283279 1329.417999 1331.001053 1332.669468
44.430000 1326.776062 1328.729615 1330.599172 1330.724278 1332.184559 1333.836241
44.480000 1328.117976 1329.950931 1331.893547 1331.991814 1333.477987 1335.079042
44.530000 1329.372416 1331.174623 1333.080169 1333.162807 1334.660790 1336.127348
44.580000 1330.481644 1332.386627 1334.153300 1334.297676 1335.731229 1337.304472
44.630000 1331.618410 1333.555964 1335.293328 1335.429031 1336.895258 1338.332060
44.730000 1333.554130 1335.764920 1337.495415 1337.588318 1338.845714 1340.332565
44.780000 1334.990197 1337.041735 1338.600726 1338.777218 1339.994930 1341.959354
44.830000 1336.306213 1338.221779 1339.694141 1339.878603 1340.982916 1342.953404
44.905000 1338.342681 1340.094843 1341.383327 1341.627068 1342.619585 1344.583941
44.980000 1340.659620 1341.847455 1342.956544 1343.296734 1344.215949 1346.202755
45.030000 1341.818296 1342.831832 1343.926201 1344.316891 1345.245590 1347.464660
45.080000 1342.747394 1343.797903 1344.891553 1345.305314 1346.272265 1348.472234
45.130000 1343.759577 1344.764126 1345.881296 1346.334954 1347.421423 1349.714769
45.180000 1344.860468 1345.864773 1347.003388 1347.527582 1348.721310 1351.796293
45.230000 1346.003151 1347.038067 1348.414103 1348.992720 1350.628505 1353.454895
45.280000 1347.170586 1348.287245 1349.990701 1350.564502 1352.514671 1355.577225
45.380000 1349.295093 1350.984596 1353.258613 1353.667767 1356.004526 1357.932665
45.480000 1352.047913 1354.133960 1357.020421 1357.028891 1359.260603 1361.006516
45.555000 1354.328079 1357.294590 1359.923259 1359.890958 1361.944577 1363.608938
45.630000 1358.795375 1360.783805 1362.576174 1362.727321 1364.274096 1366.057468
45.680000 1360.576726 1362.337062 1364.017533 1364.222041 1365.736415 1367.382819
45.780000 1363.721804 1365.192207 1366.871423 1367.072368 1368.538933 1370.160561
45.855000 1365.936710 1367.532270 1369.335402 1369.510574 1371.049222 1372.547662
45.930000 1368.529542 1369.947118 1371.754617 1371.900165 1373.332725 1374.781809
45.980000 1369.834599 1371.535521 1373.285381 1373.333665 1374.642664 1376.082118
46.030000 1371.138444 1372.952837 1374.614131 1374.648399 1375.851934 1377.156689
46.080000 1372.273848 1374.317060 1375.860932 1375.922887 1377.093414 1378.455976
46.130000 1373.332723 1375.389819 1377.067480 1377.099376 1378.148549 1379.707167
46.180000 1374.856355 1376.730545 1378.110785 1378.256175 1379.263509 1381.231874
46.230000 1376.736143 1378.166926 1379.235714 1379.516895 1380.472955 1382.643189
46.280000 1378.879366 1379.692840 1380.633343 1381.093058 1382.179143 1384.264493
46.330000 1380.119747 1380.945260 1382.088478 1382.625784 1383.969733 1386.515352
46.430000 1382.037439 1383.119638 1384.488568 1385.317973 1387.391693 1391.527214
46.480000 1383.068841 1384.242764 1385.609726 1386.532451 1388.798034 1393.201550
46.530000 1384.371712 1385.465563 1386.864389 1387.898552 1390.472301 1395.154111
46.580000 1385.791985 1386.908065 1388.579523 1389.538249 1392.288074 1396.545207
46.630000 1387.108818 1388.460796 1390.774682 1391.426739 1394.304755 1397.641965
46.700000 1389.423271 1391.575394 1394.542309 1394.717151 1397.278864 1400.052964
46.730000 1390.745235 1393.025417 1395.982311 1396.087909 1398.386495 1401.054730
46.800000 1394.292362 1396.897162 1399.097133 1399.266931 1401.191972 1402.836688
46.830000 1396.113184 1398.549569 1400.630944 1400.781626 1402.519762 1404.156908
46.870000 1399.668972 1401.570226 1403.292491 1403.460472 1404.784832 1406.325743
46.900000 1401.204023 1402.972611 1404.571333 1404.782542 1406.039364 1407.831945
47.000000 1405.766952 1407.475011 1409.262083 1409.562421 1411.116056 1413.701786
47.100000 1408.650915 1410.759401 1413.048498 1413.126215 1414.780329 1416.932528
47.200000 1411.109757 1413.823452 1416.231224 1416.331015 1418.215750 1420.664619
47.300000 1414.236620 1416.644172 1419.101024 1419.338095 1421.306237 1423.994170
47.400000 1417.532209 1419.759754 1421.995314 1422.329514 1424.312955 1426.959979
47.500000 1420.446726 1422.738653 1424.819692 1425.265096 1427.052934 1431.769441
47.600000 1424.714610 1426.742426 1428.798879 1429.876681 1432.110969 1441.488116
47.700000 1428.409931 1430.827245 1434.207220 1435.633397 1441.118766 1447.064868
47.800000 1431.048211 1434.489150 1439.741599 1440.229483 1445.572931 1449.969942
47.933333 1435.941989 1440.741337 1446.795617 1446.274164 1450.704128 1454.488696
48.066667 1441.950105 1448.262257 1452.158356 1452.008666 1455.141341 1458.142652
48.200000 1453.176984 1454.813584 1456.772027 1457.319590 1459.128189 1461.600767
48.300000 1456.126541 1458.061092 1459.875157 1460.401252 1462.006627 1464.221846
48.400000 1459.241191 1461.316787 1463.400176 1464.064841 1465.610289 1471.265925
48.500000 1462.771505 1464.727916 1466.873779 1467.714034 1469.531098 1476.401687
48.600000 1465.864702 1468.151590 1471.501298 1472.411288 1475.502552 1483.747647
48.700000 1468.404736 1470.616538 1475.217942 1475.975561 1480.484495 1487.730385
48.800000 1470.553705 1473.732083 1478.780664 1479.655359 1485.173216 1490.258101
48.900000 1473.495568 1477.432270 1482.967888 1483.589613 1489.654598 1492.752826
49.033333 1477.208493 1483.182633 1489.453926 1489.390819 1494.782083 1499.965825
49.166667 1481.926180 1490.106495 1495.312489 1495.269484 1500.372708 1505.829213
49.300000 1486.648970 1496.773660 1500.935128 1501.387785 1506.686870 1511.337186
49.400000 1489.827853 1500.077094 1505.399979 1506.509762 1513.995344 1519.253732
49.500000 1494.344139 1502.879192 1508.321224 1509.644025 1517.237231 1522.865043
49.600000 1501.809362 1505.825229 1511.281666 1512.657769 1520.072558 1525.261610
49.700000 1505.912263 1509.040285 1514.374132 1515.624615 1522.554435 1527.391338
49.800000 1509.718143 1512.326310 1518.616338 1518.840602 1524.931168 1529.670949
49.900000 1513.333550 1516.304863 1522.739141 1522.392019 1527.219600 1532.476159
50.000000 1516.152943 1521.679585 1526.455432 1526.126569 1529.846648 1535.183314
50.100000 1521.105014 1526.533133 1529.946714 1529.935138 1532.993216 1539.096203
50.200000 1526.029728 1530.766852 1533.910238 1534.079140 1537.437769 1542.395597
50.300000 1531.699012 1535.213304 1538.078379 1538.247003 1541.206780 1545.464529
50.400000 1535.121468 1539.466180 1542.545306 1542.487675 1545.514072 1549.680001
50.500000 1538.398705 1543.208581 1546.300274 1546.297266 1549.730016 1553.167878
50.600000 1541.561626 1545.776026 1548.803803 1548.949550 1552.502296 1555.795638
50.700000 1544.811007 1548.131769 1551.199774 1551.357732 1554.768087 1557.818908
50.800000 1547.133411 1550.357176 1553.511165 1553.555499 1556.891699 1559.652298
50.900000 1549.326211 1552.550369 1555.773142 1555.725755 1558.969980 1561.627457
51.000000 1551.566367 1554.634486 1557.947564 1557.824257 1561.004473 1563.406159
51.100000 1553.563058 1556.880004 1559.917415 1559.882879 1563.049248 1565.201249
51.200000 1555.822039 1559.026910 1562.084092 1561.905176 1564.733827 1567.031885
51.300000 1558.030401 1561.255829 1564.069324 1563.907066 1566.608585 1569.128856
51.400000 1560.248620 1563.154969 1566.127783 1565.951291 1568.604723 1571.197882
51.500000 1562.380872 1565.357112 1568.159532 1568.182560 1570.828975 1574.067151
51.600000 1564.430063 1567.442509 1570.333402 1570.372288 1573.022141 1578.683829
51.733333 1566.992697 1570.321165 1573.362782 1573.424708 1576.120736 1582.482384
51.866667 1569.921970 1573.237916 1576.557493 1576.597831 1579.597491 1585.793764
52.000000 1572.676742 1576.352105 1579.729281 1579.907928 1583.182294 1588.788097
52.133333 1575.744417 1579.633781 1583.318684 1583.515303 1587.381722 1592.620640
52.266667 1579.387569 1582.995513 1586.732249 1587.146686 1591.141200 1597.524453
52.400000 1583.272141 1586.600689 1590.687357 1591.029622 1595.467069 1602.630425
52.500000 1585.800187 1589.310884 1593.823371 1594.194940 1598.935093 1605.677667
52.600000 1588.260643 1592.038887 1597.060324 1597.709624 1603.647004 1609.480405
52.700000 1591.731882 1594.989827 1600.786532 1601.435544 1608.475001 1612.475767
52.800000 1594.094846 1598.846580 1605.180568 1605.140723 1611.671848 1615.080068
52.900000 1599.512784 1604.136200 1609.332348 1609.177866 1614.558029 1617.646762
53.000000 1606.495853 1610.467694 1614.119925 1613.911011 1617.552505 1620.101615
53.100000 1611.488421 1615.225724 1618.143180 1617.895129 1620.545146 1623.165250
53.120000 1612.575134 1615.977674 1618.834063 1618.604587 1621.233985 1623.663847
53.170000 1614.742568 1617.989534 1620.509119 1620.315445 1622.730034 1625.077162
53.200000 1616.106840 1618.964932 1621.533674 1621.307075 1623.538830 1626.036566
53.220000 1616.761867 1619.677501 1622.223621 1621.963997 1624.184366 1626.762186
53.270000 1618.254804 1621.586871 1623.801048 1623.567672 1625.582865 1627.771961
53.300000 1619.032285 1622.648307 1624.693252 1624.521451 1626.528788 1628.512550
53.320000 1619.650565 1623.357641 1625.303105 1625.158002 1627.147798 1628.929441
53.370000 1622.353650 1624.987234 1626.789973 1626.804890 1628.778800 1630.601664
53.400000 1623.448485 1625.902366 1627.902909 1627.819037 1629.877148 1631.832121
53.420000 1624.013652 1626.579166 1628.424748 1628.411165 1630.510884 1632.426317
53.470000 1626.021474 1628.014895 1629.888313 1629.921602 1631.907321 1633.749093
53.500000 1626.967193 1628.909254 1630.796411 1630.834155 1632.864092 1634.720393
53.520000 1627.637353 1629.489571 1631.441975 1631.467754 1633.468686 1635.240145
53.570000 1629.117270 1630.909576 1633.018549 1632.914346 1634.901884 1636.612852
53.620000 1630.310339 1632.222814 1634.430262 1634.300052 1636.354945 1637.987372
53.670000 1631.782800 1633.544343 1635.779622 1635.724192 1637.745789 1639.515601
53.720000 1633.215893 1635.101514 1637.366596 1637.262047 1639.249609 1641.119029
53.770000 1634.442386 1636.869365 1639.087051 1639.021927 1641.224107 1643.414740
53.820000 1636.028846 1638.640807 1640.775372 1640.797977 1643.067218 1645.378325
53.870000 1637.525480 1639.974702 1642.268849 1642.318690 1644.695052 1647.050009
53.920000 1639.592393 1641.860067 1644.026553 1644.090189 1646.536199 1648.872997
54.020000 1642.339045 1644.480958 1646.830806 1646.917497 1649.484315 1651.533012
54.120000 1644.713690 1646.967363 1649.434287 1649.429126 1651.838351 1654.656507
54.170000 1645.876595 1648.187142 1650.706774 1650.714439 1653.096512 1655.984588
54.270000 1648.468824 1650.818488 1653.211652 1653.281568 1655.689410 1658.567250
54.320000 1649.934326 1652.278000 1654.623266 1654.644088 1656.996579 1659.622601
54.420000 1652.210888 1654.873997 1657.095353 1657.142958 1659.396581 1662.194306
54.470000 1653.465864 1656.326612 1658.447714 1658.560778 1661.012070 1663.527170
54.520000 1655.007939 1657.830332 1659.951395 1660.082356 1662.506347 1665.330448
54.570000 1656.986894 1659.485456 1661.696520 1661.892293 1664.444390 1667.352086
54.620000 1658.636800 1660.871243 1663.350111 1663.524937 1666.092708 1669.377754
54.670000 1660.204736 1662.475527 1665.179682 1665.305726 1668.106234 1671.208729
54.720000 1661.809244 1664.057827 1666.910032 1667.123447 1670.194015 1673.669703
54.845000 1664.701829 1667.370060 1670.828692 1671.211754 1674.886500 1679.993367
54.970000 1667.667635 1670.533295 1674.902480 1675.363077 1679.679029 1684.563736
55.045000 1669.453491 1672.668582 1677.468505 1677.740982 1682.384704 1687.216035
55.120000 1671.328914 1674.975875 1679.801390 1680.076140 1684.674487 1689.269051
55.220000 1673.520282 1677.698923 1682.941062 1683.091806 1687.572909 1692.759044
55.320000 1675.694543 1680.448671 1686.063820 1686.196417 1690.736396 1697.647776
55.420000 1677.457017 1683.411100 1689.502847 1689.754358 1694.530442 1708.868131
55.470000 1678.673948 1684.800572 1691.547387 1691.632203 1696.784498 1710.197250
55.603333 1681.454639 1688.698720 1697.497973 1698.420310 1706.310671 1727.446846
55.736667 1684.346342 1692.994898 1704.323200 1705.377750 1715.374547 1739.649223
55.870000 1687.381470 1697.576784 1710.870052 1712.238704 1722.722669 1753.823132
55.970000 1689.403609 1701.468824 1715.890165 1716.972555 1727.636229 1761.765796
56.070000 1691.625813 1705.509968 1719.809201 1720.945883 1731.753978 1767.396649
56.170000 1693.840991 1708.454549 1722.839195 1724.828953 1736.056389 1774.262006
56.220000 1694.948376 1710.536158 1724.406956 1726.555725 1737.923412 1776.311688
56.345000 1697.746844 1714.778055 1728.265142 1730.960198 1742.431099 1781.555853
56.470000 1700.727108 1719.461700 1732.230894 1735.458889 1746.114923 1786.008063
56.520000 1702.071988 1721.143497 1733.913919 1737.239291 1747.040557 1788.249013
56.630000 1705.203854 1725.465584 1737.761445 1741.136078 1749.104109 1791.469090
56.730000 1707.639666 1730.314588 1741.518733 1745.135832 1752.368443 1795.453773
56.830000 1710.343597 1734.397216 1744.784256 1748.490277 1755.668955 1799.113657
56.930000 1713.180084 1737.516583 1748.128333 1751.933862 1760.131291 1803.128848
57.030000 1715.450059 1740.353289 1751.536310 1755.197810 1765.557322 1806.488143
57.130000 1718.985299 1743.720041 1754.865106 1758.593438 1769.715977 1809.643135
57.230000 1721.087387 1746.655640 1758.285946 1761.931040 1774.138347 1812.722363
57.330000 1724.358405 1749.279011 1761.608274 1765.181729 1777.785958 1815.594073
57.430000 1727.266169 1751.762716 1764.840205 1768.380875 1781.985742 1817.742299
57.530000 1730.358415 1754.452385 1768.468662 1771.664061 1786.962494 1820.248571
57.658571 1734.276127 1757.104108 1773.519438 1776.290420 1796.249438 1823.347764
57.787143 1738.126623 1759.796522 1779.495451 1781.092572 1806.020589 1826.086125
57.915714 1742.608497 1762.832069 1785.952734 1786.195686 1812.325036 1828.683437
58.044286 1746.291862 1765.510339 1792.748652 1791.277439 1816.412184 1831.408636
58.172857 1750.323384 1767.934081 1799.147021 1796.043950 1822.917227 1834.292732
58.301429 1753.891821 1770.264125 1805.423455 1800.816110 1826.554549 1837.037071
58.430000 1756.852056 1772.774857 1811.194563 1805.580434 1831.358981 1839.444538
58.530000 1760.235736 1774.905929 1814.644594 1808.809845 1834.100848 1841.526917
58.630000 1762.846553 1776.563140 1818.616779 1812.090034 1837.091978 1843.676950
58.730000 1766.698889 1778.532765 1822.107753 1815.346001 1839.823478 1846.060349
58.830000 1770.585109 1780.443106 1826.387908 1818.685763 1842.408013 1848.039208
58.930000 1772.571802 1782.334540 1829.888585 1821.736736 1844.822112 1849.991980
59.030000 1776.407187 1784.670098 1833.420072 1824.969546 1847.524173 1851.814440
59.130000 1779.150220 1786.526105 1837.087115 1828.165274 1849.912998 1853.997855
59.230000 1782.409618 1788.587851 1840.449997 1831.217534 1852.230140 1855.986653
59.330000 1785.462516 1790.703788 1844.240309 1834.528651 1854.610922 1857.809188
