depth(m) lower_95(kyr) lower_68(kyr) median(kyr) mean(kyr) upper_68(kyr) upper_95(kyr)
37.300000 1008.260578 1009.196866 1010.192533 1010.206166 1011.187566 1012.261819
37.400000 1010.472221 1011.673246 1013.114265 1013.224468 1014.739330 1016.966181
37.500000 1012.670212 1014.509814 1016.515625 1016.560958 1018.558968 1021.159493
37.600000 1015.396665 1018.041217 1020.526506 1020.580840 1023.202606 1025.749160
37.700000 1018.825174 1021.776211 1024.520880 1024.305281 1026.872850 1028.607284
37.800000 1022.945657 1026.276597 1028.553240 1028.231719 1030.162085 1031.697498
37.900000 1028.819806 1030.898555 1032.385238 1032.391255 1033.735995 1036.207556
38.000000 1032.141732 1033.827632 1035.393796 1035.647117 1037.462182 1040.850992
38.100000 1034.215469 1036.175001 1037.984989 1038.352674 1040.552264 1044.662513
38.200000 1036.463411 1038.515754 1040.492277 1040.895642 1043.332705 1047.008333
38.300000 1038.864982 1040.969893 1043.269358 1043.609409 1046.321063 1049.761180
38.400000 1041.470379 1043.630661 1046.268982 1046.543877 1049.649737 1052.332340
38.500000 1044.171454 1046.667070 1049.807474 1049.763857 1052.810932 1055.158685
38.600000 1047.851194 1050.722627 1054.054700 1053.870873 1056.632775 1060.024288
38.700000 1052.929554 1055.599913 1057.905331 1057.982349 1060.235819 1063.354009
38.800000 1056.660034 1058.996679 1061.076553 1061.499507 1063.977942 1068.705844
38.900000 1059.694361 1062.102997 1064.830166 1065.408493 1068.995009 1073.357211
39.000000 1062.868956 1065.690114 1069.516710 1069.508954 1073.035398 1077.215255
39.100000 1066.858113 1070.305437 1073.798512 1073.710702 1076.919076 1080.572686
39.200000 1071.506172 1076.502133 1079.368299 1079.356629 1082.777407 1085.376389
39.300000 1077.248183 1080.467618 1083.349599 1083.262828 1086.126291 1088.381729
39.400000 1081.308888 1084.483491 1087.141847 1086.983196 1089.542468 1091.563348
39.500000 1085.529174 1088.148066 1090.283592 1090.231442 1092.497124 1094.282526
39.600000 1088.861768 1090.887075 1092.834200 1092.853763 1095.020391 1096.688608
39.700000 1091.262884 1093.026778 1095.063599 1095.050648 1097.075705 1098.730952
39.800000 1093.506582 1095.213475 1097.121092 1097.122705 1099.124288 1100.819846
39.900000 1095.542774 1097.162827 1099.153917 1099.161566 1101.151965 1103.046765
40.000000 1097.708468 1099.371013 1101.233075 1101.248542 1103.133459 1104.777845
40.100000 1099.879947 1101.782158 1103.512638 1103.505035 1105.154299 1106.935977
40.200000 1102.655546 1104.416268 1105.993797 1106.113515 1107.719550 1110.481887
40.300000 1106.634584 1108.130488 1110.002802 1110.216578 1112.394941 1114.682788
40.400000 1109.748156 1112.740820 1115.047342 1114.916835 1117.091174 1119.251372
40.500000 1115.730537 1117.712377 1119.549047 1119.455657 1121.244644 1122.654652
40.600000 1119.357252 1121.138117 1122.713301 1122.703728 1124.256063 1126.012997
40.700000 1122.276663 1123.792138 1125.288587 1125.335485 1126.915515 1128.822941
40.800000 1124.613166 1126.172452 1127.822256 1127.866783 1129.502999 1131.657189
40.900000 1127.107114 1128.688971 1130.473737 1130.595733 1132.354967 1135.524241
41.000000 1129.752585 1131.309447 1133.552310 1133.821702 1136.350905 1140.198729
41.100000 1132.186820 1133.912970 1136.566508 1136.958442 1140.071123 1143.516660
41.200000 1134.767331 1136.877937 1139.960540 1140.340583 1143.931014 1147.334686
41.300000 1137.467032 1140.592053 1144.064944 1144.045929 1147.838036 1150.240260
41.400000 1141.286538 1145.413711 1149.237283 1149.011476 1152.277523 1156.869271
41.500000 1146.277796 1150.892230 1154.241247 1154.295096 1157.973748 1162.365290
41.600000 1151.569450 1154.866292 1158.586361 1158.702692 1162.633730 1166.222198
41.700000 1154.982689 1158.205889 1162.965984 1162.583611 1166.395122 1169.593465
41.800000 1157.810962 1161.783587 1166.784338 1166.274765 1169.971429 1174.024748
41.900000 1160.586152 1166.080516 1170.336531 1169.882212 1173.387043 1177.468529
42.000000 1164.301106 1169.035051 1173.439556 1173.044922 1176.872679 1180.260006
42.100000 1167.664832 1172.380885 1176.375760 1176.143723 1180.066189 1182.983240
42.200000 1170.752842 1175.732403 1179.235940 1179.093294 1182.893224 1185.365456
42.300000 1174.077870 1179.152879 1182.397300 1182.161944 1185.598183 1187.453070
42.400000 1178.305591 1182.225487 1185.670887 1185.205674 1188.070663 1189.523458
42.500000 1183.435669 1186.658582 1189.288249 1188.769892 1190.717203 1191.598668
42.600000 1191.472967 1192.486804 1193.466331 1193.537561 1194.656636 1196.026247
42.700000 1194.068722 1194.943819 1196.017260 1196.059005 1197.145880 1198.570195
42.800000 1196.048813 1197.141447 1198.236994 1198.253101 1199.399763 1200.728862
42.900000 1197.996892 1199.120353 1200.195079 1200.275632 1201.394741 1202.748032
43.000000 1199.899000 1201.122514 1202.262802 1202.340997 1203.638287 1204.943483
43.100000 1202.074339 1203.216591 1204.410119 1204.460600 1205.823390 1207.056069
43.200000 1204.257400 1205.431597 1206.660976 1206.709247 1207.997381 1209.464117
43.300000 1206.721949 1208.056903 1209.248621 1209.487752 1210.851811 1213.695436
43.400000 1209.040524 1210.362102 1211.989958 1212.250671 1214.244622 1216.825133
43.500000 1211.385809 1212.830714 1214.848657 1215.007525 1217.294990 1219.306406
43.600000 1213.828920 1215.651188 1217.931610 1217.832877 1219.953943 1221.538396
43.700000 1216.556125 1218.938588 1220.985428 1220.868904 1222.823028 1224.453060
43.800000 1219.308366 1221.835788 1223.592988 1223.686773 1225.538391 1228.084854
43.900000 1222.542507 1224.252955 1226.149527 1226.437534 1228.546096 1232.487113
44.000000 1225.715622 1227.302840 1229.559311 1230.020725 1232.854714 1236.343392
44.100000 1228.305914 1230.587593 1233.809284 1233.774414 1237.014877 1239.262121
44.200000 1231.328357 1234.836010 1238.441649 1237.880265 1240.493005 1242.301868
44.300000 1235.095512 1240.003816 1242.613447 1242.086776 1244.204535 1245.942673
44.400000 1243.285645 1245.661582 1247.378213 1247.984263 1250.506835 1256.313621
44.500000 1246.568979 1249.137116 1251.956574 1252.476243 1255.964060 1260.320215
44.600000 1249.512631 1252.798970 1256.414635 1256.484142 1260.070905 1263.440752
44.700000 1253.270187 1257.147362 1260.472414 1260.381463 1263.655488 1266.900169
44.800000 1257.266074 1261.114193 1264.303690 1264.277704 1267.563774 1270.872254
44.900000 1260.511127 1263.976664 1267.540093 1267.506057 1271.126610 1274.266503
45.000000 1263.729056 1266.835344 1270.506334 1270.571882 1274.423874 1277.013175
45.100000 1266.563258 1270.042344 1273.997024 1273.786392 1277.533410 1279.551653
45.200000 1270.292479 1273.608208 1277.558070 1277.035508 1280.195018 1282.058700
45.300000 1274.680870 1277.755590 1280.921597 1280.448396 1282.800127 1284.226520
45.400000 1279.072624 1282.303187 1284.078155 1283.884437 1285.559220 1287.244383
45.500000 1283.473033 1285.399191 1286.765510 1286.842610 1288.270878 1290.525684
45.600000 1286.758706 1288.419298 1289.739387 1289.981704 1291.687511 1293.750512
45.700000 1288.971390 1290.964219 1292.665053 1292.915918 1295.088502 1297.659727
45.800000 1291.284947 1293.553022 1295.539698 1295.780769 1298.196112 1300.835138
45.900000 1294.128198 1296.106073 1298.420324 1298.584040 1301.161172 1303.882734
46.000000 1296.736861 1298.859352 1301.341665 1301.445685 1304.037855 1306.683273
46.100000 1299.888818 1301.901773 1304.642925 1304.687461 1307.052227 1310.675108
46.200000 1303.813834 1306.018629 1308.386571 1308.735296 1311.414030 1315.241942
46.300000 1307.911253 1310.051575 1312.931171 1313.042484 1315.883537 1319.618914
46.400000 1311.482800 1314.317186 1317.249623 1317.433576 1320.627391 1323.712953
46.500000 1317.368836 1320.415589 1323.885770 1323.876195 1327.102810 1330.310477
46.600000 1321.089085 1324.522766 1327.763729 1327.609576 1330.591864 1334.124856
46.700000 1324.238281 1327.320363 1330.472257 1330.448832 1333.402115 1337.511797
46.800000 1326.939843 1330.007563 1333.045843 1333.097332 1336.101631 1340.530315
46.925000 1329.922037 1333.040177 1336.144567 1336.342270 1339.599051 1343.914058
47.050000 1333.203819 1336.237143 1339.174654 1339.456867 1342.824780 1346.981241
47.175000 1336.848286 1339.561800 1342.256617 1342.682233 1345.912168 1350.751040
47.300000 1341.226605 1343.184145 1345.496305 1346.090710 1349.363769 1353.477340
47.400000 1345.032168 1346.900507 1349.409765 1349.840943 1353.109521 1356.079723
47.500000 1348.270354 1350.520096 1353.566591 1353.519525 1356.586796 1358.605925
47.600000 1351.460693 1354.753491 1357.821046 1357.415535 1359.875340 1361.678174
47.700000 1356.810680 1360.020740 1361.916234 1361.755396 1363.539481 1365.296422
47.800000 1362.636827 1364.117934 1365.748322 1365.764382 1367.436541 1369.083328
47.900000 1365.495998 1366.859784 1368.467973 1368.483603 1370.053949 1371.648835
48.000000 1367.732561 1369.240471 1370.797423 1370.846287 1372.430182 1374.128643
48.100000 1369.996937 1371.557237 1373.271411 1373.256099 1374.828982 1377.427191
48.200000 1372.423962 1373.781721 1375.371916 1375.543781 1377.089597 1380.386105
48.300000 1375.186193 1376.538292 1377.865925 1378.066800 1379.414394 1382.904372
48.400000 1379.337254 1380.643021 1382.449296 1382.619726 1384.702529 1386.454084
48.500000 1382.766510 1384.910697 1386.811277 1386.799538 1388.635786 1391.018487
48.600000 1386.908409 1388.607343 1390.381382 1390.481340 1392.448112 1394.455357
48.700000 1389.561498 1391.367145 1393.321195 1393.344528 1395.388339 1397.243785
48.800000 1392.063515 1393.934701 1396.007989 1395.888660 1397.830423 1399.263288
48.900000 1394.462073 1396.616872 1398.562679 1398.395518 1400.125518 1401.402626
49.000000 1397.948731 1399.946220 1401.544399 1401.413685 1402.860167 1404.055512
49.100000 1402.053332 1403.424869 1404.720745 1404.820107 1406.199271 1408.262614
49.200000 1404.990004 1406.057756 1407.513357 1407.903257 1409.976149 1412.613237
49.300000 1407.497123 1408.923517 1411.071034 1411.208643 1413.465301 1416.259959
49.400000 1409.812577 1412.066781 1414.709843 1414.654468 1417.072732 1420.025797
49.500000 1412.841157 1416.265529 1418.263452 1418.384404 1420.994450 1423.104534
49.600000 1416.280624 1419.330950 1421.537838 1421.568347 1423.868938 1425.968624
49.700000 1420.996839 1423.520632 1425.524224 1425.589562 1427.522553 1430.558639
49.800000 1425.662977 1427.710665 1429.779864 1430.394944 1433.280367 1438.150330
49.900000 1428.943930 1431.161756 1434.563671 1434.827004 1438.625261 1441.693536
50.000000 1431.970610 1434.909149 1439.166269 1438.970943 1442.790426 1444.575399
50.100000 1435.226506 1439.108725 1443.334427 1442.626553 1445.620297 1447.111521
50.200000 1438.700937 1442.795956 1446.291574 1445.614207 1448.009972 1449.243559
50.300000 1441.986404 1446.513024 1448.673444 1448.179835 1450.155531 1451.158728
50.400000 1445.869122 1449.338284 1451.033778 1450.747304 1452.364623 1453.537099
50.500000 1450.083951 1452.173436 1453.381490 1453.326086 1454.502221 1455.964839
50.600000 1452.847899 1454.362645 1455.637760 1455.630471 1456.953016 1458.514291
50.700000 1455.185134 1456.592679 1457.798161 1457.847722 1459.144483 1460.651537
50.800000 1457.319671 1458.737175 1460.100395 1460.072793 1461.363796 1462.731614
50.900000 1459.499154 1460.980260 1462.354348 1462.321441 1463.671600 1464.952514
51.000000 1461.835422 1463.470618 1464.741971 1464.769827 1466.157341 1467.580990
51.100000 1465.066023 1466.305759 1467.790124 1467.977655 1469.649188 1472.299510
51.200000 1468.146226 1469.697683 1472.099908 1472.732001 1475.877542 1480.495193
51.300000 1470.620248 1472.548598 1476.170048 1476.591922 1480.704010 1483.840621
51.400000 1472.995789 1475.367977 1480.126594 1479.883563 1484.253199 1486.485206
51.500000 1475.576520 1478.628125 1483.316936 1482.896990 1486.893780 1488.775904
51.600000 1477.728702 1481.809254 1486.624035 1485.990666 1489.664864 1491.284315
51.740000 1481.348712 1486.537314 1491.854033 1491.567368 1496.114612 1502.402678
51.880000 1485.720463 1491.553811 1497.088602 1497.233505 1503.093965 1507.879658
52.020000 1490.910546 1496.995857 1503.349192 1502.804770 1508.255669 1512.337588
52.160000 1498.193502 1504.290803 1509.146415 1508.597562 1512.550224 1515.845395
52.300000 1508.504113 1511.089163 1513.795352 1513.833262 1516.598027 1519.190951
52.400000 1511.928788 1514.186442 1516.562563 1516.743822 1519.396466 1521.904926
52.500000 1514.516285 1516.982206 1519.479343 1519.425555 1521.952855 1524.135578
52.600000 1517.248060 1519.523247 1522.271715 1522.079204 1524.484098 1526.524414
52.700000 1519.912813 1522.399527 1525.081408 1524.847315 1527.181587 1528.952030
52.800000 1522.510506 1525.319147 1527.847054 1527.683381 1529.858073 1531.996917
52.900000 1525.790639 1528.544243 1530.745842 1530.780232 1532.810610 1535.655603
53.000000 1529.859960 1532.387959 1534.613335 1534.756068 1537.092938 1539.918381
53.100000 1533.367546 1535.705124 1538.151605 1538.132342 1540.644979 1543.074488
53.200000 1535.855870 1538.838626 1541.543683 1541.544412 1544.329470 1546.822626
53.300000 1538.532061 1541.683217 1544.601506 1544.606718 1547.446150 1550.187866
53.400000 1541.066779 1543.967178 1547.196755 1547.177858 1550.130035 1552.883953
53.500000 1543.330984 1546.256262 1549.727296 1549.603295 1552.740134 1555.591675
53.600000 1545.614798 1548.693051 1552.189529 1551.982599 1555.055100 1558.060407
53.700000 1547.788508 1551.160813 1554.577902 1554.420581 1557.555557 1560.443572
53.800000 1550.309862 1553.684710 1557.003521 1556.992545 1560.275890 1563.059724
53.900000 1553.039576 1556.608385 1559.844925 1559.792052 1563.023801 1565.688225
54.000000 1556.139080 1559.553527 1562.776686 1562.720655 1565.896502 1568.150402
54.100000 1559.198437 1562.686679 1565.987485 1565.862271 1568.820011 1571.448352
54.200000 1562.300811 1566.377129 1569.830661 1569.814220 1573.402405 1577.046521
54.300000 1565.771274 1570.673587 1573.796650 1573.889438 1577.542337 1580.814961
54.400000 1568.242956 1573.901667 1577.674495 1577.505737 1581.020502 1584.769804
54.500000 1571.116240 1577.778867 1581.197101 1580.953241 1584.179729 1587.918609
54.600000 1573.162818 1581.001899 1584.349313 1584.119456 1587.533026 1591.225237
54.700000 1577.013874 1583.697816 1587.038965 1586.869247 1590.299652 1594.504140
54.800000 1579.954463 1586.338770 1589.708660 1589.642296 1592.946090 1596.889950
54.900000 1583.060808 1589.244101 1592.673198 1592.606057 1595.800161 1600.526484
55.000000 1585.935488 1592.970054 1596.325018 1596.312968 1599.618254 1604.995923
55.100000 1590.011606 1597.336861 1601.013490 1600.705643 1604.051673 1608.201430
55.200000 1593.690822 1601.651548 1605.263694 1604.952726 1608.463360 1612.270202
55.300000 1595.969125 1606.222728 1609.625403 1609.233158 1612.740536 1616.308051
55.400000 1599.736242 1609.424983 1613.163726 1612.554064 1616.228609 1620.015021
55.500000 1603.689080 1612.110525 1616.219343 1615.696262 1619.533059 1622.972300
55.600000 1608.004528 1614.755265 1618.984801 1618.584134 1622.421449 1626.242319
55.700000 1611.542403 1617.567809 1621.666094 1621.391466 1625.023836 1629.322952
55.800000 1614.763707 1620.506585 1624.175177 1624.185117 1627.841593 1633.746388
55.900000 1619.389050 1623.915825 1627.127125 1627.347178 1630.842400 1637.043079
56.000000 1622.530984 1627.336743 1630.475963 1630.846218 1634.568884 1639.740083
56.100000 1627.946586 1631.182570 1634.685936 1634.698274 1638.295977 1642.155386
56.200000 1632.064446 1635.521903 1639.207339 1639.128587 1642.552822 1646.021509
56.300000 1638.388890 1641.750754 1644.952024 1644.840628 1648.026042 1650.699283
56.400000 1642.168466 1645.412081 1648.505249 1648.370349 1651.404237 1654.031738
56.500000 1645.841688 1648.663998 1651.608820 1651.570364 1654.395100 1657.036771
56.600000 1648.728803 1651.431940 1654.326219 1654.284443 1656.941348 1659.915195
56.700000 1651.167212 1654.080678 1656.862746 1656.793124 1659.421414 1662.077395
56.800000 1654.120251 1656.698874 1659.389991 1659.409948 1662.055202 1664.776099
56.900000 1657.072434 1659.658927 1662.186955 1662.356794 1665.023355 1668.270197
57.000000 1659.999029 1662.549348 1665.198621 1665.494111 1668.677521 1672.801493
57.100000 1662.269856 1664.884453 1667.891505 1668.228329 1671.847130 1675.815002
57.200000 1664.435531 1667.395178 1670.626900 1670.914890 1674.616896 1678.600543
57.300000 1667.052753 1669.790360 1673.358868 1673.645098 1677.705082 1681.641182
57.400000 1669.329991 1672.273433 1676.061603 1676.323282 1680.536262 1684.632138
57.500000 1671.704837 1674.799750 1678.709087 1678.948978 1683.149656 1687.001125
57.600000 1674.131552 1677.490064 1681.409594 1681.598501 1685.972497 1689.619408
57.700000 1676.706427 1679.954916 1684.173255 1684.330083 1688.589758 1692.253467
57.800000 1679.371750 1682.743771 1687.101844 1687.136780 1691.282139 1695.233483
57.900000 1681.799717 1685.706563 1690.069581 1690.092422 1694.302851 1698.263317
58.000000 1684.521200 1689.102175 1693.082532 1693.401631 1697.523228 1703.363583
58.100000 1688.007230 1693.095407 1696.663864 1697.191215 1701.362548 1708.052853
58.200000 1691.753725 1696.675807 1700.307361 1700.897252 1705.562418 1711.667492
58.300000 1696.639842 1700.267674 1704.079190 1704.757425 1709.310513 1715.167074
58.400000 1699.778283 1703.543438 1708.303910 1708.559390 1713.365527 1719.121886
58.500000 1702.763149 1707.008453 1712.073508 1712.289489 1717.284491 1723.211012
58.600000 1705.732352 1710.802890 1716.056916 1716.180135 1721.275469 1726.911494
58.700000 1708.891617 1714.616666 1719.487131 1719.764454 1724.995833 1730.130197
58.800000 1712.633181 1718.002298 1723.119832 1723.247445 1728.495626 1733.417756
58.900000 1716.088255 1721.128246 1726.413582 1726.402334 1731.460298 1736.218300
59.000000 1719.345798 1724.153874 1729.417439 1729.402967 1734.251021 1738.845778
59.100000 1722.167174 1726.882622 1732.289069 1732.335199 1736.989117 1741.326218
59.200000 1725.480686 1730.072082 1735.395856 1735.333651 1739.721613 1743.968669
59.300000 1728.134773 1733.485257 1738.386263 1738.367510 1742.593674 1746.902647
59.400000 1731.379936 1737.000393 1741.149400 1741.559345 1745.295423 1749.954067
59.500000 1735.182874 1740.571488 1744.472439 1744.723190 1748.200750 1752.491420
59.600000 1738.374943 1743.689980 1747.559488 1747.739167 1751.124222 1755.006508
59.700000 1742.152627 1746.460239 1750.560631 1750.731979 1753.936316 1757.522817
59.800000 1745.597512 1749.688263 1753.523279 1753.851378 1757.069500 1760.790598
59.900000 1748.723016 1752.742380 1756.406119 1756.811837 1759.958939 1763.641203
60.000000 1752.010517 1756.014694 1759.515493 1759.988584 1762.975302 1766.850969
60.100000 1755.295699 1759.019897 1762.470919 1762.974124 1765.841510 1769.519556
60.200000 1758.118677 1761.637315 1765.248408 1765.770488 1768.655541 1772.620925
60.300000 1761.040567 1764.315543 1767.846137 1768.607641 1771.624819 1776.437083
60.400000 1763.808821 1766.964542 1770.538445 1771.446810 1774.561718 1780.300739
60.500000 1766.222517 1769.944294 1773.440275 1774.425834 1777.847632 1783.321360
60.600000 1768.929885 1772.882639 1776.993774 1777.671180 1781.407245 1786.059661
60.700000 1772.481055 1776.513694 1780.932528 1781.464858 1785.410056 1789.146547
60.800000 1777.181822 1781.273893 1785.595206 1786.014689 1789.581230 1793.171032
60.900000 1781.053049 1785.923530 1790.160126 1790.401391 1793.473443 1798.071772
61.000000 1786.392679 1790.764671 1794.037512 1794.515603 1797.087804 1800.929718
61.100000 1790.558576 1794.282666 1797.410969 1798.014340 1800.558489 1805.348091
61.200000 1793.354108 1797.300916 1800.685846 1801.423592 1804.424857 1810.908884
61.300000 1796.387464 1800.109213 1803.663553 1804.706725 1807.995777 1815.813856
61.400000 1799.288584 1802.916323 1806.971694 1808.089343 1811.790857 1820.139013
61.500000 1802.951645 1806.128029 1810.539195 1811.826443 1816.535728 1825.507859
61.600000 1806.096613 1809.567442 1814.408814 1815.800507 1821.093358 1830.399946
61.700000 1808.550509 1812.835265 1818.020806 1819.510319 1825.501737 1835.706725
