depth(m) lower_95(kyr) lower_68(kyr) median(kyr) mean(kyr) upper_68(kyr) upper_95(kyr)
134.780000 1003.053812 1003.865326 1004.634439 1004.660671 1005.436188 1006.406205
134.908571 1003.835528 1004.682977 1005.534856 1005.562484 1006.400886 1007.517091
135.037143 1004.557356 1005.473286 1006.387922 1006.433468 1007.459747 1008.657460
135.165714 1005.290665 1006.222344 1007.290874 1007.314139 1008.382736 1009.664988
135.294286 1005.975044 1006.976675 1008.080770 1008.144818 1009.295248 1010.643462
135.422857 1006.736611 1007.775807 1008.915766 1008.961254 1010.093137 1011.399033
135.551429 1007.533804 1008.657366 1009.739754 1009.775326 1010.904624 1012.205482
135.680000 1008.374084 1009.442847 1010.467575 1010.536815 1011.645685 1012.920508
135.780000 1008.885594 1009.929231 1010.980616 1011.039957 1012.149293 1013.396012
135.880000 1009.326296 1010.480508 1011.449634 1011.542114 1012.638341 1013.932525
135.980000 1009.864640 1010.919126 1011.952710 1012.038346 1013.240824 1014.481939
136.080000 1010.461541 1011.472222 1012.494079 1012.561243 1013.732828 1015.019602
136.180000 1011.064711 1012.051294 1012.965263 1013.094566 1014.254776 1015.597171
136.280000 1011.656677 1012.589802 1013.507523 1013.647537 1014.787161 1016.170473
136.380000 1012.273736 1013.136056 1014.071262 1014.214129 1015.373150 1016.908448
136.480000 1012.872146 1013.680842 1014.647397 1014.803033 1015.974501 1017.449705
136.580000 1013.453086 1014.335010 1015.269558 1015.434682 1016.607509 1017.844112
136.680000 1014.053198 1014.924756 1015.966283 1016.081291 1017.199316 1018.532258
136.780000 1014.596145 1015.610374 1016.677297 1016.785311 1017.888952 1019.193918
136.880000 1015.324903 1016.295572 1017.461559 1017.540645 1018.599014 1020.011222
136.980000 1016.053370 1017.152244 1018.315606 1018.507252 1019.694570 1022.205302
137.080000 1016.843835 1018.010075 1019.286285 1019.572563 1021.022602 1023.752791
137.180000 1017.947968 1019.059551 1020.370526 1020.726152 1022.551941 1025.191270
137.280000 1018.963745 1020.310691 1021.877925 1022.162431 1024.083468 1026.471157
137.380000 1020.301533 1021.880138 1023.577526 1023.716556 1025.651056 1027.742409
137.480000 1021.748784 1023.450329 1025.318755 1025.336847 1027.046293 1029.210691
137.580000 1024.153964 1026.028198 1027.824329 1027.829381 1029.752888 1031.352737
137.680000 1027.292919 1028.530731 1030.414725 1030.296905 1031.898886 1032.900116
137.780000 1030.733157 1031.841293 1032.576414 1032.561716 1033.304548 1034.179821
137.880000 1031.710707 1032.539969 1033.276501 1033.309965 1034.084559 1035.069231
137.980000 1032.377195 1033.185202 1033.848823 1033.930073 1034.740105 1035.679661
138.080000 1032.998862 1033.709553 1034.448572 1034.512712 1035.320994 1036.307335
138.200000 1033.637873 1034.291102 1035.065485 1035.157388 1036.005869 1037.152006
138.320000 1034.222686 1034.826818 1035.692602 1035.760003 1036.619562 1037.773887
138.440000 1034.729217 1035.461874 1036.331501 1036.383496 1037.286974 1038.513264
138.560000 1035.325190 1036.012066 1036.910010 1036.985361 1037.940232 1039.083249
138.680000 1035.883939 1036.602970 1037.525400 1037.585473 1038.522027 1039.663743
138.780000 1036.363224 1037.077786 1038.038980 1038.088765 1039.030531 1040.234998
138.880000 1036.908546 1037.585421 1038.533575 1038.591296 1039.525070 1040.809961
138.980000 1037.437217 1038.083980 1039.066501 1039.101700 1040.053095 1041.351216
139.080000 1037.914248 1038.533827 1039.570229 1039.590065 1040.536495 1041.858351
139.180000 1038.365591 1039.076618 1040.069080 1040.085852 1041.000400 1042.368233
139.280000 1038.869373 1039.611465 1040.555818 1040.582141 1041.438778 1042.725408
139.380000 1039.379450 1040.100603 1041.061240 1041.091025 1041.966298 1043.192515
139.480000 1039.874026 1040.628020 1041.567173 1041.602393 1042.482149 1043.697418
139.580000 1040.384230 1041.122678 1042.086315 1042.125007 1043.016315 1044.233759
139.680000 1040.920235 1041.691938 1042.642751 1042.674850 1043.600924 1044.796385
139.780000 1041.424442 1042.271606 1043.167017 1043.234315 1044.185698 1045.349911
139.880000 1042.005542 1042.822102 1043.717793 1043.795385 1044.769351 1045.881190
139.980000 1042.579780 1043.413935 1044.296051 1044.367877 1045.406083 1046.513979
140.080000 1043.109661 1043.953736 1044.901601 1044.952996 1046.023221 1047.069224
140.180000 1043.666468 1044.553434 1045.502852 1045.583841 1046.692489 1047.745568
140.280000 1044.166564 1045.105173 1046.219764 1046.214049 1047.372908 1048.376613
140.380000 1044.710132 1045.686810 1046.866250 1046.821577 1047.938558 1048.912443
140.480000 1045.209044 1046.309560 1047.478969 1047.439220 1048.531919 1049.450353
140.600000 1045.894703 1046.983328 1048.337580 1048.218054 1049.371771 1050.208097
140.690000 1046.388247 1047.672205 1049.007527 1048.855310 1049.955795 1050.737607
140.780000 1046.868788 1048.449543 1049.648987 1049.484470 1050.472795 1051.205542
140.880000 1047.481962 1049.087878 1050.221162 1050.068002 1051.023426 1051.747417
140.980000 1048.045667 1049.706823 1050.767894 1050.633639 1051.547830 1052.248830
141.090000 1048.755996 1050.424651 1051.403136 1051.265948 1052.140434 1052.824192
141.200000 1049.436645 1051.084617 1052.015294 1051.878880 1052.699486 1053.370891
141.320000 1050.259052 1051.758939 1052.641269 1052.526947 1053.306290 1053.863095
141.440000 1050.906403 1052.491935 1053.265718 1053.160824 1053.913471 1054.508792
141.560000 1051.654446 1053.143475 1053.861664 1053.773187 1054.477851 1055.076021
141.680000 1052.685667 1053.783938 1054.461245 1054.395703 1055.058324 1055.674807
141.800000 1053.731605 1054.438283 1055.046245 1055.017219 1055.602950 1056.178895
141.880000 1054.245742 1054.902751 1055.435919 1055.443943 1055.983767 1056.585469
141.990000 1054.773773 1055.421000 1055.956803 1055.956852 1056.459651 1057.087727
142.100000 1055.289186 1055.934072 1056.475377 1056.457358 1056.970552 1057.473871
142.180000 1055.795294 1056.341637 1056.867963 1056.849981 1057.348349 1057.846013
142.280000 1056.262890 1056.831289 1057.347090 1057.343169 1057.827315 1058.412532
142.380000 1056.765398 1057.322517 1057.836373 1057.837424 1058.328153 1058.879848
142.480000 1057.254377 1057.789815 1058.290828 1058.318642 1058.817132 1059.396636
142.600000 1057.769729 1058.323000 1058.834910 1058.867369 1059.384611 1060.046413
142.720000 1058.296848 1058.821756 1059.375453 1059.401579 1059.910697 1060.666130
142.840000 1058.775904 1059.375812 1059.921172 1059.965759 1060.475760 1061.275898
142.960000 1059.321059 1059.885489 1060.454462 1060.525318 1061.013744 1061.979778
143.080000 1059.894942 1060.436460 1060.989294 1061.115606 1061.633492 1062.660350
143.180000 1060.363335 1060.913740 1061.545849 1061.678661 1062.231076 1063.392071
143.280000 1060.899630 1061.423201 1062.105339 1062.306375 1062.903349 1064.419515
143.380000 1061.436375 1061.974146 1062.739053 1063.016249 1063.751747 1066.318710
143.480000 1062.060637 1062.770757 1063.719938 1064.144063 1065.474581 1068.167450
143.580000 1062.763459 1063.547234 1065.056341 1065.412214 1067.139871 1070.066610
143.680000 1063.538254 1064.603547 1066.462772 1066.810804 1068.796297 1072.289354
143.819333 1064.624790 1066.270786 1068.897991 1069.054015 1071.848845 1075.058068
143.958667 1065.696906 1068.097743 1071.173970 1071.364681 1074.411580 1078.366682
144.098000 1066.705240 1070.036571 1073.564671 1073.638864 1077.159646 1080.835610
144.237333 1067.931933 1072.047627 1075.994198 1075.954925 1079.810369 1083.664097
144.376667 1069.075870 1074.240472 1078.483918 1078.301659 1082.355607 1086.299668
144.516000 1070.171834 1076.563587 1080.831832 1080.664446 1084.884337 1089.169987
144.655333 1071.301459 1079.155874 1083.356263 1083.204432 1087.705593 1091.653286
144.794667 1073.276825 1081.606134 1085.962010 1085.686564 1090.296103 1094.218932
144.934000 1073.954997 1084.199916 1088.437467 1088.050077 1092.630694 1096.449951
145.073333 1075.021276 1086.824119 1090.924770 1090.593415 1095.161176 1098.476763
145.212667 1076.077944 1089.515741 1093.635426 1093.087707 1097.675500 1100.637026
145.352000 1076.890002 1092.070487 1096.488898 1095.677058 1100.156851 1102.761240
145.491333 1077.770280 1094.890468 1099.303689 1098.232363 1102.425008 1104.294008
145.630667 1078.853604 1098.266703 1102.185240 1100.833634 1104.239728 1105.654379
145.770000 1080.026570 1102.678429 1104.690053 1103.318992 1105.928727 1107.084289
145.870000 1080.932775 1104.176893 1106.111949 1104.829108 1107.341021 1108.453706
145.970000 1081.516750 1105.837388 1107.425066 1106.244751 1108.674568 1109.887145
146.070000 1082.394661 1107.394821 1108.653554 1107.596392 1109.840402 1110.951980
146.170000 1083.360801 1108.324370 1109.590410 1108.515645 1110.731988 1111.748992
146.270000 1084.050271 1109.093848 1110.462040 1109.327039 1111.569799 1112.428537
146.370000 1084.817708 1109.854006 1111.301132 1110.120960 1112.314086 1113.191678
146.470000 1085.914361 1110.662252 1112.023734 1110.867325 1112.980087 1113.869101
146.570000 1086.914970 1111.507250 1112.724541 1111.588541 1113.626112 1114.455501
146.670000 1087.783417 1112.409633 1113.464161 1112.348563 1114.324491 1115.090476
146.770000 1088.732854 1113.147046 1114.262141 1113.137158 1115.087917 1116.078368
146.870000 1090.076716 1113.868889 1114.964000 1113.949134 1115.900051 1116.938705
146.970000 1091.385068 1114.676437 1115.778048 1114.776486 1116.725023 1117.917048
147.070000 1093.131861 1115.422670 1116.534472 1115.608603 1117.644035 1118.916421
147.170000 1094.759402 1116.171137 1117.339154 1116.459693 1118.538497 1119.919657
147.270000 1095.873563 1116.875854 1118.100046 1117.303354 1119.529196 1121.064993
147.411176 1098.762487 1117.950485 1119.272488 1118.648249 1121.013788 1123.337667
147.552353 1100.744509 1118.945770 1120.477858 1119.943504 1122.435378 1125.164893
147.693529 1103.696578 1120.036279 1121.591801 1121.283447 1123.861553 1126.960078
147.834706 1105.516132 1121.166753 1122.970183 1122.672082 1125.367626 1128.966918
147.975882 1108.776214 1122.258502 1124.251542 1124.033025 1127.005654 1130.967285
148.117059 1111.935899 1123.336252 1125.487197 1125.425242 1128.644027 1132.546509
148.258235 1115.295088 1124.512620 1126.849481 1126.834807 1130.139401 1133.891597
148.399412 1117.186232 1125.668870 1128.259421 1128.264674 1131.592511 1135.421088
148.540588 1119.165678 1126.852265 1129.632183 1129.639994 1133.030704 1137.081948
148.681765 1122.271918 1128.009812 1130.980189 1131.042930 1134.690886 1138.583093
148.822941 1125.274964 1129.232896 1132.366791 1132.487472 1136.270180 1139.918794
148.964118 1127.071109 1130.493805 1133.918075 1133.921787 1137.797139 1141.336708
149.105294 1129.112020 1131.729717 1135.334457 1135.333001 1139.308077 1142.633278
149.246471 1130.465706 1133.031402 1136.579578 1136.732614 1140.813417 1143.995375
149.387647 1131.912383 1134.322509 1137.982703 1138.156925 1142.049616 1145.526770
149.528824 1133.328013 1135.734438 1139.387093 1139.595355 1143.419675 1146.958553
149.670000 1134.774036 1137.247338 1141.025673 1141.051283 1144.801412 1148.452560
149.812500 1136.241948 1138.624412 1142.541770 1142.522837 1146.121338 1150.051559
149.955000 1137.410243 1140.269831 1144.011316 1143.996073 1147.464329 1151.759122
150.097500 1138.704696 1141.712979 1145.475684 1145.472739 1148.728250 1153.605240
150.240000 1139.922924 1143.252361 1146.929574 1146.944366 1150.161784 1155.534546
150.382500 1141.462172 1145.113537 1148.286236 1148.410056 1151.511987 1156.733822
150.525000 1143.159466 1146.798812 1149.591463 1149.921026 1153.031292 1157.982855
150.667500 1145.755619 1148.498672 1150.848075 1151.488815 1154.547480 1159.341092
150.810000 1147.358505 1150.283837 1152.283421 1153.087626 1156.390782 1161.202492
150.870000 1148.451488 1150.998772 1153.070257 1153.847286 1157.105086 1161.814434
150.970000 1149.995743 1152.089965 1154.374423 1155.140347 1158.526950 1162.874149
151.070000 1151.352122 1153.147904 1156.018616 1156.539525 1160.086279 1164.829214
151.170000 1152.667102 1154.279255 1157.369179 1157.888964 1161.403078 1166.260222
151.290000 1153.532810 1155.396473 1159.212303 1159.521321 1163.304080 1167.840052
151.410000 1154.404428 1156.491937 1161.134513 1161.155732 1165.070524 1169.806894
151.510000 1155.368727 1157.783957 1162.760912 1162.573108 1166.449904 1172.015971
151.610000 1156.150154 1158.977435 1164.157633 1163.992501 1167.807572 1173.884774
151.710000 1157.125462 1160.590660 1166.145023 1165.594369 1169.250906 1175.971643
151.810000 1158.037488 1162.355406 1167.712929 1167.252104 1170.881765 1177.616046
151.910000 1159.245837 1164.530832 1169.553237 1169.101535 1172.878983 1179.173207
152.010000 1160.741910 1166.406049 1171.466735 1170.968894 1174.433687 1181.158622
152.110000 1162.335243 1168.849639 1173.255868 1172.836972 1176.262217 1183.301035
152.210000 1164.187085 1171.394745 1175.158911 1174.822070 1178.159641 1185.003280
152.310000 1166.751778 1174.359870 1177.163424 1177.000640 1179.991068 1186.871236
152.428000 1170.668596 1176.999395 1180.569750 1180.549309 1184.540350 1188.987440
152.546000 1176.186955 1180.688024 1184.365575 1184.358387 1188.262275 1191.630790
152.664000 1181.382390 1184.625432 1188.177543 1188.099497 1191.722133 1193.567479
152.782000 1186.156264 1188.788672 1192.339048 1191.728698 1194.084092 1195.160965
152.900000 1193.476768 1194.274905 1195.033386 1195.096986 1195.756336 1196.665611
152.910000 1193.607104 1194.406183 1195.147782 1195.215417 1195.852310 1196.748285
153.028000 1194.607780 1195.370863 1196.146897 1196.234711 1196.932870 1198.012602
153.146000 1195.432001 1196.231548 1197.028492 1197.173199 1198.021244 1199.485006
153.264000 1196.154868 1197.055168 1197.946671 1198.086241 1198.955096 1200.725602
153.382000 1197.051065 1197.897543 1198.826767 1198.986489 1199.941959 1202.366275
153.500000 1197.927851 1198.718667 1199.714186 1199.866163 1200.812506 1203.569957
153.642105 1198.733793 1199.672495 1200.756921 1200.920064 1201.990796 1204.696046
153.784211 1199.567252 1200.611076 1201.780876 1201.954916 1203.174733 1205.832842
153.926316 1200.394425 1201.622397 1202.847626 1202.989517 1204.261059 1206.720275
154.068421 1201.059146 1202.635720 1203.893646 1204.035504 1205.356198 1207.823077
154.210526 1202.009144 1203.603400 1204.994851 1205.077178 1206.532440 1208.720821
154.352632 1202.803932 1204.610199 1206.002760 1206.113483 1207.649945 1209.838197
154.494737 1203.674647 1205.652810 1207.059902 1207.153513 1208.681007 1210.910510
154.636842 1204.530599 1206.670995 1208.149836 1208.213103 1209.763308 1211.952051
154.778947 1205.272361 1207.657328 1209.215004 1209.228544 1210.812957 1213.001062
154.921053 1206.102677 1208.673517 1210.253899 1210.258952 1211.919200 1213.788673
155.063158 1207.123122 1209.707105 1211.272742 1211.287233 1213.030059 1214.933442
155.205263 1208.060874 1210.768654 1212.336129 1212.300559 1214.013895 1215.899038
155.347368 1208.748039 1211.790077 1213.340684 1213.319539 1215.031705 1216.832875
155.489474 1209.621548 1212.731538 1214.465493 1214.361784 1216.073517 1217.723754
155.631579 1210.672897 1213.719463 1215.481780 1215.359039 1217.088232 1218.483080
155.773684 1211.949542 1214.776858 1216.569966 1216.405526 1218.129615 1219.560112
155.915789 1213.124600 1215.851759 1217.662397 1217.455443 1219.093118 1220.529767
156.057895 1214.979269 1216.953401 1218.717893 1218.536436 1220.097365 1221.412780
156.200000 1216.343850 1218.095099 1219.777082 1219.629356 1221.102688 1222.474192
156.320000 1217.470844 1219.181557 1220.765219 1220.661171 1222.061197 1223.534955
156.440000 1218.750011 1220.349555 1221.778878 1221.727841 1223.052175 1224.404874
156.560000 1219.949427 1221.478734 1222.826210 1222.806897 1224.099220 1225.491702
156.680000 1221.476016 1222.760883 1223.904936 1223.927191 1225.130059 1226.439231
156.800000 1222.774109 1223.927544 1224.976295 1225.038307 1226.186678 1227.539694
156.920000 1223.775791 1224.873128 1226.040330 1226.133935 1227.373891 1228.955931
157.040000 1224.694062 1225.823466 1227.060559 1227.191059 1228.597935 1230.326444
157.160000 1225.543054 1226.770221 1228.134014 1228.286562 1229.821570 1231.821066
157.280000 1226.488697 1227.787290 1229.266559 1229.402174 1231.044391 1232.979030
157.400000 1227.528415 1228.784150 1230.375134 1230.529989 1232.271215 1234.361357
157.528571 1228.468948 1229.882035 1231.646838 1231.741265 1233.615503 1235.300594
157.657143 1229.690163 1231.083566 1232.942008 1232.958548 1234.798841 1236.554643
157.785714 1230.828777 1232.329607 1234.240341 1234.206672 1236.013557 1237.595557
157.914286 1232.104225 1233.699360 1235.586202 1235.500161 1237.257830 1238.817539
158.042857 1233.529871 1235.256741 1236.921244 1236.848111 1238.424524 1239.775052
158.171429 1235.169866 1236.889249 1238.337383 1238.232109 1239.620862 1240.767490
158.300000 1237.010334 1238.640438 1239.814598 1239.746018 1240.904682 1241.966099
158.400000 1238.442525 1240.071514 1241.513093 1241.587610 1243.159767 1244.927985
158.500000 1239.709497 1241.646409 1243.555677 1243.514242 1245.365816 1247.303530
158.600000 1241.393959 1243.733846 1245.545328 1245.506303 1247.254340 1249.198070
158.733333 1242.861274 1245.337541 1247.473694 1247.456980 1249.587217 1252.184660
158.866667 1244.077697 1246.851425 1249.260229 1249.277036 1251.708882 1254.413501
159.000000 1245.530623 1248.351225 1251.088228 1251.128153 1253.842115 1256.427423
159.133333 1247.300537 1250.019203 1252.846231 1252.892032 1255.711193 1258.687415
159.266667 1249.042092 1251.779305 1254.586429 1254.621056 1257.517047 1260.363351
159.400000 1250.390086 1253.680019 1256.277685 1256.354077 1259.199549 1262.355458
159.533333 1252.558114 1255.400562 1258.043898 1258.115440 1260.800946 1263.581225
159.666667 1254.393800 1257.196594 1259.844232 1259.791209 1262.395189 1264.998246
159.800000 1256.649641 1259.133373 1261.619008 1261.550385 1263.991546 1265.930729
159.933333 1258.709255 1261.209483 1263.587994 1263.454476 1265.657995 1267.357210
160.066667 1261.020302 1263.414439 1265.425984 1265.304830 1267.291454 1268.864979
160.200000 1263.379672 1265.400960 1266.976841 1267.001937 1268.699524 1270.187824
160.300000 1264.340485 1266.440544 1267.935027 1267.917617 1269.536175 1271.052669
160.400000 1265.142259 1267.251828 1268.777201 1268.753897 1270.363704 1271.832324
160.500000 1266.036945 1267.993942 1269.595381 1269.534065 1271.183863 1272.600037
160.600000 1266.809411 1268.749003 1270.391873 1270.302341 1271.946617 1273.305439
160.740000 1267.994619 1269.827846 1271.412200 1271.376077 1272.982508 1274.135796
160.880000 1269.080494 1270.860395 1272.483781 1272.415863 1273.995608 1275.162147
161.020000 1270.123565 1271.932330 1273.530844 1273.464169 1274.961201 1276.195973
161.160000 1271.382787 1273.024342 1274.600418 1274.503172 1275.976831 1277.017994
161.300000 1272.492488 1274.115371 1275.675117 1275.564340 1276.957480 1278.067202
161.400000 1273.438564 1275.086040 1276.529900 1276.423914 1277.770418 1278.770567
161.500000 1274.254870 1276.111752 1277.397496 1277.300117 1278.580336 1279.437616
161.600000 1275.375977 1277.133158 1278.388213 1278.224841 1279.374384 1280.133854
161.700000 1276.440706 1278.090443 1279.292943 1279.161839 1280.231853 1281.056097
161.760000 1277.068453 1278.718834 1279.921948 1279.757608 1280.797321 1281.605875
161.800000 1277.604567 1279.230730 1280.399379 1280.224343 1281.249171 1281.989190
161.860000 1278.502245 1280.056625 1281.136165 1280.989092 1281.968017 1282.629171
162.000000 1280.932382 1282.281756 1283.226844 1283.221586 1284.249577 1285.514363
162.060000 1281.469080 1282.902822 1283.986368 1284.013631 1285.169416 1286.524861
162.160000 1282.040718 1283.643922 1284.831218 1285.021193 1286.213858 1290.254956
162.260000 1282.693623 1284.411503 1285.791236 1286.114420 1287.311130 1294.562521
162.385000 1283.874532 1286.060431 1288.337865 1288.815456 1291.726282 1296.767393
162.510000 1285.185054 1288.693679 1291.839398 1291.976604 1295.340096 1298.958775
