depth(m) lower_95(kyr) lower_68(kyr) median(kyr) mean(kyr) upper_68(kyr) upper_95(kyr)
28.175000 997.692883 998.319974 998.899327 998.882231 999.444715 999.952090
28.215000 998.322226 998.911351 999.460476 999.443822 999.974717 1000.427669
28.255000 998.924295 999.467935 999.995890 999.977794 1000.471670 1000.915980
28.295000 999.423457 1000.042495 1000.555707 1000.525121 1000.991665 1001.464805
28.335000 1000.005774 1000.621563 1001.099063 1001.087495 1001.551873 1002.055177
28.375000 1000.685821 1001.207030 1001.666444 1001.672266 1002.130187 1002.656552
28.415000 1001.328098 1001.810273 1002.250302 1002.275854 1002.703099 1003.380583
28.455000 1001.810684 1002.375300 1002.825787 1002.859703 1003.283426 1004.112646
28.495000 1002.383730 1002.890512 1003.386726 1003.430258 1003.929796 1004.879890
28.535000 1002.969980 1003.465323 1003.954666 1004.012635 1004.519599 1005.534992
28.575000 1003.402291 1004.024251 1004.561556 1004.613177 1005.212510 1006.159164
28.615000 1003.965184 1004.607792 1005.150439 1005.230111 1005.903234 1006.778758
28.655000 1004.586437 1005.159260 1005.779619 1005.883279 1006.685979 1007.513875
28.695000 1005.221426 1005.785214 1006.444978 1006.552100 1007.404850 1008.257732
28.735000 1005.815199 1006.414439 1007.121869 1007.219870 1008.078069 1009.037703
28.775000 1006.370807 1007.014518 1007.847350 1007.910980 1008.832709 1009.690075
28.815000 1006.956161 1007.657006 1008.579837 1008.606067 1009.560844 1010.581714
28.855000 1007.602755 1008.366711 1009.324404 1009.333049 1010.257199 1011.354158
28.895000 1008.258319 1009.089428 1010.062034 1010.088728 1011.076033 1012.296918
28.935000 1008.971429 1009.835935 1010.844728 1010.896430 1011.991124 1013.066094
28.975000 1009.551003 1010.571953 1011.655232 1011.714826 1012.839096 1014.036100
29.015000 1010.352725 1011.300302 1012.458200 1012.479454 1013.638210 1014.817037
29.055000 1011.023565 1012.086261 1013.330044 1013.299240 1014.476661 1015.732043
29.095000 1011.676197 1012.860166 1014.118924 1014.091853 1015.262085 1016.526581
29.135000 1012.473979 1013.645306 1015.016431 1014.933953 1016.145249 1017.343837
29.175000 1013.285637 1014.565553 1015.851987 1015.799162 1016.984223 1018.079533
29.215000 1014.090598 1015.428678 1016.750670 1016.704873 1017.913137 1019.042797
29.255000 1014.895195 1016.318305 1017.655208 1017.629383 1018.863484 1020.432699
29.295000 1015.957737 1017.368564 1018.586291 1018.687459 1020.013490 1021.946876
29.335000 1016.966528 1018.373627 1019.678323 1019.807436 1021.293872 1023.439014
29.375000 1018.077555 1019.460350 1020.945070 1021.077522 1022.748768 1024.476695
29.415000 1019.046081 1020.493848 1022.191343 1022.251617 1024.010096 1025.605472
29.455000 1020.193933 1021.781524 1023.426459 1023.497231 1025.278307 1026.574895
29.495000 1021.249365 1023.037133 1024.828108 1024.730694 1026.439875 1027.617219
29.535000 1022.663776 1024.411922 1026.255878 1026.059459 1027.718737 1028.610731
29.575000 1023.881347 1025.737845 1027.382942 1027.184345 1028.631738 1029.492164
29.615000 1025.197790 1026.884161 1028.278785 1028.143130 1029.397954 1030.227194
29.655000 1026.527720 1027.896507 1029.209195 1029.029292 1030.098350 1030.887177
29.695000 1027.569693 1028.773180 1029.943411 1029.820991 1030.813500 1031.552349
29.735000 1028.548307 1029.718692 1030.670193 1030.624635 1031.582799 1032.357714
29.775000 1029.421760 1030.539512 1031.439169 1031.414084 1032.314030 1033.230264
29.815000 1030.688998 1031.612102 1032.471925 1032.517854 1033.402893 1034.650159
29.855000 1031.978069 1032.742639 1033.682937 1033.827667 1034.876834 1036.657370
29.895000 1033.124364 1034.050856 1035.213513 1035.359118 1036.690997 1038.593373
29.935000 1033.998746 1035.106593 1036.424780 1036.567801 1038.121088 1039.803589
29.975000 1034.897229 1035.975046 1037.431918 1037.592096 1039.251549 1040.921088
30.015000 1035.602588 1036.931528 1038.498357 1038.615387 1040.354327 1042.044538
30.055000 1036.501788 1037.890377 1039.554535 1039.610424 1041.359070 1043.065571
30.095000 1037.280579 1038.910590 1040.635793 1040.639592 1042.358312 1043.872817
30.135000 1038.200264 1039.886860 1041.728689 1041.665701 1043.335421 1044.853388
30.175000 1039.108614 1040.906163 1042.739743 1042.664042 1044.354303 1045.740426
30.215000 1040.226641 1041.967793 1043.713578 1043.638525 1045.233222 1046.740560
30.255000 1041.198519 1042.965875 1044.648141 1044.588039 1046.181146 1047.886437
30.295000 1042.429883 1043.964019 1045.534605 1045.538107 1047.084113 1048.986528
30.335000 1043.472031 1044.910507 1046.479706 1046.458094 1047.929018 1049.915524
30.375000 1044.578678 1045.960910 1047.477925 1047.521006 1049.039885 1050.811621
30.415000 1045.363521 1046.858750 1048.468527 1048.471748 1050.021509 1051.975422
30.455000 1046.290491 1047.780937 1049.416956 1049.450547 1051.156296 1052.915344
30.495000 1047.191346 1048.727664 1050.458164 1050.482229 1052.186590 1053.959865
30.535000 1048.329828 1049.927849 1051.649588 1051.640881 1053.364435 1054.870309
30.575000 1049.563566 1051.130151 1053.016951 1052.901587 1054.578660 1055.883500
30.615000 1050.961484 1052.706952 1054.430939 1054.333892 1055.885542 1056.995042
30.655000 1052.806609 1054.487114 1055.968908 1055.875437 1057.290608 1058.420282
30.695000 1054.559432 1056.063990 1057.336523 1057.324818 1058.699388 1059.849079
30.735000 1056.000660 1057.357838 1058.694308 1058.687281 1060.046025 1061.206461
30.775000 1057.297245 1058.434827 1059.904913 1059.879258 1061.295350 1062.308121
30.815000 1058.533903 1059.664531 1061.233763 1061.123233 1062.488868 1063.338407
30.855000 1059.212755 1060.678569 1062.378893 1062.144402 1063.425690 1064.126168
30.895000 1060.144659 1061.473064 1063.248246 1062.968929 1064.208652 1064.894715
30.935000 1060.807941 1062.276446 1063.998141 1063.716040 1064.936776 1065.584549
30.975000 1061.523096 1062.962563 1064.735285 1064.416145 1065.552387 1066.224342
31.015000 1062.111958 1063.569534 1065.411771 1065.070374 1066.172200 1066.815046
31.055000 1062.681996 1064.178425 1066.047993 1065.716179 1066.808140 1067.557240
31.095000 1063.270217 1064.809834 1066.722315 1066.355129 1067.476615 1068.174585
31.135000 1063.857045 1065.399818 1067.329007 1066.979929 1068.089201 1068.808796
31.175000 1064.479901 1066.022679 1067.970455 1067.597431 1068.715254 1069.400941
31.215000 1064.976038 1066.620298 1068.579318 1068.201307 1069.333795 1070.078818
31.255000 1065.588433 1067.181238 1069.165057 1068.815351 1069.954097 1070.657942
31.295000 1066.137896 1067.752870 1069.821263 1069.428637 1070.587444 1071.285493
31.335000 1066.771869 1068.444319 1070.431493 1070.048135 1071.175703 1071.952034
31.375000 1067.413324 1069.129592 1071.034445 1070.671582 1071.826981 1072.511891
31.415000 1067.949566 1069.750588 1071.642413 1071.282440 1072.387706 1073.091110
31.455000 1068.549275 1070.498285 1072.226937 1071.894528 1073.022717 1073.702614
31.495000 1069.259430 1071.209616 1072.877995 1072.530590 1073.627461 1074.340495
31.535000 1069.876126 1071.852194 1073.501014 1073.174969 1074.271659 1075.070854
31.575000 1070.470611 1072.570077 1074.126513 1073.831636 1074.951305 1075.890863
31.615000 1071.087443 1073.163320 1074.778706 1074.510412 1075.676905 1076.626452
31.655000 1071.785527 1073.943187 1075.497455 1075.273119 1076.542949 1077.613861
31.695000 1072.527900 1074.692687 1076.248527 1076.046071 1077.331400 1078.662825
31.735000 1073.379330 1075.510300 1077.079111 1076.918104 1078.350636 1079.721325
31.775000 1074.050618 1076.243397 1077.873638 1077.779698 1079.325486 1080.816064
31.815000 1074.910435 1077.188279 1078.793217 1078.774835 1080.431765 1082.066699
31.855000 1075.837186 1078.332630 1080.046066 1079.983947 1081.735702 1083.561577
31.895000 1077.207253 1079.657734 1081.494596 1081.478682 1083.388564 1085.422851
31.935000 1079.144225 1081.218349 1083.061424 1083.128751 1085.072851 1087.209262
31.975000 1080.887726 1082.996659 1084.857966 1084.913458 1086.936842 1088.970226
32.015000 1082.413352 1084.563082 1086.545309 1086.509989 1088.501210 1090.209471
32.055000 1084.166646 1086.098219 1088.099215 1088.035540 1089.899466 1091.757978
32.095000 1085.772353 1087.719144 1089.650881 1089.618651 1091.500894 1093.189230
32.135000 1087.549647 1089.459103 1091.376455 1091.255987 1093.064547 1094.409105
32.175000 1089.220255 1091.059007 1093.063565 1092.848752 1094.532825 1095.570266
32.215000 1091.020147 1093.077505 1094.689069 1094.487592 1095.897304 1096.817851
32.255000 1093.081478 1094.751510 1095.982313 1095.859169 1096.986518 1097.868540
32.295000 1094.572074 1095.991086 1097.048317 1097.000668 1098.060810 1098.925808
32.335000 1095.604599 1096.938118 1097.969961 1097.925422 1098.967979 1099.824036
32.375000 1096.577127 1097.814446 1098.841792 1098.779376 1099.764337 1100.735610
32.415000 1097.675046 1098.664038 1099.684325 1099.669296 1100.580519 1101.616085
32.455000 1098.622433 1099.598445 1100.576601 1100.558309 1101.475252 1102.363256
32.495000 1099.401933 1100.519443 1101.449547 1101.428222 1102.320493 1103.299240
32.535000 1100.233942 1101.380369 1102.356932 1102.323929 1103.291493 1104.264266
32.575000 1101.093348 1102.302719 1103.267673 1103.239996 1104.177313 1105.136592
32.615000 1102.224697 1103.370434 1104.309686 1104.303292 1105.256071 1106.292036
32.655000 1103.569209 1104.593904 1105.576956 1105.642606 1106.663084 1108.202447
32.695000 1105.430474 1106.397899 1107.637591 1107.761367 1109.079504 1110.914098
32.735000 1106.833769 1108.071880 1109.516725 1109.584996 1111.202815 1112.527148
32.775000 1107.982722 1109.535784 1111.271412 1111.202110 1112.814773 1114.012877
32.815000 1109.252596 1111.219061 1112.964756 1112.828881 1114.337396 1115.752739
32.855000 1111.028636 1112.999777 1114.537736 1114.446893 1115.955801 1117.481090
32.895000 1113.471837 1115.015366 1116.382270 1116.404291 1117.842909 1119.298964
32.935000 1115.762343 1117.020045 1118.366767 1118.387124 1119.706828 1121.279093
32.975000 1117.392188 1118.794736 1120.133914 1120.156116 1121.406434 1123.018940
33.015000 1119.022508 1120.304315 1121.587356 1121.656049 1122.929259 1124.892409
33.055000 1120.723118 1121.975845 1123.099162 1123.280309 1124.667541 1126.491413
33.095000 1122.302516 1123.469460 1124.743145 1124.902604 1126.448414 1128.022084
33.135000 1123.600507 1124.661963 1126.341001 1126.445760 1128.204303 1130.141292
33.175000 1124.920747 1126.220177 1128.003828 1128.067963 1129.840192 1131.554402
33.215000 1126.521223 1128.198371 1130.097254 1130.096631 1131.925062 1134.018021
33.255000 1128.937935 1130.820084 1132.908869 1133.077553 1135.296239 1138.549869
33.295000 1131.048561 1133.126714 1135.416834 1135.742585 1138.488030 1141.777531
33.335000 1133.439715 1135.394378 1138.235760 1138.489508 1141.773078 1144.998972
33.375000 1135.531625 1137.948302 1141.258966 1141.318288 1144.763862 1147.775272
33.415000 1137.626634 1140.663172 1144.389018 1144.023532 1147.068844 1149.577300
33.455000 1140.180339 1143.338155 1146.766909 1146.375780 1149.145329 1151.239856
33.495000 1142.928423 1146.090860 1148.847990 1148.594485 1150.960371 1153.169434
33.535000 1145.628199 1148.365392 1150.866251 1150.792906 1153.159148 1155.450110
33.575000 1148.139794 1151.016451 1153.224224 1153.409760 1156.029425 1159.059746
33.615000 1150.644909 1153.012628 1155.598949 1155.744904 1158.579425 1161.558159
33.655000 1152.689716 1154.807547 1157.820919 1157.871421 1160.792980 1164.204061
33.695000 1154.339268 1156.556735 1159.905850 1159.836385 1162.836043 1165.948786
33.735000 1155.822855 1158.371235 1162.008630 1161.814976 1164.818415 1168.000642
33.775000 1157.361747 1160.375199 1163.819235 1163.759237 1166.822100 1169.626891
33.815000 1159.112175 1162.435718 1165.669980 1165.598693 1168.621183 1172.279381
33.855000 1161.087516 1164.537638 1167.462385 1167.453117 1170.317885 1174.251150
33.895000 1162.859331 1166.510878 1169.252384 1169.366046 1172.215846 1176.162878
33.935000 1165.095296 1168.459751 1170.897198 1171.185553 1174.012338 1177.870154
33.975000 1167.416485 1170.286399 1172.493423 1172.969267 1176.185963 1179.468945
34.015000 1169.639292 1171.819070 1174.264280 1174.743260 1178.125850 1180.773930
34.055000 1171.200785 1173.400873 1176.313070 1176.605374 1180.045211 1182.118539
34.095000 1172.874684 1175.409367 1178.659582 1178.533431 1181.742504 1183.625020
34.135000 1174.804273 1177.300335 1180.595355 1180.370397 1183.231801 1185.010926
34.175000 1176.642364 1179.385907 1182.421409 1182.123500 1184.713220 1186.316520
34.215000 1178.468629 1181.263710 1184.125199 1183.808531 1186.270125 1187.560062
34.255000 1180.278519 1183.111523 1185.988751 1185.521571 1187.785732 1188.713313
34.295000 1182.382932 1185.244904 1187.616418 1187.219724 1189.070918 1189.908447
34.335000 1184.357923 1187.401427 1189.394589 1188.962229 1190.516374 1191.328561
34.375000 1186.901840 1189.559375 1190.880972 1190.697111 1191.901322 1193.139779
34.415000 1191.657710 1192.302720 1193.266731 1193.400108 1194.543207 1195.857933
34.455000 1192.955021 1193.794875 1194.938831 1195.141491 1196.538026 1198.405308
34.495000 1194.129417 1194.975253 1196.270624 1196.546822 1198.248270 1200.503708
34.535000 1195.208522 1196.163217 1197.538793 1197.848853 1199.679892 1201.941274
34.575000 1196.240564 1197.425824 1199.023781 1199.275006 1201.237122 1203.122853
34.615000 1197.378072 1198.712774 1200.495450 1200.661655 1202.804029 1204.412156
34.655000 1198.789158 1199.988695 1201.852147 1201.980636 1204.085285 1205.553024
34.695000 1200.413448 1201.501300 1203.237407 1203.391357 1205.293550 1206.994956
34.735000 1201.671724 1202.916698 1204.725643 1204.773420 1206.556112 1208.155346
34.775000 1202.993019 1204.457192 1206.237266 1206.199196 1207.785375 1209.452340
34.815000 1204.626819 1206.172316 1207.770680 1207.829165 1209.287049 1211.637865
34.855000 1206.415811 1207.967297 1209.293371 1209.600336 1211.223463 1215.109909
34.895000 1208.230908 1209.866693 1211.367056 1211.747416 1213.771921 1217.023061
34.935000 1209.753943 1211.585724 1213.899998 1214.051182 1216.537453 1218.729568
34.975000 1211.194034 1213.469258 1216.434108 1216.231732 1218.902544 1220.689188
35.015000 1212.785764 1215.525503 1218.797286 1218.457243 1221.162669 1222.720082
35.055000 1215.056678 1218.107786 1220.917914 1220.565062 1222.981151 1224.439159
35.135000 1221.861781 1223.633230 1225.194710 1225.229861 1226.783725 1228.555054
35.175000 1224.145165 1225.525706 1226.960956 1227.071332 1228.549745 1230.535212
35.215000 1225.823185 1227.083480 1228.635885 1228.690391 1230.325196 1232.102340
35.255000 1227.204568 1228.481877 1230.100199 1230.168416 1231.909935 1233.497602
35.295000 1228.450998 1229.880809 1231.540336 1231.576551 1233.342223 1234.803882
35.335000 1229.637375 1231.344963 1232.903708 1232.968799 1234.743984 1235.965155
35.375000 1230.931013 1232.677802 1234.324800 1234.318304 1235.977779 1237.243188
35.415000 1232.237313 1234.050690 1235.680017 1235.629899 1237.290056 1238.358333
35.455000 1233.684006 1235.373667 1237.057503 1236.934237 1238.447146 1239.652472
35.495000 1235.125690 1236.739414 1238.435121 1238.289087 1239.707652 1240.914439
35.535000 1236.583935 1238.264892 1239.785653 1239.641388 1240.971460 1242.051134
35.575000 1238.125488 1239.857567 1241.147797 1241.034525 1242.242314 1243.216529
35.615000 1240.017281 1241.633369 1242.749797 1242.657473 1243.703594 1244.693772
35.655000 1242.380038 1243.491645 1244.439983 1244.455718 1245.423639 1246.613904
35.695000 1244.253924 1245.100813 1246.050051 1246.194349 1247.227996 1249.154967
35.735000 1245.622401 1246.558095 1247.626011 1247.846986 1249.152607 1251.435544
35.775000 1247.273602 1248.255653 1249.624557 1249.856591 1251.452524 1253.769635
35.815000 1248.917141 1250.103139 1251.832645 1251.913288 1253.684243 1255.553140
35.855000 1250.631807 1252.165059 1254.052017 1254.113613 1255.948775 1257.876947
35.895000 1252.973272 1254.650289 1256.774975 1256.792493 1258.825967 1261.230901
35.935000 1255.434574 1257.553576 1259.616464 1259.692365 1261.881232 1264.042169
35.975000 1257.574247 1259.868386 1262.038660 1262.106218 1264.450730 1266.660981
36.015000 1259.342167 1261.816106 1264.293273 1264.310697 1266.752150 1269.588405
36.055000 1262.050698 1264.285621 1267.071392 1267.101362 1269.830024 1273.552227
36.095000 1263.944745 1266.360075 1269.507121 1269.506346 1272.508304 1275.758439
36.135000 1266.927553 1269.432870 1272.512456 1272.478114 1275.605683 1278.117741
36.175000 1269.721775 1272.507717 1275.530960 1275.420269 1278.417302 1280.263518
36.215000 1272.316659 1275.308863 1278.334853 1278.068466 1280.801275 1282.245023
36.255000 1275.434605 1278.960810 1281.128528 1280.835937 1282.785713 1284.185293
36.295000 1280.086218 1282.457522 1283.880816 1283.719654 1284.992444 1286.125661
36.335000 1283.124120 1284.473009 1285.633715 1285.602668 1286.706199 1287.920772
36.375000 1284.930570 1286.088941 1287.151312 1287.160587 1288.211859 1289.569458
36.415000 1286.452548 1287.442425 1288.380942 1288.516072 1289.615244 1291.112591
36.455000 1287.737621 1288.724929 1289.676118 1289.821893 1290.954989 1292.474864
36.495000 1288.964282 1289.876279 1290.996431 1291.097729 1292.314981 1293.786124
36.535000 1290.200834 1291.127542 1292.245439 1292.397369 1293.827848 1295.330274
36.575000 1291.421249 1292.314546 1293.668634 1293.820544 1295.309524 1297.113829
36.615000 1292.790382 1293.869526 1295.352773 1295.540435 1297.306669 1299.167376
36.655000 1294.318152 1295.649763 1297.470018 1297.591101 1299.580980 1301.427953
36.695000 1296.210810 1298.077459 1300.228289 1300.242098 1302.309795 1304.546566
36.735000 1298.372765 1300.625548 1302.860307 1302.826490 1304.926411 1307.124619
36.775000 1300.754706 1302.991269 1305.170957 1305.115866 1307.246216 1309.393497
36.815000 1303.164590 1305.180444 1307.328192 1307.415144 1309.635086 1312.398998
36.855000 1305.660225 1307.392497 1309.706925 1309.815354 1312.271713 1314.917694
36.895000 1308.012660 1309.722112 1312.366608 1312.395286 1315.076135 1317.378344
36.935000 1310.058413 1312.219410 1315.041383 1314.944613 1317.519635 1319.744471
36.975000 1312.443236 1314.968499 1318.003909 1317.786781 1320.293251 1322.535681
37.015000 1315.286119 1318.346893 1320.772192 1320.639982 1323.107278 1324.837489
37.055000 1318.933646 1321.441274 1323.776021 1323.632251 1325.829292 1327.833812
37.095000 1321.772975 1324.131999 1326.537229 1326.387457 1328.626867 1330.079939
37.135000 1323.742067 1326.153758 1328.438934 1328.370066 1330.656026 1332.430710
37.175000 1325.343987 1327.683068 1330.097024 1329.976987 1332.237897 1333.982124
37.215000 1327.137186 1329.396395 1331.758608 1331.605549 1333.751893 1335.513389
37.255000 1329.036892 1331.013501 1333.262570 1333.149785 1335.235865 1336.947911
37.295000 1330.612392 1332.694851 1334.828356 1334.718050 1336.630290 1338.114768
37.335000 1332.219243 1334.345487 1336.337545 1336.184141 1337.932404 1339.391847
37.375000 1333.988598 1336.061119 1337.844077 1337.692102 1339.350940 1340.519797
37.415000 1335.468277 1337.700992 1339.448896 1339.238402 1340.792337 1341.924309
37.455000 1337.157207 1339.325960 1340.833919 1340.732639 1342.153728 1343.548566
37.495000 1338.697055 1340.824953 1342.259011 1342.205246 1343.673868 1344.975962
37.535000 1341.563627 1342.769341 1344.191045 1344.184747 1345.595919 1346.839573
37.575000 1343.208989 1344.340766 1345.685993 1345.749610 1347.155637 1348.535022
37.615000 1344.527316 1345.613403 1346.975301 1347.025965 1348.445866 1349.738233
37.655000 1345.606475 1346.678466 1348.061252 1348.102553 1349.515295 1350.681764
37.695000 1346.720790 1347.650725 1349.086326 1349.125799 1350.628480 1351.694746
37.735000 1347.644781 1348.637123 1350.074084 1350.115567 1351.595194 1352.781307
37.775000 1348.639999 1349.620162 1351.003635 1351.076716 1352.575306 1353.680586
37.815000 1349.584552 1350.576608 1351.971744 1352.036904 1353.594021 1354.615021
37.855000 1350.448109 1351.527390 1352.956320 1353.000028 1354.516922 1355.586885
37.895000 1351.495030 1352.537225 1353.995190 1353.971494 1355.447778 1356.411471
