depth(m) lower_95(kyr) lower_68(kyr) median(kyr) mean(kyr) upper_68(kyr) upper_95(kyr)
52.300000 1508.647267 1511.232123 1513.784974 1513.950641 1516.875528 1519.977667
52.400000 1512.169721 1514.392749 1516.571282 1516.810643 1519.492556 1522.251200
52.500000 1515.691818 1517.494105 1519.637219 1519.764851 1522.195063 1524.462411
52.600000 1518.569121 1520.541007 1522.769594 1522.762936 1525.002780 1526.823965
52.700000 1521.864625 1524.004551 1525.997746 1525.961589 1527.930994 1529.555048
52.800000 1525.464285 1527.349979 1529.150510 1529.066992 1530.750111 1532.360378
52.900000 1529.075914 1530.760058 1532.221960 1532.200853 1533.644912 1535.510550
53.000000 1533.211194 1534.493932 1535.833098 1535.915261 1537.343600 1538.988612
53.100000 1536.449167 1537.790111 1539.309557 1539.226668 1540.604293 1541.845310
53.200000 1539.657241 1541.467554 1542.706765 1542.679462 1543.983818 1545.244648
53.300000 1542.009712 1543.743967 1545.301731 1545.287744 1546.804755 1548.521411
53.400000 1544.174867 1545.801654 1547.505272 1547.530266 1549.295186 1551.055672
53.500000 1546.159858 1547.872068 1549.625428 1549.683235 1551.538404 1553.418465
53.600000 1548.146466 1549.984374 1551.856916 1551.824466 1553.703713 1555.301267
53.700000 1550.431596 1552.158207 1554.083032 1554.042292 1555.876720 1557.653672
53.800000 1552.805134 1554.511356 1556.465993 1556.422216 1558.133916 1560.197020
53.900000 1555.112742 1557.054812 1559.075180 1559.131638 1561.192988 1563.374454
54.000000 1558.005704 1559.864339 1562.071886 1562.038280 1564.193220 1566.235424
54.100000 1560.823534 1563.215349 1565.393071 1565.301242 1567.420612 1569.176922
54.200000 1564.411127 1566.941937 1569.467314 1569.730531 1572.286372 1576.794959
54.300000 1569.875341 1572.000559 1574.092215 1574.609548 1577.835910 1580.521632
54.400000 1573.457980 1576.008172 1578.784031 1578.771575 1581.676787 1583.433927
54.500000 1578.008245 1580.635947 1582.883300 1582.630207 1584.597943 1586.188544
54.600000 1581.778680 1584.262984 1586.119365 1585.987278 1587.661705 1589.294059
54.700000 1584.147520 1587.094622 1588.860482 1588.746887 1590.369539 1591.878161
54.800000 1586.564044 1589.815379 1591.453970 1591.321960 1592.859922 1594.389683
54.900000 1590.210830 1592.320029 1593.930723 1593.874700 1595.377124 1597.213076
55.000000 1593.719822 1595.210240 1596.902692 1597.097559 1598.895756 1601.128798
55.100000 1597.494347 1599.361331 1601.726052 1601.606978 1603.583483 1605.402131
55.200000 1600.581581 1604.130381 1606.236921 1605.977262 1607.790268 1609.801063
55.300000 1607.217941 1609.024122 1610.601519 1610.652146 1612.214512 1614.305110
55.400000 1610.497046 1612.331546 1614.044432 1614.129164 1616.001043 1618.115360
55.500000 1613.351955 1615.540225 1617.566248 1617.543419 1619.582012 1621.743941
55.600000 1615.769350 1618.321762 1620.527060 1620.414450 1622.538486 1624.517537
55.700000 1618.790783 1621.053291 1623.302696 1623.204262 1625.285348 1627.235601
55.800000 1621.472445 1623.880682 1625.940613 1625.848990 1627.733776 1630.034232
55.900000 1624.771881 1626.701955 1628.578467 1628.584215 1630.420212 1632.855913
56.000000 1627.825888 1629.903740 1631.726768 1631.825241 1633.744681 1636.839566
56.100000 1631.462452 1633.417048 1635.385239 1635.449383 1637.528100 1640.299178
56.200000 1634.700705 1637.241276 1639.441899 1639.498001 1641.700091 1644.507019
56.300000 1640.042354 1642.574860 1644.723718 1644.872996 1647.257767 1650.261601
56.400000 1643.406892 1645.951018 1648.098609 1648.231607 1650.595585 1653.034916
56.500000 1646.662399 1649.007413 1651.314110 1651.361806 1653.788638 1656.090847
56.600000 1649.336091 1651.786857 1654.155408 1654.128197 1656.526164 1658.372060
56.700000 1652.361261 1654.470663 1656.745390 1656.715382 1658.835081 1660.784532
56.800000 1654.957436 1657.452170 1659.479728 1659.466678 1661.499730 1663.659658
56.900000 1658.123397 1660.429372 1662.250063 1662.355003 1664.419221 1666.892597
57.000000 1660.896019 1663.293281 1665.398415 1665.517903 1667.809852 1670.727830
57.100000 1663.194318 1665.707114 1667.959722 1668.193892 1670.730944 1673.937412
57.200000 1665.661158 1668.131205 1670.635488 1670.827164 1673.471320 1676.821036
57.300000 1668.432513 1670.628331 1673.351071 1673.506972 1676.256843 1679.609165
57.400000 1670.894447 1673.168513 1675.957487 1676.115557 1679.082505 1682.372916
57.500000 1672.800409 1675.722663 1678.668076 1678.772854 1681.880450 1685.241454
57.600000 1675.554577 1678.308355 1681.453315 1681.447385 1684.661927 1687.768717
57.700000 1678.021482 1680.809984 1684.149008 1684.055773 1687.286156 1690.475759
57.800000 1680.589388 1683.493621 1686.888334 1686.749042 1689.968927 1693.179722
57.900000 1683.212324 1686.324872 1689.595590 1689.563883 1692.706454 1695.646153
58.000000 1686.371987 1689.595768 1692.691874 1692.631815 1695.602318 1698.538379
58.100000 1690.330773 1693.089760 1696.118878 1696.078399 1699.087306 1702.319883
58.200000 1694.082735 1696.452068 1699.278872 1699.504776 1702.569032 1705.969158
58.300000 1697.103250 1699.896830 1702.820844 1702.928708 1706.017198 1708.992530
58.400000 1700.069410 1703.104602 1706.210516 1706.201932 1709.169278 1712.578066
58.500000 1703.265277 1706.298319 1709.464139 1709.443121 1712.504246 1715.966436
58.600000 1706.591306 1709.868230 1713.199383 1713.362766 1716.669611 1721.217352
58.700000 1709.767754 1712.798569 1716.147427 1716.585046 1720.357876 1725.570730
58.800000 1712.440203 1715.755603 1719.436396 1719.719386 1723.605591 1729.417286
58.900000 1715.424817 1718.553626 1722.627303 1722.985824 1727.167970 1732.940741
59.000000 1717.900118 1721.390896 1726.301891 1726.362561 1730.948936 1736.518449
59.100000 1720.720202 1724.773376 1729.800060 1729.699254 1734.336354 1739.713753
59.200000 1723.613708 1728.225062 1733.257023 1733.138282 1737.741500 1742.888670
59.300000 1726.923027 1732.131594 1736.696054 1736.646110 1741.208275 1745.928816
59.400000 1730.669018 1735.785719 1740.294635 1740.215884 1744.604609 1748.739628
59.500000 1733.840277 1739.711542 1744.132486 1743.859564 1748.202390 1751.662658
59.600000 1737.057240 1743.333420 1747.633800 1747.190348 1751.324029 1754.506643
59.700000 1740.192033 1746.635150 1750.881594 1750.398217 1754.274100 1757.301165
59.800000 1743.909397 1749.779269 1754.276843 1753.676486 1757.404002 1760.396571
59.900000 1747.911381 1753.418691 1757.296666 1756.731128 1760.185328 1762.573527
60.000000 1752.811363 1757.574124 1760.663374 1760.288733 1763.160315 1765.451368
60.100000 1756.666387 1761.093101 1763.686467 1763.386372 1765.870334 1768.392444
60.200000 1760.462801 1764.124678 1766.401059 1766.261995 1768.682280 1770.832864
60.300000 1763.956641 1766.645803 1769.073795 1769.046598 1771.560467 1773.846077
60.400000 1766.550866 1769.310706 1771.763818 1771.795016 1774.294038 1776.537609
60.500000 1769.723643 1771.979882 1774.577315 1774.612698 1777.122660 1780.336225
60.600000 1772.431066 1775.143332 1777.743298 1777.731919 1780.189884 1783.391775
60.700000 1776.185267 1778.953803 1781.415526 1781.355371 1783.722538 1786.300188
60.800000 1781.406751 1783.695270 1785.727689 1785.664170 1787.825973 1789.396828
60.900000 1785.875147 1787.993658 1789.633648 1789.469962 1790.886476 1792.141158
61.000000 1791.376880 1792.165568 1793.042172 1793.052135 1793.930175 1794.742799
61.100000 1793.504864 1794.728274 1796.063223 1796.200226 1797.647956 1799.506389
61.200000 1795.444650 1797.071050 1798.984783 1799.340999 1801.691281 1804.731271
61.300000 1797.761603 1799.237380 1801.744985 1802.305958 1805.621431 1810.123715
61.400000 1799.830959 1801.755791 1804.535112 1805.259092 1809.014733 1814.271247
61.500000 1802.324748 1804.427781 1807.671239 1808.393995 1812.923585 1818.254374
61.600000 1805.098856 1807.273678 1810.851395 1811.690684 1816.450261 1821.567359
61.700000 1807.250090 1810.409952 1814.739205 1815.101306 1820.107076 1824.445231
61.800000 1810.256847 1813.520092 1818.435971 1818.568783 1823.684036 1827.547322
61.900000 1813.136059 1817.134355 1821.982720 1821.967274 1827.029693 1830.305198
62.000000 1816.486953 1820.613806 1825.572363 1825.365885 1830.246384 1833.054807
62.100000 1819.924524 1824.660215 1829.516217 1829.017843 1833.316501 1835.666697
62.200000 1824.540023 1829.476596 1833.407766 1832.884120 1836.286307 1837.972067
62.300000 1829.814919 1835.042554 1837.428084 1836.972771 1839.065481 1840.381289
62.400000 1838.956346 1840.001777 1840.978496 1840.954352 1841.924001 1842.703815
62.500000 1841.537308 1842.758517 1843.980529 1844.031521 1845.296590 1847.251789
62.600000 1843.406265 1845.124470 1846.676262 1846.747524 1848.489150 1850.149977
62.700000 1845.764073 1847.364321 1849.100822 1849.153435 1851.001396 1852.673078
62.800000 1847.939916 1849.603844 1851.347303 1851.410274 1853.274953 1854.964589
62.900000 1850.219226 1851.916626 1853.659769 1853.661439 1855.445288 1857.119930
63.000000 1852.468827 1854.197683 1855.924337 1855.891160 1857.530180 1859.089286
63.100000 1854.972240 1856.554843 1858.186520 1858.131522 1859.686971 1861.340937
63.200000 1857.961273 1859.194783 1860.543059 1860.535745 1861.897284 1863.308312
63.300000 1861.355761 1862.336964 1863.351859 1863.330353 1864.326951 1865.196932
63.400000 1864.051153 1865.465719 1867.135338 1867.515073 1869.348543 1873.603299
63.500000 1867.115100 1869.148914 1871.645483 1871.917778 1874.816827 1878.209107
63.600000 1869.981887 1872.749000 1875.521785 1875.666076 1878.593254 1881.545057
63.700000 1873.123747 1876.036535 1879.332234 1879.090293 1881.885659 1884.310848
63.800000 1876.226330 1879.524628 1882.468577 1882.246054 1884.906842 1887.637917
63.900000 1879.679837 1882.492748 1885.113963 1885.052103 1887.622077 1889.916123
64.000000 1882.949950 1885.395471 1887.839175 1887.795092 1890.345037 1892.351159
64.100000 1885.934594 1888.284076 1890.674535 1890.632274 1892.931577 1894.992410
64.200000 1889.131942 1891.584961 1893.925920 1893.785101 1895.922171 1898.037134
64.300000 1892.713081 1895.028798 1897.113867 1897.052469 1899.088749 1900.992586
64.400000 1897.131915 1898.948699 1900.901897 1900.932102 1902.935229 1904.834024
64.500000 1900.241494 1902.091232 1904.135523 1904.166100 1906.167802 1908.483820
64.600000 1903.284237 1904.980621 1907.258760 1907.238922 1909.425524 1911.769163
64.700000 1905.566457 1907.911104 1910.159847 1910.347755 1912.976614 1915.449024
64.800000 1908.536929 1910.827910 1913.369487 1913.628449 1916.527830 1919.543491
64.900000 1911.142181 1913.686922 1916.518228 1916.822834 1920.069479 1924.006592
65.000000 1913.952307 1916.598604 1919.797731 1920.223478 1923.753481 1929.177260
65.100000 1916.763127 1919.967501 1922.973541 1923.633385 1927.684901 1933.431273
65.200000 1920.083918 1923.410552 1926.891777 1927.544300 1932.150789 1937.720852
65.300000 1923.622638 1926.748205 1931.121103 1931.626524 1936.463532 1942.154473
65.400000 1926.864067 1930.567781 1935.705932 1935.882991 1941.114044 1945.821948
65.500000 1929.807431 1934.812490 1940.907796 1940.424167 1945.735514 1949.716062
65.600000 1933.459674 1939.152651 1946.085120 1944.994016 1950.088763 1953.020472
65.700000 1938.484874 1945.335245 1951.775156 1950.225702 1954.337988 1956.110635
65.800000 1955.912918 1956.938083 1957.849534 1957.860885 1958.817552 1959.746816
65.900000 1959.033180 1960.321703 1961.738157 1961.834030 1963.288989 1965.641152
66.000000 1961.700047 1963.558761 1965.499781 1965.603169 1967.674914 1969.956329
66.100000 1964.452574 1966.536475 1968.909027 1968.976162 1971.432519 1973.630269
66.200000 1967.146676 1969.610232 1972.375426 1972.463158 1975.141602 1977.921347
66.300000 1970.232845 1972.994053 1976.080348 1976.334960 1979.730573 1982.971707
66.400000 1973.064718 1976.360055 1980.461671 1980.371911 1984.047639 1987.500089
66.500000 1976.220590 1980.269814 1984.857530 1984.392571 1988.243759 1991.113418
66.600000 1979.682356 1984.877349 1988.946570 1988.607737 1992.112960 1995.581625
66.700000 1984.165823 1989.860514 1993.756224 1993.563146 1997.167095 2001.189267
66.800000 1991.735205 1995.302347 1998.670279 1998.778875 2002.445617 2006.088997
66.900000 1995.459962 1998.899096 2003.079422 2003.067718 2007.258543 2010.560201
67.025000 1999.891683 2003.548936 2008.191996 2008.125667 2012.618799 2015.936146
67.150000 2004.591871 2008.919491 2013.194804 2012.930098 2016.926466 2019.663303
67.275000 2010.359656 2013.995450 2018.010800 2017.532205 2020.848873 2023.341578
67.400000 2015.724499 2019.291161 2022.008106 2021.817294 2024.360494 2026.400282
67.500000 2019.528021 2022.331880 2024.744955 2024.638316 2026.947838 2028.969748
67.600000 2022.669759 2025.424614 2027.536712 2027.405762 2029.508967 2031.220878
67.700000 2025.533131 2028.105137 2030.083467 2029.964308 2031.821584 2033.568002
67.800000 2028.359112 2030.704512 2032.650735 2032.617286 2034.506277 2036.430918
67.900000 2030.990466 2033.229333 2035.218864 2035.242801 2037.228998 2039.619213
68.000000 2033.365493 2035.622530 2037.838327 2037.779778 2039.841153 2042.654146
68.100000 2036.140348 2038.169497 2040.271944 2040.305217 2042.360126 2045.229256
68.200000 2038.309166 2040.490279 2042.691766 2042.759711 2044.895103 2048.094976
68.300000 2040.715518 2042.770424 2045.154481 2045.243528 2047.579828 2051.156986
68.400000 2043.109549 2045.347561 2047.543773 2047.793915 2050.247498 2053.676012
68.500000 2045.415521 2047.780381 2050.124284 2050.357018 2053.082018 2056.325597
68.600000 2048.001950 2050.428706 2052.892885 2053.032060 2055.843379 2058.685786
68.700000 2050.777519 2053.297946 2055.736884 2055.823544 2058.436499 2060.950005
68.800000 2054.264144 2056.347756 2058.943250 2058.917563 2061.490554 2063.754226
68.900000 2057.782709 2059.985530 2062.332802 2062.347057 2064.784884 2066.803898
69.000000 2060.902656 2063.142180 2065.434604 2065.416114 2067.638726 2069.696151
69.100000 2064.344772 2066.348235 2068.391778 2068.459091 2070.492705 2072.655903
69.200000 2067.151735 2069.062794 2071.100520 2071.263697 2073.461747 2075.951152
69.300000 2069.652450 2071.617563 2074.043032 2074.213827 2076.813993 2079.617591
69.400000 2072.238044 2074.389497 2077.331068 2077.531134 2080.445624 2083.769629
69.500000 2074.922654 2077.359596 2080.721858 2080.867180 2084.149230 2088.195842
69.600000 2077.427295 2080.503325 2084.170808 2084.322886 2088.043149 2092.057025
69.700000 2080.380878 2083.534293 2087.585040 2087.827435 2091.905096 2097.182725
69.800000 2083.009923 2086.699347 2090.828022 2091.198306 2095.476097 2101.023708
