depth(m) lower_95(kyr) lower_68(kyr) median(kyr) mean(kyr) upper_68(kyr) upper_95(kyr)
0.030000 0.167241 0.817410 1.695388 1.693399 2.527780 3.384770
0.070000 1.203039 1.999823 2.962077 3.025569 4.003802 5.176629
0.100000 2.085409 2.936380 4.079563 4.109704 5.235100 6.482895
0.130000 2.859301 4.030492 5.249290 5.242660 6.456548 7.648066
0.170000 4.454742 5.726239 6.987823 6.999908 8.287584 9.569271
0.200000 6.339553 7.556329 8.811729 8.840636 10.172346 11.331223
0.230000 8.826660 10.085195 11.693445 11.582536 13.076684 14.056450
0.270000 11.502852 12.720343 13.759458 13.644518 14.503254 15.151816
0.300000 13.193395 13.961635 14.734054 14.688488 15.428318 16.036826
0.330000 14.233807 14.946642 15.562147 15.579823 16.269202 16.870609
0.370000 15.476208 16.110748 16.785026 16.813399 17.537026 18.245609
0.400000 16.071395 16.778440 17.464623 17.516173 18.237357 19.162183
0.430000 16.620244 17.358710 18.026236 18.100048 18.848456 19.817217
0.470000 17.296060 17.948957 18.713470 18.781757 19.598124 20.755124
0.500000 17.758292 18.441970 19.182896 19.294519 20.166161 21.362063
0.530000 18.139171 18.884959 19.691614 19.802017 20.747141 22.002651
0.570000 18.753888 19.471979 20.319554 20.449079 21.424074 22.772565
0.600000 19.243207 19.949596 20.814799 20.959494 21.953426 23.295365
0.630000 19.736739 20.447573 21.372620 21.487652 22.532616 23.932613
0.670000 20.353180 21.089046 22.052449 22.204358 23.402265 24.727976
0.700000 20.821155 21.607644 22.564753 22.774177 24.068540 25.470425
0.730000 21.341991 22.117090 23.196559 23.394967 24.739115 26.249511
0.770000 22.108159 22.840572 24.115562 24.256274 25.703532 27.054603
0.800000 22.619337 23.429900 24.882405 24.946842 26.456723 27.743206
0.830000 23.102697 24.084805 25.643829 25.646579 27.180577 28.435208
0.860000 23.660470 24.771952 26.360650 26.382911 27.979291 29.069337
0.900000 24.505018 25.809299 27.388602 27.372060 28.938264 30.055521
0.930000 25.186381 26.636586 28.185686 28.092975 29.536487 30.566289
0.970000 26.258603 27.775968 29.265317 29.135803 30.479264 31.448923
1.000000 26.997774 28.553240 30.055495 29.919493 31.247769 32.217290
1.030000 28.225925 29.454426 30.801562 30.705051 31.899942 32.899718
1.070000 29.298718 30.540793 31.736531 31.667933 32.756271 33.628454
1.100000 30.207608 31.225365 32.432415 32.347489 33.294548 34.291130
1.130000 30.895261 31.967611 33.007464 32.963273 33.917104 34.985878
1.170000 31.675752 32.800300 33.701954 33.716470 34.624404 35.868064
1.200000 32.292053 33.351586 34.238800 34.264062 35.170248 36.392752
1.230000 33.022322 33.935192 34.783223 34.840857 35.732687 36.969577
1.270000 33.799458 34.648441 35.530843 35.619450 36.643363 37.951433
1.300000 34.362265 35.156607 36.110301 36.203088 37.316173 38.468587
1.330000 34.883119 35.638392 36.698109 36.807895 38.006506 39.142895
1.370000 35.561310 36.362088 37.579396 37.641695 38.877481 40.093944
1.400000 36.121029 36.949902 38.302139 38.276524 39.460467 40.610787
1.430000 36.547919 37.569942 38.962030 38.873333 40.014824 41.191605
1.470000 37.247351 38.446671 39.656654 39.606762 40.618811 41.920868
1.500000 37.886891 39.016336 40.171102 40.152347 41.143407 42.631867
1.530000 38.439488 39.586594 40.645499 40.664746 41.594454 43.387215
1.570000 39.076092 40.214676 41.255578 41.298845 42.168209 44.555391
1.600000 39.586937 40.667992 41.738579 41.817082 42.677280 45.667046
1.630000 40.164704 41.212065 42.169277 42.337944 43.177075 46.815739
1.670000 40.876768 41.865101 42.812337 43.035619 43.819060 47.856421
1.700000 41.579704 42.416332 43.292561 43.581197 44.360238 48.441603
1.730000 42.068592 42.967462 43.795068 44.155718 44.990823 49.106433
1.770000 42.809240 43.660808 44.462057 44.932356 45.926160 49.978741
1.800000 43.306884 44.162889 44.968000 45.486092 46.548064 50.567878
1.830000 43.891023 44.689979 45.503184 46.052006 47.153630 51.251544
1.870000 44.558102 45.402009 46.222999 46.820682 48.079602 52.061534
1.900000 45.161142 46.007764 46.863595 47.448599 48.725111 52.585767
1.930000 45.790396 46.537542 47.444784 48.056131 49.482315 53.209724
1.970000 46.595595 47.344473 48.233260 48.863995 50.643303 53.890402
2.000000 47.141324 47.922345 48.856801 49.498571 51.649826 54.386246
2.030000 47.653301 48.505990 49.510174 50.166225 52.817922 54.965058
2.070000 48.481636 49.361910 50.447795 51.165757 53.897310 55.851215
2.100000 49.116031 50.057277 51.190764 51.917971 54.743170 56.382185
2.130000 49.893825 50.889778 52.051587 52.744044 55.452101 56.977883
2.200000 51.053075 52.426256 54.205425 54.576878 57.138417 58.573951
2.230000 51.630062 53.142434 55.084141 55.374887 57.777427 59.267913
2.270000 52.373124 54.094026 56.569708 56.446361 58.638821 60.041413
2.300000 53.334057 54.994474 57.576410 57.321616 59.384904 60.637434
2.330000 54.386386 55.960160 58.420154 58.151577 60.038544 61.305205
2.370000 55.838453 57.713072 59.548262 59.392847 60.982592 62.223533
2.400000 57.098679 58.853480 60.484009 60.358412 61.853009 62.909901
2.430000 58.289358 59.783318 61.279512 61.188046 62.579806 63.599386
2.470000 59.537847 60.992934 62.301383 62.261858 63.487974 64.528869
2.500000 60.363425 61.726396 63.017889 62.962091 64.216746 65.169333
2.540000 61.424693 62.694902 63.923671 63.849890 64.996044 65.949910
2.560000 61.851559 63.228193 64.389438 64.306554 65.419386 66.362262
2.580000 62.318793 63.615316 64.859586 64.752130 65.826477 66.722646
2.600000 62.774681 64.020658 65.313770 65.184626 66.244839 67.080309
2.620000 63.161509 64.493213 65.719419 65.593918 66.587012 67.447959
2.700000 64.906372 66.107875 67.113664 67.022362 67.884977 68.673694
2.760000 66.328344 67.432978 68.230681 68.174503 68.960747 69.664918
2.780000 66.956916 67.901162 68.646276 68.614296 69.310864 70.060461
2.800000 67.487630 68.345408 69.064874 69.048284 69.757581 70.510264
2.820000 68.082747 68.778052 69.491995 69.490590 70.174587 70.936550
2.840000 68.572120 69.237194 69.940794 69.952887 70.642067 71.452092
2.860000 68.988815 69.681423 70.373074 70.421732 71.147901 72.083166
2.880000 69.407832 70.134790 70.866899 70.928809 71.777055 72.836173
2.900000 69.841490 70.627811 71.395562 71.483320 72.370985 73.648062
2.920000 70.368630 71.199065 72.090940 72.162519 73.144949 74.350490
2.940000 71.046973 71.950771 72.960155 73.020969 74.107807 75.252515
2.960000 71.817801 72.734184 73.912028 73.921303 75.090428 76.125971
2.980000 72.482266 73.513861 74.677052 74.676946 75.891751 76.807449
3.000000 73.059557 74.191284 75.434368 75.377020 76.588289 77.403147
3.020000 73.794395 74.976995 76.209175 76.121991 77.225982 78.001994
3.040000 74.550917 75.730636 76.887646 76.779472 77.791624 78.441641
3.060000 75.214518 76.482771 77.515693 77.409856 78.331842 78.848186
3.080000 75.809862 77.116020 78.093909 77.962375 78.814846 79.287358
3.100000 76.511917 77.744348 78.620520 78.495980 79.241866 79.702473
3.120000 77.127615 78.331942 79.092201 78.995915 79.677495 80.109568
3.140000 77.903848 78.905934 79.567449 79.489522 80.098704 80.626806
3.160000 78.573095 79.345124 79.983793 79.928942 80.517085 81.050272
3.180000 79.112136 79.808241 80.382397 80.369598 80.918137 81.491988
3.200000 79.545427 80.209162 80.765452 80.764025 81.307391 81.930768
3.220000 80.080693 80.654835 81.164024 81.181814 81.721720 82.363591
3.240000 80.571958 81.064670 81.584390 81.589712 82.127064 82.720112
3.260000 80.943129 81.438656 81.931337 81.966756 82.513479 83.073846
3.280000 81.296010 81.791365 82.304634 82.324374 82.856574 83.455184
3.300000 81.625841 82.131183 82.646330 82.677591 83.201332 83.909581
3.320000 81.949055 82.507881 83.007098 83.033658 83.545844 84.291506
3.340000 82.311219 82.863224 83.377201 83.397697 83.910760 84.641905
3.360000 82.670166 83.213370 83.761713 83.773469 84.300197 85.000569
3.380000 83.094641 83.596465 84.135798 84.163297 84.716939 85.475960
3.400000 83.444897 84.006558 84.560067 84.596762 85.175892 86.007941
3.420000 83.908339 84.451691 85.028903 85.076499 85.706831 86.577388
3.440000 84.302521 84.883495 85.502343 85.613887 86.394324 87.442262
3.460000 84.746288 85.326841 86.027490 86.157947 87.011111 88.223940
3.480000 85.181853 85.835550 86.671503 86.817454 87.849812 89.314905
3.500000 85.691389 86.404064 87.442092 87.546644 88.747108 90.123876
3.520000 86.231053 87.037053 88.271831 88.314194 89.595491 90.872772
3.560000 87.495806 88.682075 89.937957 89.874726 91.098658 92.103410
3.580000 88.271836 89.427018 90.634313 90.570013 91.701841 92.605657
3.600000 89.137968 90.257175 91.312518 91.251448 92.251700 93.019337
3.620000 89.939174 91.085553 92.093551 91.997777 92.904395 93.659935
3.640000 90.872563 91.911334 92.802255 92.761776 93.597688 94.289435
3.660000 91.652413 92.665317 93.440087 93.406034 94.162077 94.969290
3.680000 92.365966 93.208878 94.009672 93.977289 94.761895 95.821763
3.700000 92.916317 93.699385 94.461223 94.469217 95.214579 96.265355
3.720000 93.415937 94.130861 94.889900 94.909405 95.637093 96.654248
3.740000 93.902899 94.579158 95.294520 95.339901 96.025090 97.076651
3.760000 94.394180 95.033115 95.703402 95.769832 96.501490 97.528962
3.780000 94.800780 95.454894 96.119998 96.204975 96.997693 97.953944
3.800000 95.228509 95.839399 96.506538 96.627418 97.490299 98.430324
3.820000 95.631839 96.266795 96.896260 97.045705 97.907330 98.870912
3.840000 96.080825 96.685649 97.359160 97.476517 98.362543 99.246186
3.860000 96.478659 97.085343 97.789128 97.900778 98.781577 99.709217
3.880000 96.873555 97.470604 98.234865 98.309486 99.196170 100.092461
3.900000 97.336340 97.872816 98.679096 98.736775 99.608334 100.481675
3.920000 97.783635 98.294352 99.126874 99.167647 100.027732 100.941733
3.940000 98.235441 98.744338 99.550040 99.609998 100.474389 101.399260
3.960000 98.661584 99.232223 100.032289 100.070846 100.911925 101.844403
