depth(m) lower_95(kyr) lower_68(kyr) median(kyr) mean(kyr) upper_68(kyr) upper_95(kyr)
0.030000 0.562102 1.408615 2.281295 2.290843 3.217293 4.024428
0.130000 2.357588 3.458345 4.477494 4.487921 5.471967 6.680909
0.180000 3.466222 4.799355 5.849474 5.858880 6.942805 8.150317
0.230000 4.991840 6.205782 7.320730 7.265216 8.265963 9.330762
0.280000 6.754229 7.675665 8.596451 8.619471 9.623676 10.394926
0.330000 8.199200 9.034770 9.897750 9.876258 10.684828 11.327942
0.380000 9.284653 10.080988 10.833343 10.788994 11.518276 12.050423
0.430000 10.257949 11.039010 11.714846 11.666721 12.301386 12.835951
0.480000 11.251059 11.923802 12.484018 12.476976 13.025386 13.614694
0.530000 12.137245 12.703783 13.229841 13.232816 13.759185 14.314241
0.580000 12.897392 13.406282 13.906446 13.906636 14.414043 14.961669
0.630000 13.546563 14.021039 14.546645 14.534744 15.027024 15.557804
0.680000 14.075972 14.618205 15.154422 15.146187 15.674066 16.209089
0.730000 14.690332 15.179059 15.737484 15.728342 16.246446 16.840115
0.780000 15.239140 15.735913 16.281062 16.298766 16.829638 17.497272
0.830000 15.838278 16.408333 16.985508 17.029635 17.582285 18.522601
0.880000 16.623635 17.216574 18.008853 18.166611 19.111928 20.666777
0.930000 17.405260 18.031541 19.145043 19.293602 20.451938 22.175954
0.980000 18.177012 19.059771 20.361721 20.448677 21.830056 23.388001
1.030000 18.926690 20.157552 21.598721 21.669728 23.199501 24.697391
1.080000 19.885196 21.528766 23.005363 23.032696 24.573898 25.888848
1.130000 20.863686 22.418915 24.013732 24.020604 25.638104 26.955128
1.180000 21.988221 23.372840 25.021686 24.999838 26.526752 28.008903
1.280000 23.631118 25.101042 26.808393 26.835185 28.496052 30.187088
1.330000 24.572163 25.977294 27.728057 27.749729 29.479345 31.244501
1.380000 25.512950 26.842304 28.547759 28.569745 30.252994 32.079079
1.480000 27.029159 28.389627 30.003040 30.082356 31.753592 33.647505
1.530000 27.891322 29.282073 30.906165 30.943264 32.484622 34.426329
1.580000 28.715655 30.155366 31.681325 31.765084 33.296799 35.396673
1.630000 29.663195 31.094395 32.549667 32.655437 34.140250 36.132381
1.680000 30.468855 31.975522 33.388539 33.527104 35.097683 36.813854
1.730000 31.754883 33.012623 34.358525 34.528160 36.151501 37.785063
1.780000 32.735970 34.125954 35.507202 35.630603 37.065106 38.656445
1.830000 33.977115 35.389419 36.715818 36.794900 38.235155 39.657225
1.880000 34.715119 36.417701 37.953374 37.875428 39.203719 40.719483
1.930000 35.449837 37.404136 39.088414 38.913738 40.250923 41.881766
2.030000 37.146483 39.338143 40.799920 40.739634 42.020114 44.293382
2.080000 37.933476 40.296094 41.695640 41.650930 42.893550 45.132116
2.130000 38.983777 41.108819 42.560987 42.589204 43.976229 46.564556
2.180000 40.204572 41.934596 43.329342 43.471243 45.080563 47.712688
2.230000 41.443414 42.829858 44.076640 44.345908 45.907658 49.034575
2.280000 42.555115 43.822953 44.904434 45.264979 46.723828 50.060385
2.330000 43.680203 44.741715 45.742452 46.183731 47.570633 51.050491
2.380000 44.722515 45.589863 46.614071 47.077300 48.458701 51.894667
2.430000 45.614072 46.518521 47.660356 48.029679 49.425710 52.685178
2.480000 46.281666 47.467697 48.700453 48.994674 50.442292 53.463661
2.530000 47.107941 48.337303 49.666410 49.957086 51.768186 54.081439
2.580000 47.965141 49.193549 50.617594 50.901393 52.856609 54.809752
2.630000 48.820457 50.073815 51.592600 51.866972 53.997437 55.569912
2.680000 49.821011 51.158676 52.634741 52.861157 54.929358 56.352646
2.730000 50.793543 52.077649 53.713935 53.848430 55.776560 57.143654
2.780000 51.469164 53.197664 54.717513 54.839333 56.626545 57.994649
2.830000 52.229379 54.283921 55.856407 55.876520 57.591746 58.798098
2.880000 53.069111 55.294551 57.070379 56.913233 58.504883 59.783803
2.930000 54.038857 56.547778 58.120523 57.980305 59.457049 60.789211
2.980000 55.680853 57.702094 59.234271 59.100238 60.455566 61.776002
3.030000 57.263780 59.057444 60.422920 60.327805 61.629522 62.895511
3.080000 58.736843 60.242374 61.499516 61.437613 62.679485 63.806229
3.130000 59.735157 61.189886 62.450683 62.399591 63.645584 64.827018
3.180000 60.707389 62.078683 63.389798 63.321319 64.546860 65.666911
3.230000 61.711650 63.053839 64.326197 64.237850 65.374251 66.430715
3.280000 62.744702 63.927550 65.216264 65.137453 66.284885 67.205303
3.330000 63.751047 64.881795 66.086127 66.038096 67.183302 68.072492
3.380000 64.759980 65.815462 67.014461 67.003413 68.197345 69.187397
3.430000 65.837435 66.896024 68.082342 68.082249 69.257663 70.491480
3.480000 66.986888 68.293234 69.378869 69.428357 70.542545 72.205314
3.530000 68.848392 69.964757 71.060202 71.204748 72.434149 74.068993
3.580000 70.435327 71.544626 72.784890 72.929925 74.396706 76.085858
3.630000 71.456137 72.748777 74.153656 74.242094 75.819286 77.318535
3.680000 72.855316 74.172478 75.670587 75.717080 77.319795 78.671110
3.730000 74.210069 75.628654 77.199108 77.164905 78.704389 79.993442
3.780000 75.307263 76.934509 78.522899 78.427545 79.866758 81.080385
3.830000 76.463753 78.423845 79.960689 79.865830 81.262118 83.011109
3.880000 77.816362 79.522971 81.081876 81.083564 82.561614 84.477846
3.930000 78.985083 80.511737 82.182412 82.243592 83.951339 85.574488
3.980000 80.860280 81.909989 83.374715 83.467637 85.009849 86.564834
4.030000 82.364322 83.418619 84.689181 84.797978 86.164393 87.743745
4.080000 84.132849 85.295908 86.468859 86.566731 87.955562 89.452729
4.130000 85.571785 86.641654 87.984900 88.063709 89.503073 90.884266
4.180000 86.696851 87.896046 89.347949 89.339326 90.748410 91.928686
4.230000 88.047618 89.304076 90.648563 90.626413 91.932272 92.884647
4.280000 89.561643 90.897304 92.283891 92.168897 93.372513 94.415731
4.330000 91.541732 92.779445 93.941639 93.895773 94.986120 96.021936
4.380000 93.049036 94.233345 95.303910 95.270795 96.358193 97.247209
4.430000 94.439275 95.413073 96.402233 96.388626 97.398474 98.227030
4.480000 95.530299 96.439252 97.399294 97.371876 98.350291 99.173604
4.530000 96.627440 97.429089 98.347654 98.330460 99.234801 100.073052
4.580000 97.696829 98.468366 99.392872 99.379032 100.268910 101.198549
