depth(m) lower_95(kyr) lower_68(kyr) median(kyr) mean(kyr) upper_68(kyr) upper_95(kyr)
0.040000 0.046331 0.310322 0.850459 0.962359 1.621745 2.440231
0.070000 0.442879 0.839042 1.479595 1.572738 2.290296 3.212802
0.100000 0.790132 1.307939 2.091305 2.170567 3.036952 4.079662
0.130000 1.186186 1.835314 2.673675 2.792560 3.814884 4.879422
0.160000 1.662041 2.364537 3.266193 3.397685 4.493272 5.586305
0.190000 2.147326 2.846632 3.995833 4.047391 5.235090 6.317337
0.285000 3.634797 4.791083 6.062692 6.077680 7.382145 8.579513
0.380000 6.152760 7.237805 8.266180 8.305179 9.537992 10.470028
0.430000 7.528913 8.536137 9.579757 9.589819 10.687192 11.569947
0.480000 8.869732 10.117169 11.109966 11.054892 12.043840 12.884446
0.530000 10.554992 11.833913 12.709286 12.673252 13.598970 14.357227
0.580000 12.079237 13.031458 13.869657 13.841377 14.670978 15.356329
0.630000 13.187704 13.964259 14.751622 14.731682 15.513860 16.150682
0.680000 14.545253 15.197814 15.827280 15.835178 16.497113 17.111358
0.730000 15.504407 16.177890 16.806827 16.795642 17.445054 18.037656
0.780000 16.233038 16.949829 17.570995 17.565915 18.214032 18.817275
0.830000 16.936287 17.559959 18.221470 18.226980 18.888444 19.580472
0.880000 17.501229 18.135889 18.809625 18.820053 19.488364 20.264199
0.930000 18.102372 18.702222 19.355557 19.399103 20.053400 20.960683
0.980000 18.671431 19.288806 19.948996 19.982319 20.623533 21.532084
1.030000 19.253195 19.832257 20.491847 20.562577 21.270063 22.201256
1.080000 19.757140 20.418529 21.095778 21.164755 21.899485 22.852644
1.130000 20.363415 20.989270 21.736546 21.794608 22.561661 23.570646
1.180000 20.950402 21.594476 22.371730 22.456585 23.305643 24.487681
1.230000 21.519616 22.224568 23.088816 23.191354 24.129373 25.481062
1.280000 22.174503 22.958132 23.911378 24.028818 25.152057 26.523932
1.330000 22.854724 23.626176 24.735446 24.831160 26.075809 27.287383
1.380000 23.472131 24.417337 25.591586 25.653022 26.897579 28.219835
1.430000 24.158322 25.252644 26.444523 26.502698 27.751332 29.144888
1.480000 25.092932 26.113482 27.376052 27.369674 28.655169 29.950065
1.530000 25.925670 27.009747 28.282614 28.304089 29.625106 30.859047
1.580000 26.698655 27.888471 29.198394 29.214686 30.539730 31.622722
1.630000 27.565211 28.872493 30.238824 30.166578 31.486288 32.474872
1.680000 28.473203 29.771082 31.158353 31.063921 32.319024 33.291179
1.730000 29.318627 30.747093 32.103524 31.997740 33.123996 34.240143
1.780000 30.372098 31.693354 32.960732 32.914382 34.044052 35.109290
1.830000 31.368866 32.564535 33.781906 33.777925 34.957971 36.101325
1.880000 32.159219 33.429073 34.543436 34.603606 35.819138 37.345611
1.930000 32.919058 34.167662 35.300558 35.458197 36.778506 38.550602
1.980000 33.627955 34.888823 36.166779 36.316950 37.747809 39.580616
2.030000 34.312233 35.573641 37.086145 37.201789 38.773938 40.756147
2.080000 35.145904 36.400125 38.054014 38.098764 39.607504 41.697795
2.130000 36.005608 37.381606 38.979728 39.012260 40.485014 42.960942
2.180000 36.945039 38.446101 39.783861 39.914694 41.231814 44.350482
2.230000 37.826519 39.317059 40.612377 40.758541 41.989415 45.323216
2.280000 38.987554 40.131437 41.368544 41.594027 42.815514 46.512007
2.330000 39.746188 40.897356 42.097664 42.461871 43.905924 47.612334
2.380000 40.643238 41.673000 42.954747 43.425082 45.300072 48.614425
2.430000 41.477264 42.494011 43.884163 44.409374 47.009977 49.412451
2.480000 42.321600 43.379727 44.992815 45.528829 48.250026 50.272970
2.530000 43.270457 44.443969 46.314352 46.705171 49.462893 51.161275
2.580000 44.118819 45.574910 47.608365 47.882454 50.580209 52.385314
2.630000 44.971045 46.828969 48.868007 49.064161 51.696575 53.233730
2.680000 46.097994 48.114319 50.157424 50.281559 52.663677 54.329424
2.730000 47.547288 49.242232 51.442309 51.487335 53.776841 55.326305
2.780000 48.955691 50.534549 52.922490 52.788890 54.923875 56.414019
2.830000 50.069155 51.791562 54.318511 54.036578 56.132639 57.659884
2.880000 51.344248 53.048100 55.430160 55.242205 57.226220 58.759292
2.930000 52.621101 54.314964 56.728801 56.492469 58.410595 59.960242
2.980000 54.242130 55.926899 57.930187 57.825539 59.605235 61.391241
3.030000 55.403458 57.645401 59.289614 59.339350 61.161942 63.180687
3.080000 56.752394 59.095408 60.709097 60.805137 62.702745 64.765108
3.130000 58.488643 60.432875 62.250190 62.335223 64.332396 66.367071
3.180000 60.097619 62.103572 63.850231 63.913102 65.859706 67.489617
3.230000 61.868614 63.579204 65.546872 65.535500 67.436164 68.787832
3.280000 63.889083 65.697247 67.333410 67.218344 68.755719 69.996499
3.330000 66.061151 67.813852 69.070563 69.011804 70.282703 71.542858
3.380000 68.263844 69.536301 70.583249 70.592032 71.688388 73.071254
3.430000 69.789749 70.831462 71.895735 71.954387 73.118245 74.422571
3.480000 70.883095 71.918076 73.056621 73.144449 74.454050 75.599286
3.530000 71.847370 73.039628 74.248591 74.302954 75.606314 76.772623
3.580000 72.911649 74.125684 75.442769 75.440962 76.747891 77.765962
3.630000 74.203423 75.425652 76.778746 76.710777 77.941587 78.844547
3.680000 75.555347 76.829737 78.042542 77.956543 79.041781 79.846641
3.730000 77.177698 78.256283 79.310482 79.242750 80.175712 80.981008
3.780000 78.466764 79.629780 80.494413 80.481150 81.390102 82.160055
3.830000 79.462441 80.639223 81.496119 81.485793 82.367355 83.356453
3.880000 80.593056 81.519306 82.394930 82.384632 83.265104 84.269746
3.930000 81.591045 82.462634 83.275556 83.316792 84.174846 85.258578
3.980000 82.448024 83.393631 84.225923 84.324137 85.285387 86.595717
4.030000 83.561387 84.375074 85.339557 85.543532 86.639214 89.140703
4.080000 84.722742 85.639673 87.049011 87.313234 89.202211 91.187718
4.130000 86.030438 87.212891 89.282049 89.222347 91.101103 92.445139
4.180000 87.267771 89.273380 91.246063 91.034430 92.641340 93.668952
4.230000 89.176509 91.298974 92.716638 92.543743 93.776434 94.744021
4.280000 91.179879 92.634039 93.787361 93.672737 94.698328 95.695777
4.330000 92.677592 93.795999 94.718560 94.678881 95.620350 96.393539
4.380000 93.766141 94.762757 95.609149 95.598695 96.491861 97.269811
4.430000 94.761905 95.624590 96.424471 96.472917 97.378240 98.194109
4.480000 95.677154 96.396270 97.261334 97.287592 98.173394 99.022852
4.530000 96.386227 97.213317 98.008444 98.060628 98.942543 99.783401
4.580000 97.185601 97.976491 98.785216 98.816922 99.700211 100.516493
4.630000 98.013064 98.745072 99.529825 99.567714 100.440315 101.275399
4.680000 98.887458 99.677149 100.423969 100.448526 101.267057 102.062955
