depth(m) lower_95(kyr) lower_68(kyr) median(kyr) mean(kyr) upper_68(kyr) upper_95(kyr)
0.040000 0.049263 0.223611 0.679611 0.743644 1.239930 1.898821
0.120000 0.221427 0.438139 0.903836 0.962974 1.464538 2.070517
0.200000 0.394067 0.653674 1.131559 1.184742 1.685877 2.372466
0.300000 0.585635 0.918602 1.394629 1.448043 1.934346 2.693245
0.400000 0.805501 1.167646 1.643827 1.703684 2.190082 3.002248
0.500000 1.011552 1.405576 1.879667 1.954485 2.478246 3.227172
0.600000 1.210925 1.632370 2.130817 2.198292 2.780024 3.682075
0.733333 1.479686 1.929241 2.444824 2.516058 3.085030 4.032803
0.866667 1.742087 2.228376 2.754005 2.835972 3.464350 4.396918
1.000000 2.039326 2.522109 3.083681 3.165871 3.824316 4.751144
1.100000 2.242912 2.738647 3.353228 3.423506 4.100447 5.061600
1.200000 2.506862 2.976378 3.589599 3.677414 4.396475 5.287605
1.300000 2.714745 3.233117 3.845913 3.931881 4.657642 5.525743
1.400000 2.958540 3.480920 4.120627 4.202166 4.944195 5.751763
1.500000 3.159255 3.729037 4.406022 4.469986 5.258281 6.031268
1.600000 3.407477 3.994950 4.661603 4.738200 5.551992 6.246004
1.700000 3.647000 4.240970 4.954408 5.005155 5.825422 6.476450
1.800000 3.940840 4.519011 5.231121 5.275456 6.072167 6.683136
1.900000 4.177399 4.812374 5.502615 5.547773 6.336502 6.962214
2.000000 4.423146 5.100930 5.814019 5.839259 6.612681 7.230683
2.100000 4.639396 5.398898 6.151733 6.126244 6.858629 7.445765
2.200000 4.969574 5.704092 6.464887 6.420611 7.101227 7.709768
2.300000 5.295655 6.003761 6.784234 6.722410 7.375558 7.989108
2.400000 5.650874 6.324541 7.078905 7.029431 7.665489 8.251428
2.500000 5.967687 6.705036 7.413374 7.359877 7.980890 8.548796
2.600000 6.388726 7.087243 7.745463 7.707441 8.306688 8.857556
2.700000 6.713149 7.424425 8.025407 8.021155 8.592445 9.196806
2.800000 7.162163 7.728856 8.346464 8.321167 8.886896 9.526794
2.900000 7.461156 8.045840 8.641409 8.611227 9.144808 9.757937
3.000000 7.782913 8.371754 8.935578 8.919776 9.466240 10.002996
3.100000 8.207860 8.686012 9.253246 9.248833 9.796711 10.350921
3.200000 8.533221 9.042401 9.590271 9.588771 10.166179 10.618372
3.300000 8.907555 9.414517 9.937476 9.934123 10.477840 10.965126
3.400000 9.206018 9.746198 10.275737 10.262769 10.782797 11.257334
3.500000 9.538139 10.110030 10.611785 10.609418 11.120139 11.551324
3.600000 10.040162 10.506759 11.037314 10.999104 11.471333 11.895854
3.700000 10.455944 10.925412 11.411529 11.394567 11.859712 12.217479
3.800000 10.823834 11.355545 11.794520 11.757943 12.181443 12.467959
3.900000 11.164613 11.699497 12.126762 12.083853 12.478474 12.713438
4.000000 11.606197 12.024410 12.441600 12.384592 12.726535 12.906227
4.040000 11.729436 12.137520 12.568279 12.506108 12.834230 13.011219
4.080000 11.859024 12.267409 12.710301 12.627077 12.936355 13.106112
4.100000 11.927643 12.325655 12.772557 12.687541 12.996499 13.154625
4.120000 11.997920 12.377564 12.831119 12.749085 13.059365 13.195140
4.160000 12.111504 12.513073 12.952828 12.868044 13.162381 13.278618
4.200000 12.242041 12.649655 13.074110 12.988315 13.262262 13.383695
4.240000 12.388607 12.791302 13.183008 13.109973 13.373397 13.490154
4.280000 12.534791 12.953690 13.303021 13.229255 13.472462 13.595530
4.300000 12.619867 13.017007 13.368729 13.289641 13.524886 13.643449
4.320000 12.679985 13.078185 13.427010 13.352323 13.582367 13.700093
4.360000 12.825489 13.240629 13.542509 13.476844 13.687172 13.821585
4.400000 12.971536 13.384149 13.651135 13.596872 13.806174 13.948397
4.440000 13.111060 13.518141 13.763155 13.724583 13.923649 14.090986
4.480000 13.306822 13.653318 13.871911 13.853367 14.067427 14.232386
4.500000 13.391607 13.716164 13.931141 13.920497 14.132279 14.333659
4.520000 13.473535 13.794173 13.997637 13.988956 14.195886 14.408565
4.560000 13.623794 13.936736 14.145090 14.137994 14.358259 14.574100
4.600000 13.825371 14.072908 14.294879 14.291461 14.507482 14.751366
4.640000 13.971992 14.228891 14.449118 14.449566 14.680554 14.891603
4.680000 14.168717 14.394264 14.619536 14.620544 14.845991 15.065201
4.700000 14.235267 14.458034 14.684768 14.696577 14.938320 15.143127
4.720000 14.318652 14.537703 14.769158 14.773007 15.011271 15.236960
4.760000 14.480138 14.700432 14.931813 14.940851 15.180346 15.419926
4.800000 14.648520 14.878185 15.102771 15.106788 15.351429 15.582724
4.840000 14.771216 15.028441 15.266927 15.261242 15.508698 15.732957
4.880000 14.910219 15.169396 15.397877 15.403031 15.649281 15.846413
4.900000 14.975256 15.226532 15.468660 15.467751 15.709338 15.911783
4.920000 15.030613 15.287920 15.537842 15.536392 15.783693 15.972463
4.960000 15.169060 15.423061 15.682737 15.677642 15.922416 16.134254
5.000000 15.335522 15.562547 15.830425 15.814380 16.057654 16.271384
5.040000 15.467561 15.698459 15.973084 15.949965 16.188661 16.399778
5.080000 15.583856 15.806558 16.108556 16.080237 16.312478 16.516025
5.100000 15.638558 15.871408 16.174499 16.141141 16.372207 16.566768
5.120000 15.714481 15.921762 16.234584 16.200631 16.435088 16.634980
5.160000 15.836228 16.031661 16.355645 16.318959 16.551629 16.773607
5.200000 15.935152 16.159560 16.454828 16.431194 16.668055 16.888280
5.240000 16.044751 16.258175 16.579800 16.548996 16.780192 17.016488
5.280000 16.148987 16.393244 16.702107 16.673015 16.918787 17.130000
5.300000 16.207473 16.448071 16.761241 16.733646 16.982447 17.193708
5.320000 16.257906 16.509264 16.820948 16.793876 17.040721 17.244041
5.360000 16.377917 16.649835 16.947341 16.921381 17.169790 17.365580
5.400000 16.484550 16.759625 17.077269 17.041023 17.287332 17.470278
5.440000 16.597039 16.870942 17.206098 17.165463 17.404887 17.665278
5.480000 16.706772 16.993951 17.333646 17.291521 17.525348 17.837351
5.500000 16.757123 17.051997 17.392110 17.351605 17.576009 17.883706
5.520000 16.821405 17.115298 17.451822 17.411544 17.629106 17.913198
5.560000 16.935898 17.244388 17.568131 17.529648 17.734589 18.098934
5.600000 17.081419 17.378997 17.678999 17.648165 17.850642 18.204635
5.640000 17.223029 17.511809 17.784715 17.762966 17.952240 18.356547
5.680000 17.329992 17.651681 17.889912 17.876951 18.054612 18.484990
5.700000 17.398102 17.717185 17.938300 17.932034 18.104041 18.538761
5.720000 17.444395 17.778170 17.998389 17.987172 18.163839 18.583245
5.760000 17.585681 17.889718 18.101279 18.095107 18.275789 18.685308
5.800000 17.679208 17.993509 18.199836 18.196990 18.380312 18.760758
5.840000 17.782703 18.089338 18.300517 18.301424 18.506861 18.837194
5.880000 17.884637 18.193067 18.405718 18.402443 18.610146 18.917002
5.900000 17.947109 18.249170 18.458243 18.457177 18.659800 18.972481
5.920000 18.003348 18.299431 18.512292 18.511075 18.705354 18.999129
5.960000 18.128975 18.395154 18.611767 18.611006 18.797520 19.077209
6.000000 18.248434 18.503784 18.718096 18.710518 18.890947 19.176174
6.040000 18.350974 18.604578 18.812846 18.808640 18.977647 19.257656
6.080000 18.482168 18.722535 18.908547 18.907850 19.071963 19.389956
6.120000 18.590994 18.826728 19.009520 19.004797 19.163028 19.516951
6.160000 18.691630 18.921900 19.096663 19.100328 19.247770 19.628860
6.200000 18.794890 19.023294 19.189819 19.195015 19.344420 19.760823
6.240000 18.906013 19.126610 19.274465 19.284899 19.428032 19.865318
6.280000 19.014593 19.220396 19.364811 19.377569 19.511005 19.981444
6.320000 19.141111 19.318795 19.453012 19.467048 19.595303 20.053662
6.360000 19.238252 19.412493 19.543066 19.557631 19.678916 20.124475
6.400000 19.342558 19.501447 19.636913 19.650009 19.771911 20.211474
6.440000 19.441150 19.591954 19.723569 19.742180 19.864604 20.284918
6.480000 19.539583 19.687153 19.819315 19.835354 19.952189 20.377204
6.520000 19.633812 19.775273 19.906019 19.926916 20.049988 20.498127
6.560000 19.720597 19.861762 19.995551 20.015682 20.146145 20.569071
6.600000 19.819087 19.951888 20.080059 20.105842 20.232682 20.642553
6.640000 19.906565 20.041773 20.166475 20.195285 20.312808 20.750169
6.680000 19.991740 20.125379 20.264777 20.286015 20.420821 20.832975
6.720000 20.066501 20.216551 20.350788 20.377605 20.517323 20.908120
6.760000 20.170961 20.302414 20.432353 20.468691 20.627267 21.017352
6.810000 20.284794 20.410054 20.539661 20.584435 20.761795 21.143007
6.840000 20.349044 20.476023 20.607306 20.655583 20.854024 21.212168
6.880000 20.430306 20.561230 20.699513 20.749910 20.974716 21.314680
6.920000 20.515153 20.642150 20.790864 20.843225 21.092435 21.433999
6.960000 20.608446 20.729565 20.884835 20.941672 21.189786 21.555511
7.000000 20.679586 20.807991 20.982811 21.036786 21.287464 21.659226
7.040000 20.758110 20.898471 21.087608 21.136305 21.398455 21.766114
7.080000 20.835652 20.989127 21.189040 21.237281 21.508142 21.839674
7.120000 20.921660 21.077626 21.289002 21.337851 21.617688 21.974989
7.160000 20.995872 21.156559 21.397593 21.437695 21.720497 22.092062
7.200000 21.087158 21.242841 21.497135 21.538287 21.828787 22.190742
7.240000 21.170362 21.331988 21.611239 21.643619 21.929261 22.316552
7.280000 21.265476 21.427241 21.736040 21.746204 22.043242 22.421532
7.320000 21.354165 21.521810 21.851726 21.852423 22.151463 22.560822
7.360000 21.428497 21.622463 21.966694 21.962211 22.261940 22.652392
7.400000 21.511642 21.716825 22.077925 22.073803 22.384123 22.837885
7.440000 21.616735 21.816884 22.196115 22.186291 22.492368 22.983591
7.480000 21.720746 21.911851 22.305360 22.302432 22.617203 23.094874
7.520000 21.826592 22.037335 22.411955 22.417369 22.741359 23.221310
7.560000 21.913951 22.152307 22.529841 22.534581 22.868523 23.321507
7.600000 22.015812 22.273566 22.646369 22.652506 22.987482 23.431947
7.640000 22.095120 22.417687 22.763485 22.770064 23.088065 23.546600
7.680000 22.207615 22.557855 22.865388 22.886875 23.205827 23.678312
7.720000 22.296866 22.669412 22.967286 22.994130 23.326876 23.759890
7.760000 22.372676 22.792761 23.078457 23.104056 23.419224 23.924024
7.840000 22.590190 23.004507 23.288694 23.314568 23.616753 24.174023
7.880000 22.664627 23.113463 23.396938 23.427906 23.735984 24.390498
7.900000 22.708507 23.165188 23.455888 23.485109 23.812499 24.446104
7.920000 22.781197 23.220302 23.512472 23.542226 23.871663 24.514574
7.960000 22.900596 23.332035 23.613097 23.652520 24.008029 24.675724
8.040000 23.100242 23.529075 23.827050 23.874996 24.236156 24.932038
8.080000 23.191572 23.639729 23.940200 23.988393 24.359245 25.050472
8.100000 23.234344 23.691180 23.990614 24.043770 24.417180 25.115132
8.120000 23.292839 23.741634 24.055412 24.097793 24.472920 25.166302
8.160000 23.410938 23.840842 24.148399 24.203385 24.587605 25.266240
8.200000 23.535563 23.934261 24.246012 24.307679 24.722673 25.357516
8.240000 23.643400 24.040811 24.354156 24.412907 24.847456 25.434456
8.280000 23.788592 24.134057 24.443702 24.509724 24.959797 25.553927
8.320000 23.891414 24.219850 24.547840 24.610189 25.051662 25.657908
8.360000 23.989928 24.304007 24.641463 24.704270 25.139308 25.727427
8.440000 24.159775 24.482801 24.806655 24.883195 25.329764 25.891527
8.480000 24.256885 24.581353 24.912481 24.981166 25.418449 25.992897
8.520000 24.365908 24.673488 25.011788 25.076623 25.514253 26.077418
8.560000 24.458063 24.762124 25.109390 25.172120 25.610855 26.161043
8.600000 24.560985 24.856249 25.226077 25.270007 25.705420 26.248719
8.640000 24.637140 24.948504 25.333722 25.373133 25.801253 26.347311
8.680000 24.753330 25.048774 25.428667 25.472524 25.893647 26.452366
8.720000 24.852751 25.137885 25.529292 25.574186 26.004218 26.531985
8.760000 24.936568 25.231458 25.648771 25.675099 26.109562 26.617783
8.840000 25.111685 25.392061 25.868588 25.864573 26.326776 26.764733
8.880000 25.201603 25.474814 25.965755 25.965056 26.427622 26.859046
8.920000 25.301379 25.561642 26.064520 26.065566 26.540579 26.949664
8.960000 25.414108 25.655717 26.164044 26.167120 26.653796 27.041213
9.000000 25.499291 25.743446 26.255064 26.270382 26.771859 27.133106
9.040000 25.588522 25.830759 26.376320 26.377023 26.883322 27.237022
9.080000 25.680807 25.921252 26.487139 26.479684 27.006551 27.334938
9.120000 25.755776 26.009850 26.597694 26.583512 27.098451 27.407164
9.160000 25.856072 26.104090 26.713130 26.686999 27.218341 27.508850
9.240000 25.982024 26.289277 26.933695 26.887887 27.451376 27.684853
9.280000 26.081556 26.389533 27.036332 26.990808 27.556584 27.770089
9.320000 26.176461 26.486303 27.154427 27.097972 27.658849 27.862963
9.360000 26.269650 26.604328 27.290843 27.208508 27.756509 27.957720
9.400000 26.371365 26.709167 27.405829 27.317403 27.842663 28.049254
9.440000 26.464134 26.810946 27.535451 27.429245 27.947010 28.151706
9.480000 26.553747 26.904151 27.664483 27.537115 28.052856 28.277807
9.520000 26.659877 27.017316 27.817103 27.651679 28.152887 28.396169
9.560000 26.755025 27.123068 27.924987 27.767793 28.270121 28.552551
9.600000 26.884131 27.223418 28.047697 27.886908 28.398359 28.670130
9.640000 26.980625 27.345880 28.181447 28.010621 28.523873 28.839932
9.680000 27.085899 27.446860 28.297005 28.127791 28.650193 28.962085
9.720000 27.210960 27.561724 28.401453 28.251247 28.764497 29.064460
9.760000 27.334747 27.710298 28.512661 28.376454 28.883581 29.196354
9.800000 27.453627 27.864040 28.618346 28.501865 28.999843 29.289389
9.840000 27.582052 27.998962 28.743716 28.634039 29.115513 29.443037
9.960000 27.958104 28.511243 29.148142 29.039101 29.456471 29.752652
10.000000 28.090496 28.677381 29.277730 29.172572 29.589846 29.858076
10.040000 28.221046 28.826114 29.391432 29.301237 29.710482 29.964487
10.080000 28.306659 28.962124 29.518263 29.424768 29.826990 30.071135
10.120000 28.437841 29.106977 29.631479 29.542027 29.933637 30.192576
10.160000 28.564969 29.265641 29.744539 29.661692 30.035289 30.306933
10.200000 28.707960 29.367503 29.853002 29.775280 30.143025 30.414635
10.240000 28.808442 29.496577 29.964104 29.891001 30.243071 30.575539
10.280000 28.958767 29.649527 30.069364 30.000725 30.340924 30.722185
10.360000 29.232748 29.887393 30.270287 30.209662 30.533456 30.940589
10.400000 29.370656 29.994329 30.361429 30.313825 30.630671 31.070517
10.440000 29.478577 30.093948 30.452351 30.415695 30.732865 31.166535
10.480000 29.599506 30.193011 30.552394 30.518915 30.830615 31.264457
10.520000 29.738727 30.291514 30.647980 30.621988 30.953520 31.369017
10.560000 29.879899 30.392417 30.732664 30.722767 31.066163 31.463467
10.600000 29.967539 30.496199 30.827220 30.822910 31.198096 31.559974
10.640000 30.044983 30.595892 30.906884 30.921908 31.307043 31.657996
10.680000 30.163691 30.682757 30.994412 31.020172 31.429862 31.763279
10.720000 30.273504 30.781182 31.083348 31.117453 31.542374 31.856885
10.760000 30.374210 30.867046 31.168077 31.212373 31.640605 31.942381
10.800000 30.457731 30.972342 31.263141 31.311966 31.758499 32.013261
10.840000 30.542610 31.062676 31.359039 31.409150 31.858615 32.104658
10.880000 30.656217 31.162768 31.445275 31.502831 31.978590 32.210466
10.920000 30.733466 31.251564 31.538555 31.595785 32.084919 32.301112
10.960000 30.861482 31.341316 31.632836 31.691009 32.178581 32.381029
11.000000 30.976821 31.424230 31.723475 31.783876 32.273465 32.475922
11.040000 31.050397 31.514222 31.814017 31.878399 32.372548 32.553577
11.080000 31.182850 31.598033 31.914170 31.973429 32.456338 32.640503
11.120000 31.283444 31.689859 32.019202 32.065956 32.540260 32.727043
11.160000 31.375597 31.770252 32.123161 32.162724 32.635986 32.813169
11.200000 31.473349 31.850145 32.220779 32.255517 32.722717 32.896256
11.240000 31.554021 31.936382 32.330425 32.352376 32.805655 32.990561
11.280000 31.656361 32.026711 32.421556 32.447999 32.896822 33.076719
11.320000 31.770166 32.119439 32.526265 32.543192 32.985100 33.175631
11.360000 31.879656 32.218064 32.623343 32.636593 33.068033 33.257700
11.400000 32.000751 32.314295 32.727265 32.735790 33.157325 33.345173
11.440000 32.104058 32.428023 32.841470 32.837506 33.252689 33.440386
11.480000 32.217576 32.543764 32.966954 32.943143 33.338764 33.522313
11.520000 32.314105 32.667868 33.087311 33.048463 33.435523 33.634496
11.560000 32.435611 32.776517 33.207296 33.158049 33.532934 33.732295
11.600000 32.541320 32.900201 33.322173 33.268402 33.640950 33.818972
11.640000 32.622530 32.996871 33.435277 33.378442 33.737068 33.903246
11.680000 32.728495 33.107313 33.556680 33.493274 33.847376 33.996552
11.720000 32.819246 33.205162 33.705061 33.605926 33.959010 34.088783
11.760000 32.942688 33.307069 33.827279 33.717722 34.058669 34.193445
11.800000 33.024918 33.419047 33.941880 33.825994 34.150025 34.289508
11.840000 33.168976 33.515608 34.049981 33.931981 34.240646 34.363879
11.880000 33.265604 33.616585 34.161302 34.038542 34.334391 34.470888
11.920000 33.395910 33.716245 34.268717 34.142311 34.423743 34.554862
11.960000 33.499111 33.816923 34.364858 34.241502 34.514410 34.660217
12.000000 33.621583 33.920802 34.457270 34.340443 34.607519 34.759667
12.040000 33.753778 34.018022 34.552586 34.441213 34.708418 34.855917
12.080000 33.861508 34.142537 34.649582 34.545651 34.805034 34.986914
12.120000 33.967699 34.270690 34.747278 34.650180 34.896680 35.090470
12.160000 34.069188 34.393855 34.833710 34.751979 34.987465 35.233068
12.200000 34.158983 34.526540 34.924676 34.856407 35.083203 35.357346
12.240000 34.268504 34.669839 35.027816 34.965923 35.188149 35.480824
12.280000 34.363517 34.810978 35.123792 35.076380 35.287101 35.609372
12.320000 34.472930 34.933323 35.221019 35.184015 35.398539 35.704463
12.360000 34.656436 35.065662 35.318493 35.300053 35.522955 35.824331
12.400000 34.820826 35.188678 35.423633 35.417714 35.631137 36.016042
12.440000 34.929587 35.323797 35.539163 35.537277 35.747647 36.178022
12.480000 35.072749 35.447332 35.664100 35.662386 35.882052 36.295817
12.500000 35.169016 35.502600 35.725973 35.725667 35.940030 36.362500
12.520000 35.229837 35.562499 35.785519 35.788678 36.001978 36.411612
12.560000 35.380657 35.697084 35.903693 35.924217 36.159751 36.521212
12.600000 35.521805 35.835703 36.031414 36.057782 36.304552 36.692411
12.640000 35.665067 35.946158 36.150762 36.179766 36.433648 36.842340
12.680000 35.790401 36.063265 36.265455 36.301603 36.594269 36.953538
12.700000 35.841632 36.113102 36.323296 36.361266 36.661299 37.021310
12.720000 35.884392 36.173196 36.375564 36.420137 36.730846 37.085711
12.760000 35.998461 36.274108 36.466878 36.524789 36.856261 37.191858
12.800000 36.106596 36.367964 36.565205 36.627142 36.967406 37.295129
12.840000 36.206084 36.468127 36.656859 36.726851 37.067447 37.401135
12.880000 36.287348 36.562228 36.751584 36.823238 37.181550 37.508714
12.920000 36.382803 36.646710 36.846760 36.921312 37.288176 37.608576
12.960000 36.479882 36.728350 36.943623 37.021180 37.401987 37.704454
13.000000 36.578787 36.814139 37.037366 37.120627 37.510061 37.821408
13.040000 36.697205 36.908485 37.150127 37.221423 37.622354 37.881810
13.080000 36.790559 37.001715 37.254782 37.325989 37.724501 38.059013
13.120000 36.888631 37.089307 37.353461 37.424140 37.824928 38.120069
13.160000 36.984436 37.176012 37.448653 37.524663 37.935585 38.214493
13.200000 37.080651 37.267018 37.557693 37.625767 38.041250 38.322982
13.240000 37.175387 37.363403 37.679832 37.731764 38.146860 38.436541
13.280000 37.277366 37.447707 37.795027 37.834345 38.249879 38.528920
13.320000 37.373507 37.540650 37.899811 37.936375 38.359807 38.621728
13.360000 37.477541 37.646554 38.009709 38.043624 38.475169 38.712572
13.400000 37.580844 37.754819 38.128163 38.158762 38.603625 38.816517
13.440000 37.674564 37.863886 38.238399 38.272545 38.711784 38.941644
13.480000 37.774975 37.990117 38.364402 38.393724 38.819369 39.065771
13.520000 37.881695 38.113472 38.516623 38.523473 38.929457 39.181761
13.560000 37.998289 38.275577 38.673998 38.667752 39.072485 39.343489
13.600000 38.104127 38.406517 38.825753 38.817013 39.197827 39.491214
13.640000 38.250411 38.556441 38.995969 38.973055 39.349345 39.691841
13.680000 38.385786 38.734996 39.173223 39.136299 39.518802 39.852219
13.720000 38.527791 38.892596 39.324306 39.296910 39.672679 40.017210
13.760000 38.671703 39.051579 39.470124 39.455342 39.831179 40.140944
