depth(m) lower_95(kyr) lower_68(kyr) median(kyr) mean(kyr) upper_68(kyr) upper_95(kyr)
0.045000 2.356278 3.226466 4.055090 4.036260 4.864088 5.621467
0.167500 2.734275 3.649475 4.483237 4.479417 5.305754 6.142869
0.290000 3.105999 4.053739 4.968161 4.928270 5.756640 6.623767
0.412500 3.619601 4.466545 5.390905 5.382345 6.266523 7.155182
0.535000 4.022835 4.958105 5.859360 5.845090 6.736799 7.662004
0.660000 4.486831 5.420632 6.319798 6.353481 7.301541 8.205597
0.785000 4.975973 5.910145 6.821064 6.861156 7.831556 8.915026
0.910000 5.513890 6.396739 7.324182 7.365613 8.392214 9.390504
1.035000 6.007030 6.926802 7.886291 7.903062 8.923145 9.942768
1.162500 6.551273 7.542621 8.505246 8.528723 9.589497 10.474586
1.290000 7.347135 8.211053 9.191954 9.185790 10.159766 10.926347
1.417500 7.993858 8.917688 9.883724 9.829276 10.692479 11.463546
1.545000 8.878563 9.640242 10.509309 10.471746 11.293441 11.895272
1.670000 9.593733 10.451723 11.181033 11.143947 11.868207 12.420057
1.755000 9.972810 10.865256 11.599354 11.541388 12.227085 12.791739
1.840000 10.489125 11.309814 11.958654 11.923382 12.552213 13.133493
1.942500 11.087005 11.758422 12.412254 12.386552 12.992048 13.542279
2.045000 11.645871 12.250042 12.838730 12.833561 13.405021 13.941139
2.120000 12.020938 12.567979 13.160418 13.146390 13.703932 14.261068
2.200000 12.310645 12.855792 13.468537 13.478155 14.083552 14.601804
2.280000 12.575049 13.188155 13.792334 13.790543 14.416302 14.982286
2.403333 12.979905 13.620819 14.218986 14.232613 14.888753 15.437911
2.526667 13.386674 14.003159 14.653422 14.658994 15.308228 15.946676
2.650000 13.775333 14.433468 15.095551 15.101297 15.773892 16.426045
2.777857 14.111351 14.814335 15.515935 15.547456 16.280385 16.985104
2.905714 14.472621 15.214657 15.966920 15.978938 16.761727 17.553928
3.033571 14.800840 15.577836 16.384014 16.402632 17.215672 18.207670
3.161429 15.166533 15.974042 16.795316 16.828875 17.658042 18.935374
3.289286 15.513040 16.351903 17.216952 17.252285 18.105142 19.377038
3.417143 15.818579 16.716805 17.598724 17.659708 18.559746 19.948681
3.545000 16.187972 17.079508 17.970601 18.057313 18.984718 20.479354
3.667500 16.558040 17.402051 18.345393 18.434910 19.391692 20.974114
3.790000 16.877874 17.738502 18.707959 18.805599 19.836616 21.433589
3.912500 17.188503 18.089688 19.037687 19.173927 20.240487 21.937806
4.035000 17.477506 18.409076 19.387763 19.536604 20.625170 22.422637
4.162500 17.738974 18.765928 19.771769 19.913713 21.004122 23.092557
4.290000 18.105272 19.108356 20.111859 20.290444 21.438786 23.544760
4.417500 18.389772 19.450962 20.531976 20.664931 21.839703 23.941290
4.545000 18.732594 19.770414 20.901321 21.043609 22.289129 24.272575
4.690385 19.116477 20.211967 21.290071 21.492291 22.870550 24.796052
4.835769 19.419408 20.577314 21.739500 21.941854 23.303578 25.361762
4.981154 19.803822 20.977004 22.194341 22.381728 23.834459 25.791893
5.126538 20.184939 21.388853 22.633675 22.810582 24.273934 26.293743
5.271923 20.503718 21.791688 23.086294 23.282069 24.799718 26.957259
5.417308 20.853760 22.234798 23.564001 23.744381 25.308007 27.672163
5.562692 21.263463 22.586205 24.036926 24.229184 25.965796 28.268177
5.708077 21.696840 22.988812 24.531265 24.701593 26.493027 28.778763
5.853462 22.068009 23.412680 25.000882 25.185578 27.094647 29.234677
5.998846 22.456472 23.819398 25.484659 25.695754 27.683207 29.772861
6.144231 22.922022 24.292286 25.938972 26.208171 28.259475 30.343447
6.289615 23.340478 24.845373 26.497285 26.739554 28.801302 30.803919
6.435000 23.777168 25.410000 27.131684 27.293527 29.282847 31.392700
6.562500 24.289739 25.923163 27.731248 27.872126 29.878260 32.171072
6.690000 24.878497 26.373444 28.342790 28.474239 30.685754 32.818416
6.817500 25.349856 26.917259 28.952446 29.087434 31.341006 33.473277
6.945000 25.862257 27.536513 29.659147 29.744820 31.912774 34.391334
7.085714 26.557782 28.154735 30.423185 30.483622 32.671920 35.208988
7.226429 27.170111 28.749800 31.046033 31.200973 33.461496 36.153737
7.367143 27.838540 29.566262 31.794204 31.932880 34.200306 36.985421
7.507857 28.505927 30.325283 32.475623 32.672009 34.994565 37.930825
7.648571 29.135540 31.134804 33.078993 33.411709 35.722506 39.226354
7.789286 29.762339 31.902661 33.786573 34.127968 36.475823 40.103960
7.930000 30.686538 32.682635 34.459840 34.893253 37.265031 40.961468
8.058750 31.253403 33.348391 35.005817 35.547879 37.963030 41.877712
8.187500 31.848795 34.080255 35.638093 36.200327 38.642496 42.490698
8.316250 32.532059 34.646797 36.309424 36.837547 39.413735 43.082424
8.445000 33.283873 35.337616 36.955679 37.494509 40.089538 43.712466
8.582500 33.866784 35.933989 37.693644 38.186970 40.719475 44.399719
8.720000 34.664052 36.593290 38.404063 38.877867 41.616009 45.013400
8.857500 35.323651 37.097344 39.091105 39.539812 42.323604 45.645489
8.995000 36.018922 37.678484 39.753905 40.200447 43.122694 46.216686
9.132500 36.705276 38.294915 40.368141 40.813605 43.694238 46.686572
9.270000 37.198313 38.858539 41.059166 41.455590 44.413360 47.157584
9.407500 37.861251 39.420123 41.679743 42.092618 45.168276 47.598782
9.545000 38.373199 40.059657 42.321500 42.717058 45.793309 48.144035
9.682500 38.824289 40.621206 42.968632 43.329827 46.475809 48.539038
9.820000 39.362311 41.227394 43.587330 43.976063 47.156175 49.158363
9.957500 39.959099 41.780090 44.164930 44.602590 47.766501 49.586594
10.095000 40.594734 42.405054 44.779263 45.233737 48.373107 50.056374
10.217500 41.094947 42.894556 45.380515 45.769480 48.886817 50.463427
10.340000 41.416630 43.317624 45.987309 46.296196 49.433604 50.959135
10.462500 42.132449 43.774345 46.480012 46.811293 49.993778 51.505539
10.585000 42.644820 44.238824 47.176508 47.306904 50.433369 52.086193
10.710000 43.095541 44.730073 47.789694 47.827821 50.861876 52.497412
10.835000 43.503035 45.192975 48.428216 48.329807 51.329648 52.983276
10.960000 43.980130 45.647670 49.147440 48.833455 51.736525 53.461840
11.085000 44.580474 46.111911 49.837612 49.341255 52.130923 54.054894
11.210000 44.972873 46.648124 50.413205 49.851084 52.564382 54.727021
11.335000 45.419263 47.175323 50.906849 50.341191 52.947772 55.333878
11.460000 45.884667 47.666882 51.303596 50.809520 53.344163 55.778674
11.585000 46.354414 48.146126 51.790428 51.283003 53.725115 56.162935
11.710000 46.799248 48.655446 52.271648 51.754355 54.197946 56.664015
11.835000 47.221188 49.067731 52.684833 52.202225 54.641827 57.142159
11.960000 47.574863 49.556702 53.093045 52.642509 55.030361 57.547922
12.085000 48.015525 50.001539 53.567697 53.059529 55.412362 58.035263
12.223889 48.562638 50.516535 53.991318 53.550813 55.874514 58.448499
12.362778 49.248171 51.073703 54.429035 54.023712 56.389410 58.713495
12.501667 49.665208 51.595512 54.878653 54.498415 56.878393 59.251351
12.640556 50.053963 52.111755 55.325323 54.969570 57.384231 59.606829
12.779444 50.448608 52.779375 55.771285 55.431433 57.753395 60.010547
12.918333 50.881444 53.407443 56.171101 55.877291 58.117515 60.375440
13.057222 51.441253 53.913654 56.561346 56.344320 58.553046 60.780111
13.196111 51.824199 54.513622 56.965166 56.798465 58.925599 61.167399
13.335000 52.199428 55.132050 57.429418 57.256042 59.419634 61.486206
13.473889 52.569652 55.603447 57.867757 57.718931 59.814037 61.919226
13.612778 53.037002 56.018706 58.289464 58.176065 60.321926 62.414025
13.751667 53.548305 56.489997 58.730605 58.625213 60.808075 62.818752
13.890556 54.025389 57.036190 59.179345 59.077815 61.231816 63.214599
14.029444 54.629834 57.487051 59.690763 59.531179 61.675942 63.621597
14.168333 55.054749 57.943542 60.158190 59.987106 62.073688 64.031912
14.307222 55.500977 58.404065 60.609621 60.432566 62.478649 64.351551
14.446111 56.018455 58.982885 61.051103 60.896505 62.970561 64.762034
14.585000 56.561211 59.444180 61.444022 61.344765 63.387779 65.157261
14.716250 56.979654 59.852135 61.862057 61.756488 63.725197 65.520768
14.847500 57.689075 60.252227 62.303929 62.192907 64.207845 65.890205
14.978750 58.524265 60.665733 62.769130 62.658703 64.604383 66.348076
15.110000 59.060200 61.144481 63.244906 63.117678 65.028594 66.723349
15.241250 59.590526 61.571855 63.698090 63.587187 65.460586 67.156694
15.372500 60.110481 62.123915 64.136672 64.080075 65.896813 67.580730
15.503750 60.832396 62.630009 64.649967 64.562095 66.369096 68.023991
15.635000 61.389556 63.156950 65.151800 65.063311 66.872539 68.522987
15.760000 61.991037 63.721956 65.651102 65.557161 67.334986 68.993555
15.885000 62.634159 64.321369 66.130012 66.057014 67.763338 69.379933
16.010000 63.076611 65.000331 66.664929 66.586853 68.147537 69.887469
16.135000 63.711783 65.599788 67.185861 67.124955 68.633812 70.346696
16.260000 64.405156 66.254136 67.730574 67.733048 69.200634 70.938194
16.385000 65.053902 66.899962 68.327556 68.339026 69.737468 71.575929
16.510000 65.889001 67.646811 69.002279 69.021884 70.413949 72.281476
16.635000 66.769491 68.327896 69.626535 69.713202 71.081674 72.980683
16.760000 67.583774 69.201548 70.437100 70.534973 72.043976 73.702404
16.885000 68.478126 69.954270 71.310319 71.385282 72.836581 74.519176
17.010000 69.397146 70.736203 72.127760 72.245616 73.852288 75.227686
17.135000 70.232353 71.478021 73.066773 73.105645 74.717409 76.266688
17.260000 70.928863 72.205255 73.953841 73.942180 75.547489 77.144844
17.385000 71.659354 73.076257 74.769811 74.753180 76.391017 77.970808
17.510000 72.333615 73.841391 75.610262 75.559382 77.194836 78.702936
17.635000 72.958984 74.742450 76.405673 76.377121 78.067717 79.450954
17.760000 73.711204 75.492899 77.137573 77.120872 78.759868 80.137681
17.885000 74.465796 76.229805 77.884010 77.834922 79.387672 80.711086
18.010000 75.135991 77.064951 78.609628 78.565520 80.023844 81.420411
18.135000 75.959635 77.800594 79.374353 79.264635 80.612752 82.118704
18.262500 76.783255 78.569293 80.105350 80.022481 81.372823 83.080363
18.390000 77.595618 79.415809 80.793085 80.739316 82.073523 83.796155
18.517500 78.587991 80.093847 81.453065 81.438659 82.706862 84.402129
18.645000 79.373956 80.811582 82.124740 82.148305 83.473216 85.130761
18.786429 80.027344 81.537197 82.868669 82.864239 84.191439 85.945963
18.927857 80.688360 82.157353 83.500264 83.556094 84.966876 86.801240
19.069286 81.166098 82.773478 84.182019 84.257000 85.783360 87.619621
19.210714 81.938566 83.385320 84.841206 84.958578 86.686271 88.680743
19.352143 82.494905 84.012412 85.524767 85.639982 87.364247 89.495137
19.493571 83.103585 84.654072 86.127859 86.325555 88.162887 90.324111
19.635000 83.786271 85.280099 86.835564 87.022352 88.845128 91.187187
19.762500 84.613937 85.998763 87.581568 87.708936 89.453511 91.646967
19.890000 85.356459 86.698897 88.336771 88.435284 90.092282 92.224001
20.017500 86.125613 87.443626 89.101057 89.145979 90.837565 92.748151
20.145000 86.812448 88.161509 89.915471 89.874397 91.505187 93.322759
20.270000 87.351954 88.910232 90.768582 90.643215 92.360715 93.896212
20.395000 88.037381 89.744053 91.548591 91.459684 93.162461 94.600907
20.520000 88.846839 90.589847 92.385244 92.262730 93.839056 95.212837
20.645000 89.400924 91.557495 93.184063 93.049923 94.503992 95.730994
20.786429 90.315083 92.443997 93.989323 93.829931 95.274873 96.485216
20.927857 91.425600 93.249099 94.758191 94.610615 95.968876 97.110647
21.069286 92.314276 94.007796 95.431428 95.342816 96.659074 97.653623
21.210714 93.139421 94.867847 96.194357 96.094121 97.319487 98.235981
21.352143 94.467397 95.768088 96.894652 96.843386 97.940323 98.930846
21.493571 95.492880 96.636139 97.629894 97.609053 98.614249 99.490801
21.635000 96.477155 97.428118 98.361323 98.367799 99.363502 100.242781
