depth(m) lower_95(kyr) lower_68(kyr) median(kyr) mean(kyr) upper_68(kyr) upper_95(kyr)
61.800000 1493.420313 1497.002907 1499.732532 1499.407187 1501.867204 1503.310234
61.900000 1496.259920 1499.319215 1501.756914 1501.456550 1503.578340 1504.996087
61.980000 1498.248882 1501.159610 1503.362538 1503.136226 1505.047721 1506.448685
62.100000 1502.111851 1504.228403 1505.887337 1505.733638 1507.281492 1508.528117
62.200000 1505.128243 1506.680287 1508.111737 1508.072634 1509.442854 1510.842667
62.300000 1507.269822 1508.840722 1510.134852 1510.135450 1511.462914 1512.818571
62.400000 1509.117419 1510.632093 1511.930175 1511.912260 1513.197645 1514.588327
62.500000 1510.931904 1512.405394 1513.706123 1513.661843 1514.974382 1516.124872
62.600000 1512.879601 1514.169844 1515.444218 1515.428654 1516.644830 1517.858590
62.700000 1514.723820 1516.118684 1517.256239 1517.282096 1518.553757 1519.736331
62.800000 1516.860542 1518.126593 1519.291209 1519.295985 1520.565982 1521.734672
62.900000 1519.204468 1520.344617 1521.597403 1521.601957 1522.836595 1524.105202
63.000000 1521.768640 1523.036304 1524.364252 1524.418362 1525.682378 1527.463337
63.100000 1524.168478 1525.790736 1527.380532 1527.673827 1529.654739 1532.317514
63.200000 1526.906292 1528.681120 1531.194084 1531.209321 1533.530704 1536.070704
63.300000 1530.120270 1532.686836 1535.386419 1535.273564 1537.651627 1540.359543
63.400000 1536.148519 1538.275211 1540.440632 1540.632663 1543.031369 1545.961553
63.480000 1539.183288 1541.114608 1543.537045 1543.714029 1546.180160 1548.923926
63.590000 1542.380670 1544.530427 1547.076155 1547.059541 1549.504479 1552.111297
63.700000 1545.508620 1547.657672 1550.229704 1550.135239 1552.499915 1554.682963
63.800000 1547.877956 1550.345537 1552.686762 1552.629243 1554.985576 1557.006995
63.900000 1550.048891 1552.805734 1555.162979 1555.031027 1557.243624 1559.110657
64.000000 1552.847420 1555.395422 1557.537299 1557.438907 1559.485242 1561.150912
64.100000 1556.221270 1558.162976 1560.075022 1559.938364 1561.669497 1563.263893
64.200000 1559.065320 1561.024635 1562.675885 1562.553643 1564.134858 1565.459205
64.300000 1562.410168 1564.197499 1565.730129 1565.681812 1567.131148 1568.575934
64.400000 1566.491803 1568.252391 1569.999453 1570.189843 1572.018205 1574.870567
64.500000 1570.367614 1572.196226 1574.097185 1574.181736 1576.201648 1578.502407
64.600000 1574.657848 1576.386774 1578.224101 1578.288850 1580.264749 1582.440138
64.620000 1575.361777 1577.022964 1578.935561 1578.977391 1580.893077 1583.061334
64.700000 1577.947078 1579.614096 1581.567204 1581.618934 1583.614824 1585.857487
64.800000 1580.807188 1582.828776 1584.945575 1584.965895 1587.004989 1589.187621
64.900000 1584.653701 1586.632525 1588.627074 1588.686132 1590.825429 1592.637578
64.980000 1587.158430 1589.160586 1591.281362 1591.247056 1593.266804 1595.366920
65.000000 1587.926202 1589.717639 1591.949753 1591.841956 1593.867516 1595.864888
65.100000 1590.450441 1592.478715 1594.371764 1594.313871 1596.110166 1597.970507
65.200000 1593.267750 1595.213127 1596.852294 1596.824570 1598.472762 1600.081316
65.300000 1596.247057 1597.937481 1599.434763 1599.398340 1600.971412 1602.277347
65.400000 1598.978374 1600.339402 1601.812276 1601.830112 1603.309980 1604.710263
65.500000 1601.237920 1602.616830 1604.059546 1604.038885 1605.470906 1606.896552
65.570000 1602.920489 1604.083042 1605.613875 1605.612977 1606.988824 1608.554632
65.600000 1603.605112 1604.871972 1606.325303 1606.369110 1607.807353 1609.411069
65.700000 1605.676764 1607.135696 1608.793019 1608.901766 1610.625809 1612.811442
65.800000 1607.711651 1609.231346 1610.913871 1611.336717 1613.435588 1616.971272
65.900000 1609.798980 1611.161523 1613.401867 1613.942080 1616.660371 1621.557214
65.980000 1611.383129 1612.837771 1615.342720 1616.066706 1619.428409 1624.521987
66.000000 1611.939321 1613.380564 1615.939361 1616.643634 1620.072239 1625.177735
66.080000 1613.532363 1615.445442 1618.459193 1619.110151 1622.971588 1627.432363
66.200000 1616.154733 1618.925260 1622.663302 1622.817772 1626.820535 1630.659245
66.300000 1618.653986 1621.930204 1626.011338 1625.859240 1629.823466 1633.045606
66.400000 1621.576441 1625.105712 1629.059393 1628.775495 1632.372054 1634.978105
66.500000 1624.491964 1628.456525 1632.126939 1631.726804 1635.007284 1637.118100
66.600000 1627.704088 1631.823986 1634.772739 1634.498439 1637.209023 1639.400658
66.700000 1631.279026 1635.132238 1637.537147 1637.287689 1639.589735 1641.400398
66.800000 1635.607833 1638.148784 1640.314483 1640.167054 1642.209230 1644.074062
66.900000 1639.208012 1641.638775 1643.553966 1643.490373 1645.400166 1647.288902
67.000000 1643.286011 1645.123064 1647.017572 1647.217838 1649.250529 1652.540222
67.080000 1645.462756 1647.328574 1649.356511 1649.580605 1651.833365 1655.250045
67.200000 1648.256206 1650.499501 1652.919450 1653.016265 1655.553021 1658.150993
67.300000 1650.454148 1653.025455 1655.837977 1655.706132 1658.328513 1660.456114
67.400000 1653.149139 1655.749648 1658.485030 1658.281884 1660.732533 1662.315179
67.500000 1655.806982 1658.287512 1660.866363 1660.579117 1662.827234 1664.091207
67.600000 1658.224927 1660.787885 1662.992862 1662.756859 1664.672123 1665.880206
67.700000 1660.813759 1663.175113 1665.046717 1664.811929 1666.412170 1667.463849
67.800000 1663.659230 1665.536781 1667.017624 1666.820721 1668.091996 1668.993339
67.900000 1666.552138 1667.832938 1668.956819 1668.888071 1669.918381 1670.885482
68.000000 1668.771850 1669.743163 1670.764571 1670.757710 1671.700535 1672.897112
68.100000 1670.993134 1671.931858 1672.904066 1672.989712 1673.968240 1676.012250
68.180000 1672.577313 1673.580537 1674.748866 1674.927274 1676.219394 1678.436824
68.200000 1672.973090 1674.029408 1675.307063 1675.434020 1676.772291 1679.131013
68.300000 1675.025378 1676.114101 1677.589224 1677.811344 1679.554916 1681.769213
68.400000 1676.742939 1678.196984 1680.096831 1680.211567 1682.203088 1684.191098
68.500000 1678.794273 1680.600433 1682.706260 1682.817126 1684.997639 1687.310616
68.600000 1681.270632 1683.327946 1685.688326 1685.694802 1687.970733 1689.865456
68.700000 1683.839569 1685.892500 1688.354403 1688.246043 1690.465044 1692.256441
68.800000 1686.348758 1688.451905 1690.819435 1690.673978 1692.765298 1694.224479
68.900000 1688.693573 1691.273580 1693.217700 1693.052177 1694.793867 1696.076487
69.000000 1691.943545 1694.098639 1695.598933 1695.443904 1696.835729 1697.868941
69.100000 1694.953612 1696.472051 1697.689865 1697.650398 1698.834038 1700.018214
69.200000 1697.192729 1698.254333 1699.487360 1699.445688 1700.562632 1701.817634
69.300000 1698.897369 1699.815735 1701.046565 1701.057519 1702.262240 1703.562490
69.410000 1700.408029 1701.554301 1702.752546 1702.804686 1704.022223 1705.317074
69.500000 1701.765098 1703.085803 1704.207096 1704.295590 1705.582927 1707.241195
69.600000 1703.604256 1704.815212 1706.046238 1706.158766 1707.483603 1709.337694
69.680000 1705.101216 1706.235055 1707.576128 1707.723060 1709.212286 1711.062697
69.800000 1707.226235 1708.605552 1710.118683 1710.419452 1712.085621 1715.186895
69.900000 1709.082828 1710.776539 1712.806722 1713.070745 1715.341360 1718.650411
70.000000 1710.767320 1712.928762 1715.605053 1715.683946 1718.370978 1721.427068
70.100000 1713.094865 1715.473179 1718.392063 1718.385949 1721.123794 1723.902379
70.200000 1715.370894 1718.086947 1720.982172 1720.920614 1723.633545 1726.181100
70.310000 1717.645191 1720.513846 1723.357389 1723.277195 1726.057149 1728.938668
70.400000 1719.639351 1722.153646 1725.254659 1725.200388 1727.926976 1731.519861
70.500000 1721.502115 1724.217255 1727.298332 1727.307156 1730.177067 1733.623230
70.600000 1723.391029 1726.226947 1729.560160 1729.550854 1732.770081 1736.040114
70.700000 1725.322939 1728.665929 1731.993515 1732.000653 1735.472797 1738.388119
70.800000 1727.355373 1731.019459 1734.483031 1734.381325 1737.798810 1740.674779
70.900000 1729.775870 1733.651789 1737.041049 1736.877262 1740.024324 1742.535321
71.000000 1732.737160 1736.315141 1739.567190 1739.329487 1742.230890 1744.747631
71.100000 1735.355490 1739.141330 1741.865909 1741.735723 1744.557073 1746.673739
71.180000 1737.418958 1741.048432 1743.602151 1743.510633 1746.121353 1748.597996
71.300000 1740.706971 1743.665912 1746.112176 1746.045311 1748.358320 1750.702672
71.400000 1743.050655 1745.811887 1748.239962 1748.207650 1750.576270 1753.401945
71.475000 1744.802251 1747.538880 1749.878782 1749.883159 1752.380916 1755.404656
71.550000 1746.431313 1749.020483 1751.422515 1751.529556 1754.110498 1757.410465
71.650000 1748.636107 1751.160187 1753.713927 1753.824715 1756.538056 1759.603536
71.750000 1751.098360 1753.400004 1756.125436 1756.224739 1758.846596 1762.209456
71.800000 1752.300342 1754.542361 1757.394192 1757.474143 1760.147907 1763.479591
71.875000 1753.837582 1756.329169 1759.204840 1759.240435 1762.059050 1765.370363
71.950000 1755.304987 1758.203573 1760.986614 1761.001274 1763.809145 1767.219642
72.025000 1757.172511 1759.920236 1762.665952 1762.783711 1765.561550 1768.752629
72.100000 1758.738603 1761.880275 1764.686816 1764.629977 1767.411423 1770.123741
72.175000 1760.737703 1763.747583 1766.500561 1766.494154 1769.280599 1771.825788
72.250000 1762.869588 1765.609536 1768.397715 1768.360056 1771.000692 1773.354704
72.325000 1764.550990 1767.791312 1770.320949 1770.266777 1772.887302 1775.206081
72.400000 1766.764368 1769.861319 1772.311648 1772.218256 1774.623175 1776.898469
72.500000 1770.267573 1772.953882 1775.083649 1775.086803 1777.243751 1779.373393
72.600000 1773.776020 1776.041958 1778.332174 1778.262253 1780.551819 1782.231395
72.680000 1776.288769 1778.475679 1780.578577 1780.518536 1782.638524 1784.379618
72.800000 1779.721887 1781.700741 1783.736900 1783.663330 1785.692110 1787.248549
72.900000 1782.300571 1784.070531 1785.961298 1785.938188 1787.791243 1789.498455
73.000000 1784.481274 1786.272175 1788.006072 1787.963070 1789.689249 1791.603671
73.100000 1786.796305 1788.179820 1789.928498 1789.876331 1791.480821 1793.487427
73.200000 1788.699884 1790.071985 1791.695700 1791.691533 1793.253694 1795.095053
73.300000 1790.318153 1791.845731 1793.524015 1793.519595 1795.129933 1796.861041
73.400000 1792.254389 1793.740034 1795.399144 1795.378590 1797.061688 1798.679883
73.500000 1794.207570 1795.713097 1797.295965 1797.391138 1799.080806 1800.780101
73.600000 1796.237868 1797.916398 1799.611675 1799.695356 1801.485258 1803.449235
73.700000 1798.737018 1800.254951 1802.119728 1802.307821 1804.285230 1807.117047
73.800000 1801.214936 1802.962118 1805.066930 1805.402757 1807.827089 1811.953176
73.900000 1803.208573 1805.271128 1807.811300 1808.173053 1811.085530 1815.355889
74.000000 1805.419453 1807.836191 1810.643699 1810.944313 1813.890257 1817.871536
74.100000 1807.254560 1810.447221 1813.734364 1813.785207 1816.969939 1821.064228
74.180000 1809.005583 1812.764111 1816.185151 1816.108414 1819.346271 1823.668423
74.300000 1812.390404 1816.270911 1819.662812 1819.625326 1822.871961 1826.298066
74.400000 1815.066050 1819.254257 1822.614189 1822.569317 1825.965432 1829.240341
74.500000 1817.998496 1822.374185 1825.787438 1825.559940 1828.810660 1831.714915
74.600000 1820.731516 1825.123952 1828.886404 1828.544626 1831.815319 1834.619777
74.700000 1823.595102 1828.282962 1831.770366 1831.464230 1834.625616 1837.428226
74.800000 1827.235512 1831.622865 1834.442738 1834.382873 1837.398964 1840.329798
74.900000 1830.471919 1834.380210 1837.113962 1837.049215 1840.080413 1843.034660
75.000000 1833.397163 1836.740038 1839.688832 1839.643727 1842.612804 1845.468567
75.100000 1836.185148 1839.161239 1842.130931 1842.131848 1845.163759 1847.987103
75.200000 1838.335861 1841.486051 1844.433168 1844.472322 1847.631353 1850.060686
75.300000 1840.626008 1843.895294 1846.793833 1846.845564 1849.848780 1852.431242
75.400000 1843.545039 1846.588524 1849.476418 1849.509331 1852.463072 1855.502951
75.500000 1846.233583 1849.024534 1852.152907 1852.109365 1855.206562 1857.951800
75.600000 1848.478539 1851.336563 1854.386442 1854.474067 1857.650316 1860.287421
75.680000 1850.575236 1853.369610 1856.451849 1856.420134 1859.498908 1861.871886
75.800000 1852.682387 1856.458836 1859.388913 1859.222496 1862.117468 1864.459645
75.900000 1854.293192 1858.926099 1861.787081 1861.535043 1864.359981 1866.673340
76.000000 1856.997349 1861.088258 1864.062483 1863.784135 1866.596866 1868.832443
76.050000 1858.115148 1862.155982 1865.139020 1864.864803 1867.664321 1869.867286
76.100000 1859.704976 1863.215010 1866.212106 1865.937234 1868.713718 1870.877099
76.200000 1862.497994 1865.391701 1868.259928 1868.059611 1870.666037 1872.847748
76.300000 1865.326921 1867.797252 1870.403988 1870.240096 1872.594609 1874.662220
76.400000 1867.408020 1869.916967 1872.470688 1872.309551 1874.690918 1876.669661
76.500000 1869.293489 1871.788639 1874.496560 1874.341066 1876.701085 1878.925022
76.600000 1871.503586 1873.739716 1876.388369 1876.310206 1878.752027 1881.178338
76.700000 1873.304189 1875.635500 1878.411442 1878.313462 1880.789703 1883.242861
76.800000 1875.473876 1877.885338 1880.461630 1880.394460 1882.931446 1884.932997
76.890000 1877.397645 1879.811023 1882.461584 1882.387402 1884.834934 1886.981857
77.000000 1879.898245 1882.551160 1885.024792 1884.984471 1887.370897 1889.469766
77.100000 1882.348463 1885.126282 1887.335455 1887.329696 1889.631848 1891.589767
77.200000 1885.241832 1887.614509 1889.777459 1889.757423 1891.938453 1893.573848
77.280000 1887.704058 1889.742053 1891.700738 1891.683682 1893.751677 1895.431728
77.400000 1891.084657 1892.530005 1894.633977 1894.573146 1896.605862 1898.042444
77.410000 1891.397538 1892.774798 1894.863006 1894.808917 1896.818984 1898.297865
77.490000 1893.301778 1894.368549 1896.507504 1896.552833 1898.683675 1900.055194
77.500000 1893.515593 1894.608007 1896.712185 1896.774654 1898.920727 1900.237101
77.590000 1895.136892 1896.553021 1898.653512 1898.661583 1900.800436 1901.826051
77.600000 1895.364623 1896.802478 1898.864821 1898.878580 1901.007134 1902.055045
77.680000 1896.893183 1898.586415 1900.595746 1900.521429 1902.565107 1903.643843
77.700000 1897.349856 1899.046300 1901.022609 1900.947497 1902.972387 1904.004367
77.790000 1899.350329 1900.983811 1902.852248 1902.772478 1904.617340 1905.504987
77.800000 1899.523108 1901.281186 1903.091972 1903.007217 1904.806695 1905.729760
77.890000 1902.724562 1903.947780 1905.435489 1905.323703 1906.672097 1907.595165
77.900000 1902.948203 1904.160087 1905.717141 1905.560002 1906.883192 1907.796483
78.000000 1905.566306 1906.775696 1907.864793 1907.828252 1908.907467 1909.989716
78.090000 1908.049895 1909.104271 1910.192059 1910.264736 1911.430320 1912.867662
78.100000 1908.262805 1909.305117 1910.420539 1910.502116 1911.658417 1913.159263
78.200000 1910.084793 1911.222975 1912.494091 1912.593648 1913.976548 1915.622596
78.290000 1911.665033 1912.834374 1914.256490 1914.372233 1915.894416 1917.615896
78.370000 1912.845496 1914.263194 1915.833739 1915.947632 1917.730620 1919.308413
78.480000 1914.791371 1916.164719 1918.010496 1918.063861 1919.963221 1921.713258
78.590000 1916.707238 1918.263172 1920.212868 1920.282268 1922.213894 1924.556919
78.690000 1918.479011 1920.548902 1922.577899 1922.666739 1924.878684 1927.344041
78.780000 1920.926319 1923.001787 1925.145104 1925.203685 1927.440489 1929.776964
78.890000 1923.731613 1925.831663 1928.129258 1928.273315 1930.831975 1933.443828
78.990000 1926.319267 1928.373616 1930.985586 1931.000257 1933.514948 1936.051849
79.090000 1928.496732 1931.045228 1933.586543 1933.682901 1936.415717 1938.666248
79.180000 1930.514777 1933.316068 1936.132828 1936.002652 1938.610660 1941.020374
79.300000 1934.876148 1937.349365 1939.950147 1939.814467 1942.207008 1944.503038
79.400000 1938.532515 1940.538572 1942.725273 1942.730097 1944.982300 1946.636169
79.500000 1940.988258 1943.167938 1945.100299 1945.041274 1946.983821 1948.436595
79.600000 1943.548864 1945.599542 1947.410727 1947.258277 1948.900603 1950.085493
79.700000 1945.766882 1947.953229 1949.557164 1949.436592 1950.800370 1952.182425
79.800000 1948.413464 1950.247036 1951.626888 1951.571287 1952.843242 1954.542723
79.890000 1951.062939 1952.434152 1953.635843 1953.806086 1955.155247 1957.330537
80.000000 1953.538703 1954.569529 1956.039010 1956.292796 1957.907553 1960.966865
80.100000 1955.148893 1956.410288 1958.159246 1958.376193 1960.267868 1963.178547
80.200000 1956.655554 1958.190841 1960.151559 1960.365831 1962.533369 1965.366190
80.270000 1957.554754 1959.459166 1961.663582 1961.807659 1964.109015 1966.918872
80.400000 1959.711568 1962.132769 1964.473644 1964.677815 1967.424431 1969.712090
80.500000 1961.422351 1963.828648 1966.661502 1966.627513 1969.385246 1971.586711
80.600000 1963.446503 1965.924997 1968.932841 1968.714374 1971.353205 1973.647709
80.700000 1965.344825 1968.097704 1970.953611 1970.785714 1973.278105 1975.484521
80.800000 1967.376817 1970.375168 1972.901835 1972.778530 1975.223801 1977.275964
80.933333 1969.586812 1972.786410 1975.183790 1975.081953 1977.398014 1979.397976
81.066667 1972.635581 1975.286323 1977.487643 1977.352712 1979.512670 1981.201567
81.200000 1975.271176 1977.832766 1979.603146 1979.564374 1981.458927 1983.084537
81.300000 1977.514285 1979.490474 1981.266825 1981.139956 1982.741412 1984.392232
81.390000 1979.237973 1980.961841 1982.578105 1982.507391 1983.994360 1985.546124
81.500000 1981.002629 1982.580109 1984.039383 1984.034139 1985.417772 1986.884980
81.600000 1982.464377 1984.011998 1985.417595 1985.363583 1986.740131 1987.991692
81.700000 1983.980019 1985.341664 1986.641786 1986.624298 1987.887547 1989.169571
81.780000 1985.054902 1986.355072 1987.583883 1987.594448 1988.826416 1990.095047
81.900000 1986.503576 1987.768037 1988.950341 1988.938647 1990.120137 1991.312398
82.000000 1987.689288 1988.961725 1990.106695 1990.096814 1991.249074 1992.312168
82.100000 1988.866654 1990.158506 1991.272308 1991.301793 1992.502421 1993.818323
82.180000 1989.783966 1991.093219 1992.199436 1992.231941 1993.447090 1994.748430
82.300000 1991.164248 1992.472439 1993.605561 1993.624325 1994.838794 1996.178798
82.400000 1992.454753 1993.542115 1994.707196 1994.778925 1996.048930 1997.502010
82.500000 1993.540196 1994.595592 1995.798524 1995.873098 1997.136118 1998.637171
82.600000 1994.542811 1995.649803 1996.829392 1996.909566 1998.139067 1999.880273
82.700000 1995.604770 1996.689537 1997.940369 1997.988117 1999.224386 2001.050382
82.800000 1996.584584 1997.742258 1998.891953 1999.043017 2000.238096 2002.709247
82.900000 1997.605865 1998.730411 1999.971351 2000.136416 2001.326349 2004.341650
83.000000 1998.582666 1999.729674 2000.979629 2001.281396 2002.478939 2006.177489
83.100000 1999.554131 2000.764083 2002.035077 2002.505287 2003.837211 2009.057374
83.200000 2000.466444 2001.661999 2002.970666 2003.660682 2005.228728 2011.939547
83.300000 2001.289022 2002.532567 2003.868601 2004.930384 2006.983716 2014.129036
83.400000 2002.054438 2003.431728 2004.775313 2007.212926 2010.032636 2039.201396
83.500000 2003.066636 2004.371722 2005.710277 2008.369009 2011.235322 2041.137999
83.575000 2003.755914 2005.123243 2006.430925 2009.658776 2012.678421 2042.692693
83.650000 2004.483248 2005.845383 2007.205014 2011.139857 2015.148022 2044.046569
83.725000 2005.235164 2006.627370 2008.012351 2012.830991 2018.558659 2045.100929
83.800000 2005.836917 2007.350052 2008.797388 2014.340407 2023.334242 2046.044778
83.900000 2006.760964 2008.289453 2009.692709 2015.690452 2041.641233 2046.936276
84.010000 2007.882730 2009.304130 2010.727100 2017.301554 2044.830488 2048.602585
84.100000 2008.742640 2010.228691 2011.531955 2018.331407 2046.442788 2049.608306
84.200000 2009.694484 2011.201654 2012.483897 2019.451757 2047.765679 2050.521529
84.290000 2010.654180 2012.114424 2013.405830 2020.398159 2048.884813 2051.672160
