depth(m) lower_95(kyr) lower_68(kyr) median(kyr) mean(kyr) upper_68(kyr) upper_95(kyr)
55.380000 1489.290732 1495.237059 1499.086787 1498.834606 1502.543487 1505.587840
55.490000 1496.371985 1500.533086 1503.936304 1503.605654 1506.636918 1509.427105
55.590000 1503.379856 1506.619303 1509.132025 1509.024152 1511.485609 1513.906897
55.680000 1508.256349 1510.785638 1513.064055 1513.002997 1515.364616 1517.214222
55.780000 1511.663401 1514.770197 1517.088337 1516.847693 1518.919266 1520.459723
55.880000 1515.788059 1518.680710 1520.637314 1520.494912 1522.374173 1524.028898
55.975000 1519.080160 1521.616456 1523.543402 1523.516942 1525.496706 1527.615016
56.070000 1522.737037 1524.609026 1526.264558 1526.469403 1528.488451 1530.719838
56.170000 1526.001529 1527.593494 1529.457670 1529.540780 1531.501579 1533.410121
56.270000 1528.921792 1530.586728 1532.565902 1532.566683 1534.462453 1536.406050
56.360000 1531.484207 1533.677695 1535.471378 1535.451160 1537.300934 1539.141613
56.470000 1535.012678 1537.458040 1539.435539 1539.517370 1541.663114 1544.853015
56.590000 1537.978820 1540.366295 1542.724880 1542.958199 1545.547760 1549.457306
56.710000 1540.544177 1543.105532 1545.849338 1546.231661 1549.479135 1553.967937
56.840000 1543.599323 1546.623909 1549.593919 1550.092900 1554.090661 1557.927784
56.980000 1547.848924 1551.045958 1554.648054 1554.785938 1558.647284 1561.798654
57.120000 1552.118116 1555.882672 1559.993233 1559.616942 1563.096082 1565.390072
57.240000 1556.658681 1561.429208 1564.343621 1563.959284 1566.586308 1568.406560
57.360000 1564.213567 1566.324817 1568.051821 1568.081960 1569.870567 1572.254493
57.430000 1567.075627 1568.670622 1570.131847 1570.319842 1572.086351 1574.340955
57.480000 1568.729443 1570.172181 1571.690308 1571.835650 1573.569093 1575.689302
57.580000 1571.459884 1572.880739 1574.481532 1574.656091 1576.437565 1578.613106
57.650000 1573.140077 1574.905780 1576.661308 1576.769147 1578.758082 1580.981286
57.680000 1573.948314 1575.786633 1577.685972 1577.782239 1579.642073 1582.051506
57.760000 1576.721722 1578.553326 1580.556226 1580.787742 1582.958131 1586.106974
57.780000 1577.233153 1579.223943 1581.268814 1581.492673 1583.694916 1586.886021
57.920000 1581.304127 1583.323079 1586.068661 1589.677540 1592.132833 1616.441330
57.970000 1582.621695 1584.870193 1587.835403 1591.408791 1594.424466 1617.859542
57.990000 1583.268234 1585.554671 1588.598925 1592.117647 1595.229463 1618.185462
58.080000 1586.047472 1588.717889 1593.641342 1599.166202 1616.140644 1620.867523
58.180000 1589.326071 1600.591106 1614.822922 1612.088761 1620.335809 1623.643329
58.210000 1590.104801 1603.502810 1615.790569 1613.132153 1621.085001 1624.597438
58.250000 1591.173572 1609.238502 1617.261558 1614.620519 1622.179245 1625.822175
58.280000 1592.193297 1610.463435 1618.207791 1615.564752 1623.043792 1626.594129
58.310000 1593.196838 1611.546671 1619.026953 1616.489396 1623.767756 1627.547142
58.360000 1595.240422 1613.328254 1620.574420 1618.588340 1625.050268 1628.860886
58.380000 1595.593198 1613.901721 1621.138324 1619.166353 1625.519295 1629.261146
58.430000 1599.706283 1615.380750 1622.529708 1621.081091 1626.781305 1630.473424
58.480000 1612.106036 1616.878501 1623.784261 1622.765238 1628.030483 1631.757475
58.530000 1614.610240 1618.348579 1625.218840 1624.273761 1629.297621 1633.187390
58.560000 1615.277573 1619.033307 1626.049712 1625.073949 1630.136267 1633.850141
58.590000 1616.432661 1619.949413 1626.911542 1625.911287 1630.821674 1634.606315
58.680000 1618.713297 1622.826285 1629.362455 1628.481947 1633.401506 1637.074663
58.780000 1621.365540 1626.500009 1631.999488 1631.453097 1636.296956 1639.318294
58.880000 1624.070720 1629.838251 1635.195983 1634.627830 1639.087722 1642.503624
58.970000 1627.333242 1633.623433 1638.097959 1637.466899 1641.355588 1644.098406
59.070000 1632.664594 1638.053471 1641.073434 1640.657177 1643.524445 1645.899602
59.140000 1636.363867 1640.349577 1642.804173 1642.608281 1645.012341 1647.161695
59.200000 1639.198391 1642.246220 1644.038322 1644.072175 1646.130882 1648.506139
59.240000 1640.816772 1643.297921 1644.984590 1645.025377 1646.973254 1649.226827
59.290000 1642.314885 1644.351835 1645.999844 1646.073729 1647.966823 1650.104553
59.350000 1643.607717 1645.527342 1647.115040 1647.208430 1649.004958 1651.157586
59.410000 1644.830325 1646.529187 1648.167232 1648.238915 1649.959844 1652.160540
59.530000 1647.040349 1648.623664 1650.182575 1650.250616 1651.906415 1653.853942
59.615000 1648.374283 1650.041222 1651.580705 1651.640727 1653.316615 1655.354672
59.700000 1649.850296 1651.416492 1652.941055 1653.012263 1654.647580 1656.501215
59.840000 1651.922561 1653.608231 1655.164947 1655.162357 1656.822065 1658.155858
59.980000 1654.117772 1655.741609 1657.318782 1657.309596 1658.886676 1660.164934
60.083333 1655.824196 1657.424221 1658.982796 1658.940127 1660.451326 1661.656414
60.186667 1657.546764 1659.075834 1660.686249 1660.597020 1662.034977 1663.329844
60.290000 1659.362253 1660.906793 1662.358338 1662.295682 1663.690298 1664.876647
60.370000 1660.567161 1662.392442 1663.841795 1663.709543 1665.087920 1666.074406
60.410000 1661.400620 1663.149465 1664.607094 1664.487023 1665.831720 1666.778895
60.440000 1662.229807 1663.787420 1665.277753 1665.129775 1666.453634 1667.507424
60.460000 1662.718650 1664.292580 1665.744905 1665.614056 1666.908875 1667.983481
60.490000 1663.377272 1665.019185 1666.559226 1666.403509 1667.718377 1668.869827
60.520000 1664.094950 1665.852885 1667.364657 1667.276726 1668.650043 1669.914521
60.570000 1665.445316 1667.451437 1668.927718 1668.980686 1670.592787 1672.281630
60.660000 1668.190335 1669.824432 1671.803127 1671.969209 1673.968304 1677.348472
60.750000 1670.427422 1672.381314 1674.689593 1674.928637 1677.485685 1681.132628
60.862500 1673.076243 1675.585070 1678.355579 1678.612142 1681.813018 1685.192944
60.975000 1675.761244 1679.131325 1682.223808 1682.273309 1685.604216 1688.438515
61.087500 1679.386014 1682.958358 1686.109307 1685.867603 1688.767251 1690.960170
61.200000 1683.363976 1687.166261 1689.920270 1689.505918 1691.793863 1693.247579
61.280000 1687.210685 1690.542883 1692.489879 1692.211293 1693.843466 1695.063017
61.310000 1688.281289 1691.675249 1693.547104 1693.196742 1694.742174 1695.938095
61.330000 1689.372401 1692.445544 1694.227545 1693.899499 1695.296177 1696.454274
61.360000 1691.178669 1693.671432 1695.235404 1695.028345 1696.373425 1697.465948
61.380000 1691.895018 1694.437930 1695.922005 1695.773765 1697.119653 1698.474875
61.430000 1694.704203 1696.334987 1697.653678 1697.705668 1698.985919 1700.859579
61.470000 1695.969525 1697.482373 1698.845216 1699.007311 1700.590391 1702.453037
61.540000 1697.811636 1699.315811 1701.071888 1701.215036 1703.114205 1705.643122
61.670000 1700.451576 1702.475030 1705.031787 1705.089309 1707.395625 1710.384937
61.795000 1703.533173 1705.981192 1708.944561 1709.354421 1712.654976 1717.663941
61.920000 1706.552211 1709.323879 1713.118152 1713.613199 1717.792237 1724.382837
62.005000 1708.109789 1711.264935 1715.899714 1716.428908 1721.891163 1727.930260
62.090000 1710.238341 1713.216646 1718.228192 1719.121508 1725.575390 1730.686682
62.160000 1711.933123 1715.188556 1720.195293 1721.287790 1728.383959 1733.092338
62.220000 1713.471332 1716.937919 1721.924130 1723.092956 1730.304914 1735.286267
62.260000 1714.405032 1717.984827 1723.318761 1724.316281 1731.306232 1736.395288
62.320000 1715.957101 1719.683338 1725.402787 1726.177422 1733.055367 1737.637948
62.400000 1718.008646 1722.197627 1728.511096 1728.765417 1735.170526 1739.973131
62.480000 1719.627526 1724.466094 1731.424904 1731.349037 1737.490699 1742.651710
62.590000 1722.801067 1729.045037 1735.318609 1734.946346 1741.025763 1745.410480
62.700000 1726.608818 1733.043965 1738.997567 1738.583566 1744.199427 1748.223816
62.830000 1730.848874 1737.893516 1743.411598 1742.960794 1748.220240 1751.512673
62.910000 1733.266632 1740.852209 1745.998220 1745.552987 1750.746149 1753.948670
62.950000 1734.621216 1742.262581 1747.086838 1746.701981 1751.792737 1755.021814
63.030000 1736.580979 1744.741929 1749.553726 1749.095556 1754.028006 1757.069490
63.080000 1738.402307 1746.156817 1751.132323 1750.555561 1755.445027 1758.370587
63.140000 1740.213758 1747.843916 1752.878799 1752.248175 1756.998833 1760.036653
63.220000 1742.644577 1750.644636 1755.349783 1754.713397 1759.249625 1762.044263
63.320000 1746.581232 1753.882506 1758.474329 1757.792201 1762.028280 1765.400313
63.440000 1752.193298 1757.390652 1761.662717 1761.139212 1764.909321 1768.183657
63.580000 1755.729769 1760.969554 1765.069658 1764.522296 1768.170629 1770.960936
63.700000 1759.281465 1763.860122 1767.602070 1767.266945 1770.706750 1773.693346
63.820000 1762.669941 1767.129079 1770.518504 1770.218316 1773.321189 1776.638705
63.960000 1766.592812 1770.850508 1773.870921 1773.772562 1776.750627 1779.923228
64.080000 1771.174537 1774.575551 1777.543993 1777.546774 1780.675317 1783.614331
64.190000 1776.023131 1779.193276 1782.070707 1782.039238 1785.232986 1787.708133
64.280000 1779.075829 1781.877077 1784.703068 1784.709266 1787.579074 1790.112440
64.350000 1780.860230 1783.711063 1786.559457 1786.518964 1789.545876 1791.911861
64.420000 1782.381357 1785.214383 1788.110114 1787.997949 1790.893852 1793.330337
64.540000 1785.025106 1787.604992 1790.554828 1790.344326 1793.112163 1795.374537
64.650000 1786.981412 1789.662951 1792.577887 1792.433023 1795.095213 1797.327065
64.760000 1789.431389 1792.123813 1794.725087 1794.556053 1797.086014 1799.100867
64.860000 1791.207355 1794.234726 1796.735111 1796.482255 1798.832199 1800.624176
64.960000 1793.682057 1796.317040 1798.688686 1798.468696 1800.683543 1802.210211
65.080000 1796.796751 1799.041907 1800.963614 1800.890000 1802.893895 1804.587737
65.160000 1798.706395 1800.771253 1802.565480 1802.586169 1804.507342 1806.376612
65.250000 1800.512125 1802.457079 1804.221249 1804.313458 1806.229926 1808.476450
65.350000 1802.196024 1804.011819 1805.828574 1805.948045 1808.012856 1810.317389
65.440000 1803.503005 1805.400761 1807.196782 1807.357772 1809.654389 1811.745915
65.540000 1804.767016 1806.756610 1808.648140 1808.824645 1811.217993 1813.727798
65.650000 1806.442203 1808.282335 1810.298701 1810.490779 1812.928606 1815.365210
65.750000 1807.962041 1809.774069 1811.809216 1811.997329 1814.461256 1816.753283
65.855000 1809.571960 1811.177187 1813.349662 1813.563335 1816.140044 1818.436413
65.960000 1810.905997 1812.680990 1814.870306 1815.082623 1817.552449 1819.989907
66.060000 1812.200217 1814.131328 1816.371480 1816.523934 1819.136617 1821.146315
66.160000 1813.952394 1815.558033 1817.831329 1817.990457 1820.497345 1822.650258
66.250000 1815.269846 1816.909589 1819.175563 1819.290164 1821.900176 1823.988341
66.350000 1816.540240 1818.271993 1820.571722 1820.717116 1823.426618 1825.552099
66.450000 1817.771532 1819.567658 1822.013084 1822.144300 1824.783452 1827.076894
66.560000 1819.335816 1821.170356 1823.567454 1823.709104 1826.427112 1828.652253
66.650000 1820.693287 1822.484216 1824.895658 1825.024680 1827.599927 1829.920429
66.740000 1821.924366 1823.725540 1826.315310 1826.349602 1828.856490 1831.231354
66.850000 1823.272795 1825.289183 1827.979271 1827.929193 1830.631737 1832.927924
66.940000 1824.516946 1826.578610 1829.274002 1829.284886 1832.034193 1834.680937
67.030000 1825.831754 1827.942477 1830.580691 1830.749467 1833.637946 1836.397887
67.140000 1827.671511 1829.669633 1832.504401 1832.719479 1835.919368 1839.210927
67.240000 1829.068877 1831.428840 1834.373057 1834.801405 1838.295470 1841.852916
67.340000 1830.809876 1833.284568 1836.587446 1836.954469 1841.027028 1844.503773
67.410000 1831.958599 1834.590413 1838.166585 1838.499154 1842.888893 1845.720039
67.520000 1833.637106 1836.789478 1841.095066 1841.000856 1845.436512 1847.692932
67.560000 1834.307284 1837.594164 1841.966938 1841.790208 1846.156999 1848.460202
67.645000 1835.856175 1839.453903 1843.982700 1843.556992 1847.587187 1849.658557
67.730000 1837.402144 1841.325229 1845.901966 1845.279912 1848.948153 1850.950090
67.850000 1840.088316 1844.437720 1848.308084 1847.698808 1850.774217 1852.659806
67.950000 1842.304480 1846.689573 1849.955130 1849.491386 1852.225415 1853.847577
68.050000 1844.697429 1848.458898 1851.521035 1851.115455 1853.535228 1855.201460
68.150000 1847.382264 1850.427399 1852.972250 1852.714467 1854.916039 1856.588970
68.250000 1849.163783 1852.243009 1854.425680 1854.210198 1856.177342 1857.776676
68.350000 1850.731841 1853.841619 1855.886798 1855.622653 1857.403133 1858.879228
68.450000 1852.578386 1855.216510 1857.228424 1856.946648 1858.649941 1860.069062
68.550000 1854.108809 1856.604862 1858.483030 1858.247184 1859.842565 1861.276097
68.650000 1855.795404 1858.014455 1859.708748 1859.536553 1861.038353 1862.370921
68.750000 1857.001899 1859.329370 1860.981783 1860.820026 1862.310669 1863.700758
68.850000 1858.543222 1860.743292 1862.298255 1862.184847 1863.729563 1865.029118
68.950000 1860.150269 1862.083683 1863.608290 1863.520743 1865.038979 1866.439532
69.050000 1861.638578 1863.580473 1864.980896 1864.951088 1866.385254 1867.922670
69.150000 1863.379215 1864.971676 1866.390612 1866.357803 1867.805371 1869.128110
69.250000 1864.949997 1866.338396 1867.770952 1867.730084 1869.135958 1870.411419
69.350000 1866.217441 1867.682837 1869.106546 1869.072121 1870.460515 1871.643970
69.450000 1867.549918 1869.013310 1870.415841 1870.390475 1871.784942 1873.173995
69.550000 1868.989863 1870.289579 1871.598192 1871.638182 1873.003444 1874.447281
69.650000 1870.292522 1871.549819 1872.866146 1872.900512 1874.292187 1875.635700
69.750000 1871.499148 1872.775170 1874.085960 1874.176910 1875.584393 1877.043361
69.850000 1872.864019 1874.112680 1875.496538 1875.550056 1876.947875 1878.887820
69.950000 1874.110510 1875.470910 1876.908557 1877.005023 1878.609877 1880.485716
70.050000 1875.531321 1876.887427 1878.438482 1878.521158 1880.168395 1882.028133
70.150000 1876.768009 1878.256528 1880.004928 1880.097831 1881.962086 1884.151981
70.250000 1878.207763 1879.794392 1881.642209 1881.819880 1883.836972 1886.249864
70.350000 1879.673917 1881.587612 1883.587815 1883.763743 1886.102332 1888.884994
70.450000 1881.580961 1883.494700 1885.802722 1886.001351 1888.457808 1891.797099
70.550000 1883.369228 1885.337449 1887.833671 1888.029866 1890.633643 1893.894339
70.650000 1885.088623 1887.249968 1889.740655 1889.886780 1892.613856 1895.441995
70.750000 1886.666341 1888.925702 1891.505523 1891.646393 1894.478159 1897.153175
70.850000 1888.213572 1890.722393 1893.340908 1893.477534 1896.302870 1898.788060
70.950000 1889.940730 1892.491635 1895.247205 1895.235790 1898.087092 1900.350343
71.050000 1891.754259 1894.385201 1897.135698 1897.090121 1899.824580 1902.032216
71.150000 1893.633684 1896.343580 1899.098866 1899.011263 1901.674740 1903.524217
71.250000 1895.782682 1898.568440 1901.148140 1900.993794 1903.445609 1905.164898
71.350000 1898.209116 1900.926204 1903.383073 1903.224717 1905.399817 1907.849967
71.450000 1900.608730 1903.381691 1905.625577 1905.568387 1907.408452 1911.091736
71.550000 1904.798201 1906.885474 1908.693531 1909.386936 1912.058497 1917.482438
71.650000 1907.930955 1909.590147 1912.533788 1913.201136 1917.308376 1920.371312
71.750000 1910.306291 1912.598759 1916.726585 1916.526662 1920.121416 1922.523711
71.850000 1912.695310 1916.866914 1920.257634 1919.954153 1923.103558 1925.629265
71.950000 1916.503705 1920.202410 1923.120484 1922.886767 1925.539375 1927.830189
72.050000 1920.355804 1923.136368 1925.697706 1925.585067 1927.980201 1930.065386
72.140000 1922.655270 1925.258736 1927.788711 1927.595833 1929.796757 1931.750824
72.250000 1925.032590 1927.871628 1930.040704 1929.928367 1932.065154 1934.243685
72.350000 1927.986869 1930.269427 1932.205373 1932.221144 1934.211430 1936.310801
72.450000 1930.637033 1932.385847 1934.357377 1934.364062 1936.402796 1938.025462
72.550000 1932.888779 1934.483520 1936.337650 1936.348922 1938.229097 1939.820230
72.650000 1934.634528 1936.363219 1938.194413 1938.160118 1939.864178 1941.529343
72.750000 1936.485249 1938.156594 1939.874174 1939.851770 1941.543962 1943.077770
72.850000 1938.139980 1939.723564 1941.419443 1941.389158 1943.022382 1944.627435
72.950000 1939.635458 1941.205510 1942.928045 1942.865680 1944.555601 1946.002164
73.050000 1941.073107 1942.570590 1944.372458 1944.281284 1945.869985 1947.212298
73.150000 1942.796722 1944.207232 1945.811489 1945.763508 1947.265890 1948.569844
73.250000 1944.241262 1945.829742 1947.275127 1947.254362 1948.632699 1949.907906
73.350000 1946.160153 1947.490558 1948.949206 1948.902546 1950.272257 1951.739149
73.450000 1948.015302 1949.473270 1950.842700 1950.904031 1952.355431 1954.062781
73.550000 1951.149286 1952.418975 1954.117008 1954.476374 1956.517669 1959.564692
73.650000 1953.077733 1954.473982 1956.708255 1956.966459 1959.352968 1962.282155
73.750000 1954.545681 1956.328699 1959.237747 1959.274445 1962.025844 1965.116246
73.850000 1956.197085 1958.163225 1961.539106 1961.465895 1964.383619 1967.410934
73.950000 1957.817920 1960.365203 1963.758834 1963.597873 1966.610580 1969.401623
74.050000 1959.691626 1962.583840 1965.860572 1965.640330 1968.552795 1971.232805
74.150000 1961.335361 1964.865531 1967.940241 1967.701537 1970.486482 1973.058044
74.250000 1963.471127 1967.005046 1969.851279 1969.705531 1972.486743 1975.052173
74.350000 1965.917619 1969.147823 1971.851510 1971.800846 1974.349255 1977.070308
74.450000 1968.821505 1971.649957 1974.155877 1974.113778 1976.599321 1979.118498
74.550000 1971.878556 1974.213804 1976.648741 1976.652544 1979.020445 1981.479231
74.650000 1974.486705 1976.921050 1979.206976 1979.278174 1981.711555 1984.092087
74.750000 1977.175244 1979.581922 1981.765268 1981.796284 1984.212056 1986.421712
74.850000 1979.182041 1981.446661 1983.842172 1983.850170 1986.155111 1988.437474
74.950000 1981.015797 1983.297989 1985.822765 1985.780728 1988.104613 1990.400372
75.050000 1982.707837 1985.187323 1987.722908 1987.594707 1989.859626 1992.348453
75.150000 1984.349513 1986.909210 1989.448699 1989.303997 1991.525721 1993.894043
75.250000 1985.810459 1988.651290 1991.150725 1991.025127 1993.227674 1995.693580
75.350000 1987.472516 1990.382657 1992.757237 1992.661755 1994.879974 1997.095061
75.450000 1989.244089 1992.050039 1994.284147 1994.240010 1996.313622 1998.798311
75.550000 1990.988454 1993.727639 1995.860478 1995.829073 1997.887667 2000.273699
75.650000 1992.943811 1995.340891 1997.451513 1997.526022 1999.494330 2003.024626
75.750000 1994.817489 1997.103824 1999.104017 1999.355998 2001.357269 2006.731671
75.850000 1996.340312 1998.849997 2000.909974 2001.426401 2003.842216 2010.882490
75.950000 1998.168776 2000.595126 2003.029663 2004.073863 2008.404598 2014.223243
76.050000 2000.282930 2002.792608 2006.394707 2007.440786 2012.983823 2016.645524
76.150000 2002.948503 2006.188948 2011.848902 2011.435020 2016.059130 2018.938163
76.220000 2005.342834 2009.747472 2014.198847 2013.828191 2017.921185 2020.258043
76.270000 2006.758443 2011.632431 2015.674101 2015.265860 2018.978914 2021.322994
76.330000 2009.343908 2013.637377 2017.519167 2017.068035 2020.392670 2022.437763
76.390000 2012.674218 2015.942660 2019.481453 2019.105793 2022.053012 2024.053202
76.440000 2014.631898 2017.715422 2021.126088 2020.749720 2023.566318 2025.150404
76.470000 2015.615630 2018.595021 2021.932359 2021.549290 2024.241683 2025.902737
76.540000 2017.838859 2020.871728 2023.615387 2023.301719 2025.707385 2027.331882
76.630000 2021.001376 2023.396769 2025.794048 2025.535515 2027.517634 2029.299560
76.760000 2024.902343 2026.850246 2028.558326 2028.526768 2030.312047 2031.852897
76.850000 2026.900554 2028.692253 2030.297117 2030.349536 2032.045207 2033.700202
76.950000 2028.812192 2030.598445 2032.292206 2032.232841 2033.815974 2035.598386
