depth(m) lower_95(kyr) lower_68(kyr) median(kyr) mean(kyr) upper_68(kyr) upper_95(kyr)
166.190000 1490.157940 1493.624680 1496.280724 1496.077384 1498.675206 1500.440403
166.290000 1491.980057 1495.106288 1497.712416 1497.445226 1499.917647 1501.503276
166.390000 1493.998696 1496.657439 1499.032005 1498.858113 1501.135980 1502.843214
166.490000 1495.678957 1498.147282 1500.335446 1500.233516 1502.392106 1504.011394
166.620000 1497.565254 1500.124657 1502.297099 1502.110343 1504.240215 1505.808415
166.690000 1498.728692 1501.285873 1503.481564 1503.256338 1505.352434 1506.854640
166.785000 1500.798982 1503.123819 1505.347101 1505.174580 1507.180885 1508.828184
166.885000 1503.634418 1505.921949 1507.979385 1508.062456 1510.181028 1512.556746
166.985000 1507.009021 1508.940725 1511.014880 1511.008633 1513.129161 1515.088785
167.085000 1509.210529 1511.213052 1513.294681 1513.269249 1515.236259 1517.091530
167.185000 1511.089445 1513.519628 1515.424528 1515.276753 1517.061963 1518.473237
167.285000 1513.590185 1515.540529 1517.392510 1517.184611 1518.732486 1519.839366
167.385000 1515.984871 1517.936791 1519.311723 1519.159796 1520.368765 1521.518402
167.485000 1518.208007 1519.666415 1520.781538 1520.723513 1521.792400 1522.923850
167.585000 1519.750576 1521.022632 1522.065460 1522.053119 1523.126185 1524.351212
167.685000 1521.021793 1522.161264 1523.145538 1523.168492 1524.232448 1525.432956
167.785000 1522.180476 1523.217107 1524.080712 1524.166002 1525.130524 1526.486502
167.885000 1523.293300 1524.234887 1525.036179 1525.151782 1526.080103 1527.488303
167.985000 1524.358650 1525.167687 1525.958507 1526.089400 1526.997567 1528.488376
168.085000 1525.297681 1526.075663 1526.866661 1527.001358 1527.926746 1529.569206
168.185000 1526.113909 1526.956854 1527.732008 1527.890552 1528.803201 1530.470709
168.285000 1526.950992 1527.811882 1528.620169 1528.767027 1529.722110 1531.380625
168.385000 1527.800054 1528.641250 1529.529617 1529.640240 1530.638978 1532.194173
168.485000 1528.673253 1529.451582 1530.399112 1530.512101 1531.493962 1533.112538
168.585000 1529.485202 1530.363548 1531.280184 1531.405177 1532.448752 1534.122684
168.685000 1530.378935 1531.205409 1532.179994 1532.300017 1533.346299 1534.978157
168.785000 1531.331113 1532.110534 1533.082757 1533.230818 1534.277053 1535.990262
168.885000 1532.300500 1533.128949 1534.064079 1534.199836 1535.275938 1536.845846
168.985000 1533.260070 1534.090870 1535.045783 1535.189913 1536.272394 1537.805217
169.085000 1534.199461 1535.113324 1536.096051 1536.189312 1537.331895 1538.782822
169.185000 1535.169403 1536.122683 1537.143480 1537.267216 1538.445713 1540.143255
169.285000 1536.188370 1537.166774 1538.255652 1538.405264 1539.726100 1541.369312
169.385000 1537.247576 1538.240737 1539.394796 1539.582610 1540.971322 1542.947162
169.485000 1538.515873 1539.349489 1540.616762 1540.844752 1542.382571 1544.351610
169.585000 1539.666016 1540.612483 1542.003126 1542.209807 1543.849156 1546.134073
169.685000 1540.759028 1541.904535 1543.545248 1543.730127 1545.603637 1547.731572
169.785000 1542.131515 1543.422028 1545.208055 1545.328393 1547.334541 1549.195520
169.885000 1543.280885 1544.849552 1546.778441 1546.902279 1549.100007 1550.854023
169.985000 1544.502995 1546.296038 1548.321401 1548.428690 1550.609503 1552.566117
170.085000 1545.895515 1547.707362 1549.900196 1549.942341 1552.139773 1554.127950
170.185000 1547.170887 1549.068848 1551.469599 1551.401627 1553.578338 1555.645940
170.285000 1548.492115 1550.568341 1552.960825 1552.854463 1555.025795 1557.143681
170.385000 1549.797438 1552.049319 1554.460223 1554.281636 1556.470252 1558.522240
170.485000 1551.142652 1553.574690 1555.908103 1555.762466 1557.939012 1559.893800
170.585000 1552.504079 1555.048382 1557.498650 1557.364778 1559.500814 1561.424029
170.685000 1554.160528 1556.869872 1559.123694 1558.992747 1561.190672 1562.933182
170.785000 1556.031364 1558.751582 1560.837697 1560.672078 1562.658826 1564.246455
170.885000 1557.979306 1560.468576 1562.481117 1562.299938 1564.105827 1565.608543
170.985000 1559.765376 1562.377109 1564.206041 1564.024786 1565.716694 1567.157601
171.085000 1561.953000 1564.274348 1565.914181 1565.796992 1567.392669 1568.880361
171.185000 1564.799603 1566.585376 1567.979093 1568.099478 1569.616874 1571.671920
171.285000 1567.125862 1568.641424 1570.197345 1570.379325 1572.037811 1574.652041
171.385000 1569.009741 1570.617289 1572.402207 1572.565502 1574.391094 1577.251374
171.485000 1570.738925 1572.596784 1574.586015 1574.775856 1576.855369 1579.894962
171.585000 1572.731490 1574.850082 1577.057515 1577.242966 1579.586292 1582.688608
171.685000 1575.061414 1577.392068 1580.047929 1580.207170 1582.989379 1586.545004
171.785000 1577.711361 1580.202069 1582.946118 1583.234444 1586.477849 1589.721307
171.885000 1580.865175 1583.483901 1586.450866 1586.742028 1590.184690 1593.373761
171.985000 1583.766068 1586.373293 1589.586578 1589.725599 1593.101083 1596.131989
172.085000 1585.888675 1589.055142 1592.520647 1592.422466 1595.681246 1598.463953
172.185000 1588.768448 1592.251680 1595.577803 1595.327687 1598.357433 1601.362083
172.285000 1592.382726 1595.860349 1598.868430 1598.683917 1601.397185 1604.574150
172.385000 1596.050115 1598.723731 1601.559394 1601.513789 1604.263823 1606.938580
172.485000 1598.738526 1601.267471 1604.130526 1603.964119 1606.617933 1608.904464
172.585000 1601.101143 1603.748613 1606.599163 1606.388581 1608.993818 1611.140344
172.685000 1603.367290 1606.396097 1609.122534 1608.921232 1611.349777 1613.695485
172.785000 1606.341812 1609.396580 1611.722474 1611.657507 1614.037681 1616.542853
172.885000 1609.093765 1611.705062 1613.846523 1613.911925 1616.258492 1618.504957
172.985000 1611.667704 1613.798535 1615.948161 1615.999748 1618.229424 1620.982504
173.085000 1613.161952 1615.434885 1617.774506 1617.810074 1620.137739 1622.551818
173.185000 1614.883892 1617.150023 1619.536724 1619.536014 1621.950764 1624.231852
173.285000 1616.357406 1618.760021 1621.240213 1621.263461 1623.916875 1626.046378
173.385000 1617.995526 1620.353237 1623.018975 1622.986415 1625.582821 1627.818337
173.485000 1619.430272 1622.085285 1624.687714 1624.660819 1627.137594 1629.405154
173.585000 1620.958184 1623.861693 1626.386395 1626.368035 1628.886632 1631.224613
173.685000 1622.539315 1625.655261 1628.178267 1628.013139 1630.393574 1632.948776
173.785000 1624.407800 1627.411785 1629.841142 1629.667442 1631.906070 1634.326259
173.885000 1626.218752 1629.170922 1631.484351 1631.302723 1633.529147 1635.751918
173.985000 1628.539650 1630.896705 1633.223550 1633.071693 1635.239730 1637.199283
174.085000 1630.460117 1632.663849 1634.873171 1634.826212 1637.097946 1638.811574
174.185000 1631.884035 1634.336505 1636.592649 1636.443685 1638.550210 1640.227300
174.285000 1633.648602 1636.174190 1638.245839 1638.123304 1640.100494 1641.728779
174.385000 1635.765278 1637.960059 1639.989558 1639.852225 1641.669133 1643.338409
174.485000 1637.917744 1639.872624 1641.742324 1641.601835 1643.294591 1644.728479
174.585000 1639.519791 1641.606740 1643.266187 1643.190952 1644.731177 1646.110886
174.685000 1641.423680 1643.191526 1644.739407 1644.682005 1646.153053 1647.639646
174.785000 1642.972523 1644.617806 1646.120379 1646.058853 1647.484707 1649.027492
174.885000 1644.529394 1646.019740 1647.476016 1647.483797 1648.927347 1650.594289
174.985000 1646.139165 1647.440548 1648.805057 1648.868299 1650.272805 1651.999673
175.085000 1647.367886 1648.690544 1650.058373 1650.160528 1651.562432 1653.569784
175.185000 1648.691518 1649.873866 1651.276938 1651.374354 1652.843916 1654.740050
175.285000 1649.733014 1651.008086 1652.459552 1652.578743 1654.127082 1656.001884
175.385000 1650.902878 1652.179360 1653.587203 1653.770266 1655.373343 1657.315718
175.485000 1651.881780 1653.408725 1654.827498 1654.963246 1656.592539 1658.438563
175.585000 1653.162391 1654.571656 1656.053110 1656.160542 1657.835132 1659.509172
175.685000 1654.278993 1655.767779 1657.324917 1657.373571 1659.074342 1660.792858
175.785000 1655.431394 1656.876792 1658.517920 1658.601886 1660.351722 1662.106459
175.885000 1656.613674 1658.138196 1659.804111 1659.886711 1661.663977 1663.348729
175.985000 1657.842924 1659.428990 1661.123514 1661.190985 1663.007154 1664.524435
176.085000 1659.231847 1660.751794 1662.447584 1662.472463 1664.332908 1665.780839
176.185000 1660.635125 1662.191150 1663.833837 1663.843816 1665.586254 1666.864640
176.285000 1662.073929 1663.704066 1665.342668 1665.263997 1666.919868 1668.115712
176.385000 1663.721633 1665.336095 1666.889131 1666.809196 1668.304123 1669.482133
176.485000 1665.540823 1667.076194 1668.528731 1668.491213 1669.905945 1671.162043
176.585000 1667.676420 1668.999249 1670.341520 1670.368578 1671.717905 1673.177755
176.685000 1669.264549 1670.650862 1672.021423 1672.062920 1673.512380 1675.350158
176.785000 1670.550466 1672.103119 1673.628407 1673.674412 1675.278702 1677.172263
176.885000 1672.109716 1673.535175 1675.104562 1675.260073 1676.969156 1678.834759
176.985000 1673.454175 1675.025801 1676.718883 1676.853963 1678.712152 1680.777814
177.085000 1674.836903 1676.388589 1678.335229 1678.383430 1680.354625 1682.475941
177.185000 1675.959742 1677.820832 1679.840038 1679.903025 1681.934488 1684.392604
177.285000 1677.389127 1679.463853 1681.468408 1681.480693 1683.555321 1686.044213
177.385000 1678.927460 1681.160959 1683.178600 1683.214428 1685.306626 1687.992137
177.485000 1680.681935 1682.721979 1685.043691 1685.115182 1687.510987 1689.756431
177.585000 1682.492130 1684.902955 1687.129177 1687.213526 1689.607169 1691.642211
177.685000 1684.434110 1687.053409 1689.360921 1689.190708 1691.431640 1693.346696
177.785000 1686.423475 1689.041113 1691.298362 1691.119737 1693.298242 1694.864726
177.885000 1688.360099 1691.147405 1693.311203 1693.113107 1695.101494 1696.452563
177.985000 1690.891321 1693.435123 1695.312387 1695.128098 1696.775538 1698.207970
178.085000 1694.273433 1696.043766 1697.428740 1697.354576 1698.681550 1700.014425
178.185000 1696.237560 1697.744054 1699.031609 1698.991170 1700.210738 1701.600801
178.285000 1697.865855 1699.129835 1700.440837 1700.390594 1701.619093 1702.808973
178.385000 1699.309427 1700.411669 1701.825583 1701.766378 1703.034088 1704.191851
178.485000 1700.592653 1701.799887 1703.190945 1703.155583 1704.486718 1705.525903
178.585000 1702.081949 1703.159275 1704.526315 1704.514852 1705.866227 1707.014734
178.685000 1703.300846 1704.614113 1705.919437 1705.901478 1707.199640 1708.367929
178.785000 1704.951408 1706.050859 1707.328660 1707.326420 1708.604189 1710.007530
178.885000 1706.095052 1707.472439 1708.750344 1708.751486 1710.059016 1711.310099
178.985000 1707.629925 1708.982009 1710.260646 1710.225900 1711.486084 1712.693575
179.085000 1709.199889 1710.480123 1711.741238 1711.768088 1713.074666 1714.533754
179.185000 1710.536302 1711.912356 1713.230205 1713.226974 1714.453734 1716.098389
179.285000 1711.986687 1713.215073 1714.518009 1714.602331 1715.943742 1717.617560
179.385000 1713.222749 1714.442349 1715.889736 1715.979529 1717.485432 1719.328054
179.485000 1714.444984 1715.843631 1717.283777 1717.431364 1719.063452 1721.616270
179.585000 1715.740860 1717.112725 1718.700069 1718.899067 1720.643939 1723.736530
179.685000 1717.056075 1718.500760 1720.236417 1720.466485 1722.343020 1725.466310
179.785000 1718.481123 1719.987004 1721.799226 1722.039776 1724.046734 1726.953456
179.885000 1719.704217 1721.394626 1723.400567 1723.581646 1725.682086 1728.629510
179.985000 1721.030858 1722.954964 1724.942395 1725.142400 1727.410299 1730.605568
180.085000 1722.402899 1724.392395 1726.632105 1726.745808 1729.094154 1732.397311
180.185000 1723.925862 1726.035526 1728.289767 1728.408244 1730.792396 1733.881007
180.285000 1725.682617 1727.722943 1730.016955 1730.167452 1732.522656 1735.458221
180.385000 1727.293433 1729.399404 1731.919738 1731.943794 1734.392825 1737.126937
180.485000 1729.235176 1731.379438 1733.797201 1733.805898 1736.195074 1738.776707
180.585000 1731.011627 1733.228518 1735.598491 1735.650040 1738.074545 1740.589646
180.685000 1732.376486 1735.013256 1737.461325 1737.488109 1740.086465 1742.529795
180.785000 1734.183452 1736.982646 1739.416542 1739.437688 1741.911447 1744.415158
180.885000 1736.689825 1739.047639 1741.407955 1741.447956 1743.843857 1746.266072
180.985000 1738.772807 1740.975785 1743.363502 1743.364036 1745.829983 1747.952133
181.085000 1740.625408 1742.774687 1745.049943 1745.136687 1747.441324 1749.899305
181.185000 1742.302277 1744.531960 1746.830720 1746.938324 1749.196630 1751.644465
181.285000 1744.005864 1746.353140 1748.739154 1748.785890 1751.157931 1753.835975
181.385000 1745.273980 1748.188317 1750.687462 1750.684003 1753.135427 1756.177351
181.485000 1747.295666 1749.926838 1752.641375 1752.619411 1755.316977 1758.281722
181.585000 1749.045509 1751.666561 1754.508070 1754.491365 1757.175522 1760.003060
181.685000 1750.526922 1753.500940 1756.244844 1756.307688 1759.217904 1761.953980
181.785000 1752.481896 1755.235559 1758.097565 1758.097208 1760.892000 1763.790854
181.885000 1754.269417 1757.162241 1759.887378 1759.947871 1762.834067 1765.521166
181.985000 1756.288166 1758.976128 1761.803032 1761.823332 1764.691034 1766.938603
182.085000 1757.976626 1760.869983 1763.828157 1763.632898 1766.395594 1768.709510
182.185000 1759.579202 1762.656457 1765.542499 1765.341565 1768.015484 1770.220849
182.285000 1761.097492 1764.410240 1767.106086 1766.992840 1769.581385 1771.837629
182.385000 1762.958959 1766.007896 1768.677059 1768.591653 1771.185938 1773.221229
182.485000 1764.688496 1767.732224 1770.312746 1770.183593 1772.577464 1775.051973
182.585000 1766.624302 1769.387486 1771.891734 1771.798930 1774.141376 1776.431793
182.685000 1768.237133 1771.121124 1773.466003 1773.356580 1775.664547 1777.687619
182.785000 1770.137598 1772.789629 1775.034040 1774.968831 1777.147769 1779.025144
182.885000 1772.441446 1774.659750 1776.802943 1776.738312 1778.789395 1780.828081
182.985000 1774.400274 1776.505423 1778.558755 1778.517891 1780.569597 1782.477583
183.085000 1776.491097 1778.389900 1780.455674 1780.367393 1782.316697 1784.193176
183.185000 1778.418366 1780.220634 1782.264363 1782.188197 1784.035039 1785.857777
183.285000 1780.244883 1782.177928 1784.013619 1784.005260 1785.797071 1787.553240
183.385000 1782.181361 1783.981198 1785.657111 1785.726628 1787.563149 1789.414745
183.485000 1783.870270 1785.574381 1787.339218 1787.401419 1789.214021 1791.086387
183.585000 1785.584082 1787.263579 1789.066314 1789.090096 1790.828039 1792.822034
183.685000 1787.302938 1788.905409 1790.700094 1790.726006 1792.534931 1794.323525
183.785000 1788.796898 1790.488409 1792.308361 1792.324088 1794.219168 1796.094816
183.885000 1790.226243 1792.007030 1793.971461 1793.924175 1795.733644 1797.828230
183.985000 1791.858243 1793.643928 1795.586743 1795.561490 1797.415051 1799.577946
184.085000 1793.583036 1795.467843 1797.381820 1797.385302 1799.284062 1801.313256
184.185000 1795.118751 1797.556180 1799.297575 1799.317194 1801.203494 1803.050281
184.285000 1797.468589 1799.658612 1801.435708 1801.536928 1803.427829 1805.751294
184.385000 1799.498111 1801.557164 1803.493474 1803.600328 1805.749184 1808.101007
184.485000 1801.621765 1803.551088 1805.569844 1805.777082 1807.917920 1811.033010
184.585000 1803.569653 1805.349764 1807.654853 1807.942527 1810.486329 1814.084709
184.685000 1805.166385 1807.175211 1809.677127 1810.028142 1812.814600 1817.051418
184.785000 1806.602973 1808.793877 1811.690164 1812.121632 1815.288293 1820.364230
184.885000 1808.275366 1810.515934 1813.707969 1814.176675 1817.547080 1823.559419
184.985000 1809.578634 1812.330556 1815.876331 1816.288857 1820.034765 1826.520128
185.126667 1811.620526 1814.723689 1818.867807 1819.310664 1823.847707 1829.598278
185.268333 1813.550962 1817.120895 1822.117432 1822.262762 1827.235866 1833.252056
185.410000 1815.805830 1819.607835 1825.172866 1825.334567 1830.774389 1837.312336
185.551667 1817.877792 1822.235174 1828.075941 1828.315820 1833.888364 1840.347867
185.693333 1819.772467 1824.416918 1831.391868 1831.295332 1837.276309 1843.591906
185.835000 1821.721052 1826.799429 1834.636486 1834.213248 1840.969940 1846.718876
185.976667 1823.720220 1829.492017 1837.845034 1837.274535 1844.458778 1849.665118
186.118333 1825.267334 1831.831011 1841.015801 1840.253449 1847.795901 1852.866968
186.260000 1827.267242 1834.058835 1844.151335 1843.301028 1851.069752 1856.427915
186.401667 1829.445377 1836.475527 1847.578857 1846.333820 1854.325560 1859.905173
186.543333 1831.200710 1838.727960 1850.563992 1849.185674 1857.301216 1862.498781
186.685000 1833.358942 1841.051034 1853.906986 1852.104559 1860.628895 1865.470405
186.826667 1835.114488 1843.129862 1857.220781 1855.028489 1863.739504 1868.516775
186.968333 1836.975416 1845.412404 1860.644015 1858.011936 1866.971322 1871.626432
187.110000 1839.016555 1847.685404 1863.926877 1861.058963 1870.225885 1874.542248
187.251667 1840.966127 1849.585744 1867.171392 1863.954050 1873.126314 1877.169715
187.393333 1842.910936 1851.983105 1870.910058 1866.827629 1875.790472 1879.261762
187.535000 1844.688536 1853.780746 1874.090056 1869.678742 1878.559758 1882.059597
187.635000 1846.311712 1855.405195 1876.535587 1871.737953 1880.428037 1883.633259
187.735000 1848.220831 1857.620657 1878.491729 1873.651920 1882.245542 1885.131535
187.835000 1850.042873 1859.584641 1880.135358 1875.531015 1883.860452 1886.798118
187.935000 1852.079491 1862.192329 1881.911625 1877.349607 1885.390729 1888.064079
188.035000 1853.955702 1864.204237 1883.461656 1879.093068 1886.819341 1889.609016
188.135000 1855.566827 1866.799856 1885.056203 1880.861844 1888.246606 1890.773652
188.235000 1857.300328 1869.984469 1886.565985 1882.637021 1889.782878 1892.348251
188.335000 1859.119761 1874.109026 1888.135358 1884.418474 1891.086067 1893.806150
188.475000 1862.384602 1879.480671 1890.221326 1886.907963 1892.964415 1895.351609
188.615000 1865.651395 1884.996460 1892.087814 1889.583059 1894.863006 1897.086122
188.755000 1872.266154 1888.909553 1894.134800 1892.306984 1896.741841 1898.695772
188.895000 1880.138361 1892.497730 1896.116058 1895.080516 1898.634446 1900.268250
189.035000 1891.248539 1895.489751 1898.281883 1897.878824 1900.555957 1902.001185
189.135000 1894.281297 1897.523341 1899.859006 1899.592860 1901.857455 1903.321624
189.235000 1896.493029 1899.586016 1901.550494 1901.359736 1903.462856 1904.739041
189.335000 1898.995332 1901.510764 1903.352402 1903.159656 1904.912378 1906.063632
189.435000 1901.949259 1903.955798 1905.352720 1905.252989 1906.612867 1907.749669
189.535000 1904.740327 1906.066046 1907.315591 1907.324637 1908.570202 1909.825996
189.635000 1906.911183 1908.159011 1909.386598 1909.415746 1910.626227 1912.209579
189.735000 1908.808706 1909.883211 1911.125602 1911.229624 1912.550162 1914.257194
189.835000 1910.205756 1911.432603 1912.787564 1912.881021 1914.299503 1916.162754
189.935000 1911.578210 1912.888604 1914.353411 1914.438091 1915.984529 1917.643993
190.035000 1912.966687 1914.333808 1916.048772 1916.041973 1917.669918 1919.266301
190.135000 1914.606488 1916.055138 1917.676450 1917.692772 1919.380577 1920.966106
190.235000 1916.197698 1917.726789 1919.365725 1919.358006 1921.050399 1922.693987
190.335000 1917.682549 1919.346792 1921.039641 1921.005383 1922.711428 1924.307747
190.435000 1919.585566 1920.995953 1922.690299 1922.653722 1924.313725 1925.991843
190.535000 1920.992975 1922.470751 1924.189090 1924.197839 1925.896691 1927.396625
190.635000 1922.448201 1924.037750 1925.668361 1925.689982 1927.392281 1928.954935
190.685000 1923.174722 1924.749172 1926.462375 1926.466188 1928.172062 1929.904605
190.785000 1924.731127 1926.337885 1927.997071 1928.025990 1929.791477 1931.561734
190.885000 1926.390729 1927.878290 1929.544468 1929.621013 1931.425779 1933.067912
