depth(m) lower_95(kyr) lower_68(kyr) median(kyr) mean(kyr) upper_68(kyr) upper_95(kyr)
72.520000 1480.624702 1482.590434 1485.601018 1485.623079 1488.473289 1491.288408
72.620000 1482.827621 1485.001808 1487.626598 1487.628441 1490.300670 1492.926892
72.720000 1484.781715 1487.081874 1489.662178 1489.619682 1492.146884 1494.735989
72.820000 1486.936504 1489.200885 1491.647050 1491.614696 1494.023585 1496.453368
72.920000 1488.968958 1491.511646 1493.993265 1493.896237 1496.297279 1498.892118
73.020000 1491.460619 1494.014198 1496.632854 1496.571455 1498.978654 1501.604954
73.120000 1494.534264 1497.430104 1500.050512 1500.014579 1502.672265 1505.248533
73.220000 1498.241288 1501.303345 1504.068909 1504.054898 1506.742684 1509.272892
73.320000 1501.538646 1504.741779 1507.494282 1507.482992 1510.033924 1513.796542
73.420000 1505.359286 1508.715469 1511.434242 1511.538664 1514.692964 1517.358584
73.520000 1509.701563 1512.661005 1515.932986 1515.651623 1518.410555 1520.417354
73.620000 1513.949990 1518.034782 1520.226654 1519.911825 1521.884164 1523.330072
73.720000 1519.343691 1521.238383 1522.858623 1522.746288 1524.230465 1525.521991
73.820000 1522.241282 1524.079488 1525.335030 1525.294548 1526.616891 1527.661300
73.920000 1524.542370 1525.923188 1527.134288 1527.101081 1528.370061 1529.466903
74.020000 1526.313443 1527.543456 1528.720196 1528.719420 1529.904180 1531.182821
74.120000 1527.654833 1529.078248 1530.205625 1530.196679 1531.331018 1532.471720
74.220000 1529.225428 1530.509806 1531.769595 1531.696078 1532.827110 1533.880801
74.320000 1530.943839 1532.046948 1533.256790 1533.183416 1534.301184 1535.211043
74.420000 1532.444055 1533.573226 1534.721950 1534.705774 1535.811988 1536.947283
74.520000 1534.166430 1535.254649 1536.362118 1536.358856 1537.363261 1538.558080
74.620000 1535.910053 1536.846475 1537.958332 1537.988342 1539.020904 1540.417697
74.720000 1537.507437 1538.533228 1539.581600 1539.710913 1540.993173 1542.678089
74.820000 1538.962419 1540.023202 1541.196243 1541.392049 1542.763580 1545.137939
74.920000 1540.381103 1541.451282 1542.778551 1543.065877 1544.602253 1547.514311
75.020000 1541.798502 1542.952017 1544.388799 1544.784204 1546.669973 1549.984851
75.120000 1543.146343 1544.553646 1546.125653 1546.675068 1549.049238 1552.861924
75.220000 1544.871273 1546.316645 1548.199637 1548.906196 1551.741104 1555.751517
75.320000 1546.645660 1548.400724 1550.846742 1551.643247 1555.531703 1559.034431
75.420000 1548.724680 1550.777538 1554.001706 1554.585176 1558.820126 1562.242256
75.520000 1551.140546 1553.415476 1557.381056 1557.544778 1561.903011 1564.611540
75.620000 1553.106354 1556.404401 1560.861750 1560.577851 1564.510232 1566.620251
75.720000 1555.900946 1560.260778 1564.297638 1563.638067 1566.725684 1568.250404
75.820000 1560.410302 1565.129086 1567.239940 1566.842527 1568.865376 1570.484452
75.920000 1566.231037 1568.407909 1569.870442 1569.825489 1571.416722 1572.785275
76.020000 1568.871063 1570.600173 1571.970272 1571.980731 1573.353642 1574.906861
76.120000 1571.009898 1572.466319 1573.857870 1573.916496 1575.407747 1576.910303
76.240000 1573.118534 1574.716162 1576.162276 1576.199583 1577.665556 1579.727017
76.340000 1575.022985 1576.389676 1577.942079 1578.069964 1579.744074 1581.939878
76.440000 1576.748653 1578.152958 1579.864880 1580.061023 1582.114101 1584.272754
76.540000 1578.452593 1579.956910 1581.834097 1582.046241 1584.302663 1586.503072
76.640000 1580.022207 1581.706621 1583.812975 1584.042743 1586.503090 1588.875949
76.740000 1581.708800 1583.457964 1585.736244 1585.976516 1588.501861 1590.953156
76.840000 1583.264107 1585.296130 1587.866944 1587.976668 1590.769259 1593.275313
76.940000 1585.214537 1587.427128 1590.172328 1590.258299 1593.249870 1595.856565
77.040000 1587.515571 1589.860229 1593.005452 1592.945296 1595.938149 1598.367246
77.140000 1590.001423 1592.987058 1596.105076 1596.105415 1599.090755 1602.333511
77.240000 1592.669052 1596.203808 1599.319045 1599.440851 1602.709857 1606.328777
77.340000 1595.625161 1598.999866 1602.465033 1602.519083 1606.091300 1609.625860
77.440000 1598.145610 1602.113424 1605.571501 1605.553736 1609.121138 1612.126377
77.540000 1600.506871 1605.239850 1609.425594 1609.097040 1612.864347 1616.223215
77.640000 1603.672303 1607.940463 1612.206170 1611.921820 1615.676928 1619.956376
77.740000 1606.832564 1610.847519 1614.723183 1614.641795 1618.461445 1622.659695
77.840000 1610.218866 1613.501412 1617.209113 1617.278461 1620.866959 1625.071432
77.940000 1612.373089 1615.998916 1619.600723 1619.681681 1623.291260 1627.372734
78.040000 1614.724586 1618.102920 1621.971418 1622.001262 1625.804157 1629.650397
78.140000 1616.561434 1620.292881 1624.293773 1624.304104 1628.344484 1631.374883
78.240000 1619.045791 1622.467587 1626.617473 1626.568671 1630.659325 1634.053147
78.340000 1621.002905 1625.013585 1628.970082 1628.839059 1632.857663 1635.843205
78.440000 1623.053031 1627.153872 1631.163810 1630.976031 1634.977837 1637.871388
78.540000 1625.472393 1629.352527 1633.380584 1633.188049 1637.088694 1639.863731
78.640000 1627.674482 1631.767713 1635.709245 1635.469394 1639.092176 1641.900662
78.740000 1630.317935 1634.277146 1638.082922 1637.774870 1641.169155 1643.552897
78.840000 1633.359467 1637.193213 1640.493019 1640.169508 1643.169832 1645.279484
78.940000 1636.333260 1640.010208 1642.769066 1642.544242 1645.096484 1647.073170
79.040000 1640.637716 1643.472001 1645.695086 1645.561225 1647.616918 1649.795882
79.140000 1643.787914 1645.802709 1647.756665 1647.713893 1649.636964 1651.617875
79.240000 1645.719628 1647.627641 1649.466562 1649.543498 1651.585265 1653.442427
79.340000 1647.350925 1649.261592 1651.192940 1651.254452 1653.289420 1655.221746
79.480000 1649.321342 1651.373098 1653.438598 1653.475693 1655.636836 1657.757466
79.580000 1650.703863 1652.887252 1655.025247 1655.079593 1657.265135 1659.456415
79.680000 1652.385395 1654.479731 1656.679986 1656.706418 1658.904604 1660.951187
79.780000 1653.952488 1656.128809 1658.419442 1658.345946 1660.480777 1662.554568
79.880000 1655.616642 1657.861058 1660.027152 1659.970242 1662.053949 1664.002412
79.980000 1657.338139 1659.528792 1661.749101 1661.633540 1663.596193 1665.370144
80.080000 1659.191347 1661.346352 1663.538973 1663.377365 1665.286643 1666.998511
80.180000 1661.574223 1663.577704 1665.375713 1665.310361 1667.058390 1668.536201
80.280000 1663.663463 1665.762921 1667.461486 1667.390658 1668.973986 1670.581319
80.380000 1666.362387 1668.348072 1669.859061 1669.906053 1671.539262 1673.336710
80.480000 1669.774831 1671.262867 1672.751978 1672.886422 1674.600989 1676.372651
80.580000 1672.037428 1673.621926 1675.313238 1675.451808 1677.349824 1679.297522
80.680000 1674.033034 1675.604010 1677.675975 1677.748554 1679.877159 1681.869816
80.780000 1675.543067 1677.498640 1679.812777 1679.813931 1682.060950 1684.096812
80.880000 1677.390348 1679.432653 1681.839494 1681.768589 1683.938989 1685.968000
80.980000 1679.322357 1681.521078 1683.751160 1683.658918 1685.765949 1687.529075
81.080000 1681.359265 1683.527384 1685.576968 1685.572884 1687.702275 1689.494122
81.180000 1683.330634 1685.532880 1687.555771 1687.475972 1689.454350 1691.161535
81.280000 1685.038546 1687.544567 1689.471006 1689.380882 1691.340219 1692.948489
81.380000 1686.780759 1689.409513 1691.332879 1691.221736 1692.990216 1694.407823
81.480000 1689.196302 1691.531782 1693.326888 1693.172007 1694.804624 1696.091800
81.580000 1691.955888 1693.752130 1695.447944 1695.303401 1696.769573 1698.415179
81.680000 1694.711054 1696.402878 1697.902247 1697.886227 1699.352171 1701.158566
81.780000 1696.772401 1698.293088 1699.872061 1699.934247 1701.535060 1703.306730
81.880000 1698.469978 1700.033428 1701.840674 1701.795479 1703.501605 1705.105888
81.980000 1699.996461 1701.942096 1703.750519 1703.631890 1705.331995 1706.847158
82.080000 1701.983179 1703.815625 1705.665199 1705.550860 1707.214652 1708.837412
82.180000 1704.218837 1705.928968 1707.722582 1707.661615 1709.260600 1710.935597
82.280000 1706.619978 1708.261553 1709.763307 1709.844598 1711.428177 1713.192544
82.380000 1708.856931 1710.289046 1711.801372 1711.883643 1713.503482 1715.426822
82.480000 1711.136217 1712.271255 1713.841045 1713.922515 1715.512586 1717.440209
82.580000 1712.763520 1714.222301 1715.844437 1715.964686 1717.662579 1719.994723
82.680000 1714.642583 1716.089299 1717.891948 1718.039833 1719.874829 1722.956791
82.780000 1716.459274 1718.144849 1720.060114 1720.288174 1722.460216 1725.468589
82.880000 1717.980494 1720.133935 1722.205856 1722.489689 1724.949314 1728.047251
82.980000 1719.860446 1722.061543 1724.347028 1724.622132 1727.263537 1730.390045
83.080000 1721.696951 1723.996993 1726.499671 1726.714462 1729.640554 1732.822062
83.180000 1723.630659 1725.754749 1728.568618 1728.741607 1731.787438 1735.488849
83.280000 1725.503296 1727.766335 1730.620820 1730.859425 1733.833274 1737.850191
83.380000 1727.481208 1729.932791 1732.775315 1733.027249 1736.017919 1740.169901
83.480000 1729.454351 1732.033820 1734.820275 1735.259279 1738.562989 1742.625883
83.580000 1731.630359 1734.080001 1737.092796 1737.578965 1741.080834 1745.224928
83.680000 1733.619080 1736.210067 1739.521138 1740.026432 1744.127180 1749.516754
83.780000 1735.529518 1738.186724 1741.979332 1742.561781 1747.080298 1752.179571
83.880000 1737.485209 1740.456717 1744.809467 1745.190215 1750.128468 1755.123280
83.980000 1739.498378 1742.838396 1747.519990 1747.748124 1752.701867 1757.313277
84.080000 1741.574087 1745.844958 1750.478766 1750.445647 1755.008424 1759.232379
84.180000 1744.432937 1749.026663 1753.446913 1753.273423 1757.381421 1761.822643
84.280000 1748.324081 1752.870440 1756.664677 1756.553154 1760.374365 1764.055104
84.380000 1751.534206 1755.692366 1759.385733 1759.300347 1762.863085 1766.398651
84.480000 1754.506482 1758.459511 1762.069260 1761.880749 1765.223733 1768.516908
84.580000 1756.715709 1761.064625 1764.451786 1764.268884 1767.478547 1770.538997
84.680000 1759.796358 1763.552922 1766.890934 1766.734819 1769.786419 1772.760488
84.780000 1762.155605 1765.965359 1769.347840 1769.100415 1772.155694 1774.698477
84.880000 1764.614489 1768.466567 1771.794555 1771.561442 1774.579146 1776.939885
84.980000 1767.593733 1771.245482 1774.029815 1773.867351 1776.628693 1779.131495
85.080000 1770.347999 1773.456004 1776.185415 1776.036291 1778.645088 1780.943643
85.180000 1773.484966 1775.954662 1778.374689 1778.294652 1780.666598 1782.683568
85.280000 1775.969017 1778.352753 1780.589002 1780.531581 1782.814973 1784.582264
85.380000 1778.258523 1780.709908 1782.789349 1782.747280 1784.798582 1786.555691
85.480000 1780.974850 1782.962176 1785.101366 1784.995060 1786.959561 1788.717001
85.580000 1783.393295 1785.396941 1787.389643 1787.366102 1789.336910 1791.151986
85.680000 1785.521076 1787.612701 1789.600306 1789.554301 1791.428246 1793.221348
85.780000 1787.273669 1789.726430 1791.743336 1791.578311 1793.390289 1795.334968
85.880000 1789.459660 1791.593933 1793.614726 1793.526019 1795.459763 1797.137897
85.980000 1791.356111 1793.482353 1795.379550 1795.351124 1797.281710 1798.920399
86.080000 1793.334530 1795.226858 1797.197652 1797.135579 1799.001943 1800.721877
86.180000 1795.566546 1797.304272 1799.145942 1799.098606 1800.824526 1802.580203
86.280000 1797.695299 1799.360838 1801.053001 1801.064936 1802.709853 1804.587107
86.380000 1799.831448 1801.489182 1803.104681 1803.230281 1805.037482 1807.041805
86.480000 1802.051475 1803.363640 1805.078094 1805.271481 1807.213770 1809.724507
86.580000 1803.786830 1805.235406 1807.068927 1807.340254 1809.417580 1812.286980
86.680000 1805.404410 1807.056678 1809.058579 1809.342654 1811.731838 1814.759126
86.780000 1807.083472 1808.855011 1811.114153 1811.453255 1814.110333 1817.363977
86.880000 1808.547158 1810.690169 1813.235001 1813.574767 1816.389767 1819.963855
86.980000 1810.420331 1812.621327 1815.405842 1815.729156 1818.922104 1822.299936
87.080000 1812.440573 1814.552219 1817.754163 1817.964321 1821.278656 1824.940849
87.180000 1814.321986 1816.688152 1820.104591 1820.247632 1823.701275 1826.977149
87.280000 1816.206994 1818.947447 1822.597243 1822.602060 1825.910792 1829.280913
87.380000 1818.243948 1821.545571 1825.219506 1825.042050 1828.281866 1831.290762
87.480000 1820.661445 1824.546802 1827.812701 1827.670003 1830.676562 1834.049828
87.580000 1823.500528 1827.351465 1830.516364 1830.391192 1833.296599 1836.562958
87.680000 1826.517933 1830.558560 1833.511764 1833.586923 1836.551536 1840.656745
87.780000 1830.334787 1833.575895 1836.636532 1836.829463 1840.262142 1844.297764
87.880000 1833.499096 1836.596758 1839.826799 1840.076664 1843.717314 1847.821787
87.980000 1836.064354 1839.491010 1843.030739 1843.086358 1846.673113 1850.301513
88.080000 1838.814224 1842.470084 1846.000227 1846.188678 1849.879695 1854.096020
88.180000 1841.661661 1845.683331 1849.396297 1849.523961 1853.533636 1857.795785
88.280000 1844.620436 1848.366137 1852.238001 1852.483623 1856.812094 1861.219413
88.380000 1847.272167 1850.990514 1855.143080 1855.375997 1859.965744 1864.241448
88.480000 1850.193900 1853.791558 1858.162339 1858.342639 1862.758891 1868.125924
88.580000 1852.144461 1856.619757 1861.317665 1861.552237 1866.321924 1872.109203
88.680000 1854.520408 1859.445026 1864.510322 1864.710919 1869.949278 1876.381550
88.780000 1857.183642 1862.569822 1867.895891 1868.066491 1873.890059 1878.954889
88.880000 1859.539109 1865.602515 1871.495919 1871.311727 1876.980731 1881.376520
88.980000 1862.054168 1868.625606 1875.210139 1874.506365 1880.276626 1883.661430
89.080000 1864.673870 1872.462354 1878.324644 1877.483703 1882.753284 1885.596241
89.180000 1867.513903 1875.930620 1881.015079 1880.260301 1884.778835 1887.940300
89.280000 1872.149634 1879.261722 1883.393739 1882.942203 1886.847218 1889.613144
89.380000 1876.431270 1882.285376 1885.878119 1885.454898 1888.857538 1891.419454
89.480000 1880.561771 1884.859784 1888.000873 1887.677161 1890.818780 1893.188981
89.580000 1883.141855 1887.129566 1890.156712 1889.828801 1892.670948 1894.814302
89.680000 1885.879149 1889.322424 1892.132216 1891.862788 1894.442872 1896.602768
89.780000 1888.447057 1891.615038 1894.233752 1893.983232 1896.405607 1898.315761
89.880000 1890.264982 1893.727144 1896.295371 1896.007401 1898.302636 1899.951226
89.920000 1891.506300 1894.525671 1897.117022 1896.813072 1899.045928 1900.633520
90.020000 1893.564602 1896.653866 1899.011440 1898.728841 1900.726654 1902.217712
90.120000 1895.838326 1898.688787 1900.844831 1900.569049 1902.393021 1903.805695
90.220000 1898.570973 1900.699412 1902.707213 1902.457128 1904.108773 1905.302949
90.320000 1900.973684 1902.989571 1904.546766 1904.391022 1905.802281 1907.156850
90.420000 1903.388969 1904.944572 1906.232213 1906.216193 1907.467697 1908.887098
90.520000 1905.427934 1906.780175 1907.901143 1907.974699 1909.098721 1910.944781
90.620000 1907.391560 1908.603025 1909.775630 1909.909551 1911.182298 1913.279363
90.720000 1909.049589 1910.341968 1911.613500 1911.777576 1913.213960 1915.588010
90.820000 1910.727170 1911.971726 1913.510009 1913.605524 1915.316443 1917.193476
90.920000 1912.378822 1913.705959 1915.350455 1915.478547 1917.254003 1919.333717
91.020000 1913.945939 1915.469095 1917.282344 1917.359835 1919.231173 1921.239295
91.120000 1915.583046 1917.273632 1919.201897 1919.234005 1921.170825 1923.101735
91.220000 1917.472731 1919.332060 1921.243365 1921.249448 1923.207661 1925.368689
91.320000 1919.239852 1921.229545 1923.157135 1923.218644 1925.229848 1927.167775
91.420000 1921.242095 1923.221981 1925.219180 1925.240678 1927.351712 1929.043255
91.520000 1923.558721 1925.306536 1927.472712 1927.350280 1929.320491 1930.932202
91.620000 1925.571530 1927.545108 1929.475012 1929.411246 1931.295991 1932.984310
91.720000 1927.428583 1929.502250 1931.466428 1931.381430 1933.304909 1934.741226
91.820000 1929.136626 1931.559314 1933.385962 1933.324120 1935.185706 1936.634331
91.920000 1931.385911 1933.494725 1935.311983 1935.291673 1937.099402 1938.757763
92.020000 1933.423531 1935.264613 1937.093707 1937.114852 1938.978996 1940.701784
92.120000 1935.444998 1937.173585 1939.052100 1939.038266 1940.835428 1942.435010
92.220000 1937.249672 1939.175770 1941.004420 1940.941516 1942.794308 1944.260431
92.320000 1939.187663 1940.997204 1942.805857 1942.740874 1944.587340 1945.786540
92.420000 1940.926129 1942.842667 1944.514217 1944.520660 1946.332297 1947.495963
92.520000 1943.100810 1944.867709 1946.476799 1946.433559 1948.068652 1949.199331
92.620000 1945.204111 1946.963194 1948.586015 1948.454558 1949.939195 1951.027362
92.720000 1947.730018 1949.375209 1950.756218 1950.720024 1952.035572 1953.545483
92.820000 1950.890647 1952.192962 1953.511662 1953.825690 1955.463583 1958.378772
92.920000 1952.985361 1954.521327 1956.435971 1956.833232 1959.065282 1962.981072
93.020000 1954.852121 1956.756224 1959.339675 1959.561532 1962.355920 1965.597015
93.120000 1956.700948 1959.171459 1962.136527 1962.182783 1965.212935 1968.064540
93.220000 1958.686827 1961.785035 1964.786344 1964.749234 1967.703830 1970.513687
93.320000 1961.611742 1964.253568 1967.461534 1967.320301 1970.129743 1972.641497
93.420000 1964.302794 1967.173488 1970.131483 1970.034903 1972.837724 1975.005312
93.520000 1966.994635 1969.993302 1973.009854 1972.877214 1975.590760 1978.172952
93.620000 1970.125344 1973.391632 1976.152634 1976.073150 1978.687128 1981.287621
93.720000 1974.421259 1977.145965 1979.651370 1979.605063 1982.144656 1984.745013
93.820000 1978.111023 1980.398267 1982.757998 1982.777698 1985.135275 1987.538954
93.920000 1980.800542 1983.210503 1985.511641 1985.425514 1987.645512 1989.838007
94.020000 1983.526373 1985.675940 1987.793348 1987.724170 1989.903620 1991.887852
94.120000 1985.762192 1987.772355 1989.999573 1989.930863 1992.041595 1993.883201
94.220000 1988.101828 1989.984948 1992.093524 1992.135673 1994.354993 1996.523557
94.320000 1990.366386 1992.296276 1994.372460 1994.439282 1996.634237 1998.493742
94.420000 1992.729012 1994.820124 1996.961849 1996.962519 1999.112174 2001.029867
94.520000 1995.024180 1997.561773 1999.841822 1999.726792 2001.934738 2003.867996
94.620000 1998.671285 2001.221457 2003.335668 2003.361080 2005.472814 2007.899552
94.720000 2001.913726 2004.222033 2006.542661 2006.514059 2008.812137 2011.319178
94.820000 2004.086120 2006.750603 2009.280880 2009.305120 2011.971573 2014.418140
94.920000 2006.112570 2009.355508 2011.843289 2011.887941 2014.618193 2016.863850
95.020000 2008.506928 2011.893636 2014.300834 2014.318067 2017.035363 2019.090075
95.120000 2011.385204 2014.315761 2016.878220 2016.789606 2019.365395 2021.620559
95.220000 2014.094065 2016.613412 2019.196802 2019.132646 2021.556389 2023.764362
95.320000 2016.356927 2019.090106 2021.489177 2021.445319 2023.877430 2025.820495
95.420000 2019.541026 2021.848447 2024.007638 2024.029148 2026.362585 2028.288629
95.520000 2022.729634 2024.593595 2026.589837 2026.610883 2028.668029 2030.624519
95.620000 2025.204063 2027.039742 2028.923909 2028.928438 2030.892432 2032.757154
95.720000 2027.435959 2029.182334 2031.156653 2031.090759 2032.862758 2034.677497
95.820000 2029.416264 2031.303397 2033.153416 2033.114273 2034.871373 2036.434196
95.920000 2031.212710 2033.306582 2035.206802 2035.138789 2036.962564 2038.395213
96.020000 2033.443771 2035.258491 2037.201911 2037.143934 2038.980500 2040.630061
96.120000 2035.215203 2037.204656 2039.093418 2039.138571 2041.048701 2043.080707
96.220000 2037.267244 2039.189127 2041.064416 2041.149439 2043.124324 2045.701065
96.320000 2039.127950 2041.039047 2042.973150 2043.130059 2045.191023 2048.659594
96.420000 2041.064446 2042.902973 2045.084569 2045.349503 2047.854861 2051.751103
96.520000 2042.991252 2045.077646 2047.445365 2047.810948 2050.639591 2054.755195
96.620000 2044.969466 2047.621237 2050.414818 2050.554117 2053.393689 2057.683580
