depth(m) lower_95(kyr) lower_68(kyr) median(kyr) mean(kyr) upper_68(kyr) upper_95(kyr)
450.995000 1485.982803 1491.804739 1500.405315 1507.077594 1531.842126 1537.228387
451.137105 1486.441285 1492.224816 1500.920543 1507.558698 1532.510072 1537.764945
451.279211 1486.873963 1492.718236 1501.780447 1508.060772 1533.020601 1538.309037
451.421316 1487.627329 1493.324541 1502.313770 1508.594982 1533.382107 1538.865702
451.563421 1488.222528 1493.832935 1503.130971 1509.166736 1533.827920 1539.309873
451.705526 1488.708937 1494.548874 1504.177140 1509.835796 1534.236285 1539.821998
451.847632 1489.106542 1495.155882 1504.939036 1510.460827 1534.656721 1540.126281
451.989737 1489.796358 1495.688765 1506.147479 1511.155152 1535.112335 1540.780259
452.131842 1490.207963 1496.166132 1507.028267 1511.800917 1535.424050 1541.305189
452.273947 1490.790004 1496.549525 1508.697368 1512.516707 1535.795257 1541.744106
452.416053 1491.266773 1496.995303 1509.806240 1513.162960 1536.265867 1542.643863
452.558158 1491.950360 1497.500576 1510.867599 1513.806765 1536.663016 1543.251529
452.700263 1492.513431 1497.921396 1512.062439 1514.469255 1537.133113 1543.662943
452.842368 1492.940671 1498.299045 1512.944449 1515.097390 1537.581190 1544.039556
452.984474 1493.445737 1498.690556 1514.591019 1515.862380 1537.976862 1544.770074
453.126579 1493.910106 1499.303511 1516.049441 1516.568381 1538.522065 1545.753546
453.268684 1494.352509 1499.670735 1517.455309 1517.259817 1538.854703 1546.112859
453.410789 1494.652616 1500.020477 1518.391958 1517.909386 1539.269977 1546.900025
453.552895 1495.117280 1500.458963 1519.401842 1518.507017 1539.635849 1547.203153
453.695000 1495.475754 1500.858310 1520.257787 1519.116254 1540.301596 1547.835573
453.795000 1495.814067 1501.065762 1520.702776 1519.462477 1540.468824 1548.115763
453.895000 1496.007125 1501.278548 1521.157596 1519.806951 1540.763620 1548.463051
453.995000 1496.310427 1501.680495 1521.572297 1520.167030 1541.104700 1548.763941
454.139667 1496.785098 1502.273502 1522.142413 1520.735196 1541.455584 1549.262712
454.284333 1497.004756 1502.690687 1522.752165 1521.317931 1541.980909 1549.938891
454.429000 1497.371748 1503.033180 1523.228908 1521.900459 1542.344102 1550.282679
454.573667 1497.723544 1503.446300 1523.707185 1522.519224 1542.726105 1550.598766
454.718333 1498.094818 1503.795285 1524.150407 1523.174616 1543.221110 1551.097278
454.863000 1498.346724 1504.201554 1524.742586 1523.805404 1543.658649 1551.431166
455.007667 1498.743472 1504.530128 1525.136032 1524.409218 1544.121503 1552.069460
455.152333 1499.008021 1504.863747 1525.650881 1525.004587 1544.615670 1552.559425
455.297000 1499.314684 1505.207511 1526.274834 1525.665747 1545.063257 1552.893612
455.441667 1499.537812 1505.559615 1526.727783 1526.271417 1545.612916 1553.337595
455.586333 1499.887063 1505.954666 1527.228370 1526.930842 1546.092006 1553.909043
455.731000 1500.167387 1506.314914 1527.731915 1527.500070 1546.563837 1554.150372
455.875667 1500.546401 1506.719567 1528.568983 1528.106643 1547.033319 1554.547202
456.020333 1500.918242 1507.015293 1529.207420 1528.681142 1547.454833 1554.914031
456.165000 1501.286642 1507.350930 1529.783837 1529.249147 1547.805972 1555.431668
456.308636 1501.642077 1507.815145 1530.533663 1529.789684 1548.269018 1555.937617
456.452273 1502.038597 1508.267099 1531.071346 1530.323997 1548.741013 1556.223099
456.595909 1502.501903 1508.685503 1531.635510 1530.838108 1549.016062 1556.558896
456.739545 1502.939240 1509.143144 1532.360949 1531.355617 1549.423046 1557.120769
456.883182 1503.673414 1509.498035 1532.945939 1531.871997 1549.828000 1557.538789
457.026818 1504.037281 1510.008973 1533.630700 1532.387556 1550.364624 1557.750162
457.170455 1504.381801 1510.379063 1534.223289 1532.909904 1550.790116 1558.170516
457.314091 1504.843598 1510.754006 1534.967124 1533.476210 1551.241335 1558.446926
457.457727 1505.156784 1511.193778 1535.636949 1533.988475 1551.633717 1558.678634
457.601364 1505.793883 1511.538912 1536.350362 1534.511486 1552.002707 1558.915189
457.745000 1506.329859 1511.913263 1536.956392 1535.012411 1552.385213 1559.442373
457.888636 1506.834988 1512.296990 1537.839679 1535.539004 1552.848029 1559.922304
458.032273 1507.142242 1512.786140 1538.553019 1536.075934 1553.318052 1560.292221
458.175909 1507.655740 1513.205344 1539.219552 1536.616907 1553.805356 1560.694352
458.319545 1508.197866 1513.840484 1539.911681 1537.123795 1554.181816 1561.098145
458.463182 1508.476051 1514.285766 1540.584410 1537.649161 1554.717027 1561.415901
458.606818 1509.207894 1514.619462 1541.405554 1538.188610 1555.167430 1561.953813
458.750455 1509.608088 1515.202403 1542.121862 1538.718014 1555.561628 1562.442050
458.894091 1509.951113 1515.628378 1542.809248 1539.225879 1555.972176 1562.864134
459.037727 1510.415909 1516.229604 1543.458643 1539.745009 1556.314930 1563.410868
459.181364 1510.709216 1516.837120 1544.221433 1540.273151 1556.760697 1563.742840
459.325000 1511.158435 1517.357521 1544.801863 1540.775691 1557.221689 1564.212092
459.468636 1511.726078 1517.897915 1545.500563 1541.303109 1557.545322 1564.614581
459.612273 1512.132638 1518.499729 1546.093786 1541.820548 1557.960238 1564.846333
459.755909 1512.536082 1519.064344 1546.692052 1542.335259 1558.479290 1565.212656
459.899545 1512.886946 1519.626405 1547.570382 1542.881686 1558.941881 1565.977941
460.043182 1513.140686 1520.244636 1548.412887 1543.385233 1559.452782 1566.563723
460.186818 1513.610320 1520.834229 1549.065506 1543.918272 1559.964622 1566.809710
460.330455 1513.939510 1521.271162 1549.739820 1544.436486 1560.452768 1567.175401
460.474091 1514.373482 1521.844195 1550.573172 1544.958123 1560.781842 1567.525981
460.617727 1514.845196 1522.350910 1551.345693 1545.482930 1561.163574 1568.078762
460.761364 1515.188410 1522.764951 1552.134351 1546.005953 1561.665008 1568.533944
460.905000 1515.620417 1523.270684 1552.711791 1546.525600 1562.141905 1569.042390
461.048636 1515.918729 1523.629025 1553.457746 1547.038095 1562.624666 1569.742774
461.192273 1516.294307 1524.188023 1554.210288 1547.592170 1563.115806 1571.076039
461.335909 1516.723746 1524.863116 1554.825384 1548.100126 1563.465219 1571.844041
461.479545 1517.087846 1525.352557 1555.803989 1548.644652 1564.086331 1572.264360
461.623182 1517.467025 1525.814321 1556.650485 1549.185150 1564.646762 1572.731885
461.766818 1517.861580 1526.154858 1557.300831 1549.708627 1565.141422 1573.381653
461.910455 1518.350691 1526.677625 1557.961021 1550.237275 1565.698308 1573.780908
462.054091 1518.766087 1527.089539 1558.585389 1550.728333 1566.234314 1574.258559
462.197727 1519.162877 1527.329059 1559.171231 1551.251199 1566.765195 1575.453395
462.341364 1519.417200 1528.092616 1560.029782 1551.768797 1567.236961 1576.036748
462.485000 1519.833322 1528.362534 1560.802545 1552.287670 1567.775428 1576.614190
462.628636 1520.244112 1528.803702 1561.445075 1552.788547 1568.324612 1577.042088
462.772273 1520.623445 1529.445596 1562.300999 1553.328250 1568.858771 1577.709778
462.915909 1521.083907 1530.093432 1562.749973 1553.843056 1569.405777 1578.409269
463.059545 1521.468787 1530.400965 1563.379276 1554.390848 1570.020290 1578.710383
463.203182 1521.901333 1531.010411 1563.851364 1554.910605 1570.705632 1579.375889
463.346818 1522.145862 1531.563191 1564.494293 1555.438107 1571.316481 1579.998373
463.490455 1522.718834 1532.245638 1565.075887 1555.971851 1571.779442 1580.977908
463.634091 1523.155549 1532.635442 1565.710672 1556.480012 1572.285955 1581.663222
463.777727 1523.795009 1533.150649 1566.168794 1556.991925 1572.807181 1581.909712
463.921364 1524.148892 1533.533554 1566.930519 1557.500187 1573.346690 1582.288640
464.065000 1524.605903 1533.968989 1567.376451 1558.009348 1573.776719 1583.637226
464.209902 1524.903705 1534.665083 1567.878683 1558.548295 1574.323762 1584.181798
464.354804 1525.221213 1535.099607 1568.287906 1559.070759 1574.882801 1584.802675
464.499706 1525.608118 1535.745727 1568.656103 1559.599685 1575.763771 1585.274751
464.644608 1526.000122 1536.808682 1568.979056 1560.166198 1576.362982 1586.123148
464.789510 1526.397120 1537.271102 1569.347560 1560.713864 1576.855371 1586.511326
464.934412 1526.882037 1538.261973 1569.773472 1561.296721 1577.206789 1587.647997
465.079314 1527.318167 1538.946818 1570.038191 1561.847800 1577.627010 1588.848268
465.224216 1527.692848 1539.559611 1570.395273 1562.406386 1578.181966 1589.379819
465.369118 1527.966547 1540.226151 1570.737051 1562.956014 1578.582049 1590.161576
465.514020 1528.912816 1540.941958 1571.120204 1563.508341 1579.034048 1590.647015
465.658922 1529.525651 1541.577521 1571.485689 1564.064167 1579.517549 1591.339950
465.803824 1529.859346 1542.175500 1571.717863 1564.633735 1580.134928 1592.506436
465.948725 1530.202623 1543.163098 1572.042975 1565.161156 1580.569189 1592.947728
466.093627 1530.589100 1544.099258 1572.352070 1565.698731 1581.047963 1594.096201
466.238529 1531.013085 1545.096453 1572.704148 1566.250003 1581.534879 1594.485520
466.383431 1531.324323 1545.973200 1572.985363 1566.784162 1582.067326 1595.034520
466.528333 1531.852703 1546.704418 1573.285350 1567.382276 1582.429028 1595.464395
466.673235 1532.207536 1547.241671 1573.576910 1567.916137 1583.022855 1595.832231
466.818137 1532.890905 1547.881937 1573.904798 1568.471037 1583.513763 1596.267805
466.963039 1533.336755 1548.733360 1574.230853 1569.050899 1584.022287 1596.759636
467.107941 1533.787450 1549.511208 1574.574845 1569.590756 1584.499628 1597.934421
467.252843 1534.329413 1550.345767 1574.942977 1570.149483 1584.918570 1598.355489
467.397745 1534.800731 1550.989019 1575.331545 1570.671867 1585.355241 1598.802908
467.542647 1535.115876 1551.805143 1575.671442 1571.261865 1585.750465 1599.872056
467.687549 1535.535142 1552.826113 1575.986191 1571.810825 1586.179486 1600.719198
467.832451 1535.787718 1553.289449 1576.315295 1572.359724 1586.643095 1601.211662
467.977353 1536.114698 1554.144400 1576.636120 1572.948093 1587.058723 1602.262316
468.122255 1536.585973 1554.520254 1577.030916 1573.485041 1587.623157 1602.946775
468.267157 1537.052967 1554.966688 1577.377129 1574.054269 1587.984925 1603.812572
468.412059 1537.410859 1555.477833 1577.709304 1574.644114 1588.419842 1604.523482
468.556961 1537.774954 1556.016748 1577.978151 1575.185805 1588.907089 1605.007340
468.701863 1538.112887 1556.501173 1578.306365 1575.735003 1589.465023 1605.368411
468.846765 1538.333757 1557.135475 1578.707101 1576.297451 1590.059176 1606.034899
468.991667 1538.527023 1557.648557 1579.069313 1576.841601 1590.681547 1606.917817
469.136569 1538.796667 1558.167980 1579.409379 1577.348798 1591.014149 1607.917968
469.281471 1539.100029 1558.711449 1580.044087 1577.922438 1591.487807 1608.729654
469.426373 1539.427228 1559.364642 1580.545277 1578.487343 1591.984287 1609.160379
469.571275 1540.004393 1559.987707 1581.045256 1579.053579 1592.482565 1609.948838
469.716176 1540.690643 1560.389822 1581.541280 1579.596414 1592.992431 1611.993323
469.861078 1541.019131 1560.943009 1581.815346 1580.163584 1593.573027 1612.578236
470.005980 1541.350772 1561.355366 1582.186887 1580.722982 1593.964028 1613.279779
470.150882 1541.978547 1561.889869 1582.710898 1581.279447 1594.462689 1613.923134
470.295784 1542.345963 1562.460361 1583.062946 1581.834871 1594.902350 1614.613397
470.440686 1542.667855 1562.957555 1583.557133 1582.413072 1595.405567 1615.320076
470.585588 1543.052973 1563.502776 1584.163097 1582.978166 1595.913496 1616.681659
470.730490 1543.499875 1564.272143 1584.598688 1583.531364 1596.241887 1617.146782
470.875392 1543.831048 1564.867296 1585.085757 1584.104363 1596.706520 1618.476731
471.020294 1544.367412 1565.500810 1585.658076 1584.670405 1597.372806 1619.341767
471.165196 1544.846642 1566.128219 1586.173810 1585.238941 1597.706084 1619.796975
471.310098 1545.489014 1566.563530 1586.672735 1585.788070 1598.193970 1620.182736
471.455000 1545.793683 1567.575902 1587.110292 1586.342651 1598.683340 1620.667138
471.598600 1546.850907 1568.245754 1587.578370 1586.908935 1599.049933 1621.099112
471.742200 1547.275232 1568.901290 1588.053188 1587.486034 1599.534399 1622.064643
471.885800 1547.690871 1569.694317 1588.796303 1588.077504 1600.001435 1622.318782
472.029400 1549.003019 1570.831839 1589.253626 1588.676405 1600.436648 1622.634951
472.173000 1549.992844 1572.046671 1589.902547 1589.331265 1600.989549 1623.059108
472.316600 1552.675169 1572.744759 1590.370191 1589.931625 1601.605064 1623.328654
472.460200 1554.280938 1573.545117 1590.850519 1590.515062 1602.028806 1623.636113
472.603800 1554.739352 1574.653153 1591.390696 1591.112627 1602.767844 1623.932902
472.747400 1556.187593 1575.274034 1592.102733 1591.723044 1603.219464 1624.295155
472.891000 1557.655394 1576.055578 1592.663781 1592.359586 1603.779601 1624.467778
473.034600 1558.454114 1576.863957 1593.259397 1592.988291 1604.390539 1624.642083
473.178200 1559.067848 1577.544566 1593.886855 1593.568742 1605.090393 1624.790947
473.321800 1561.156901 1578.213302 1594.461696 1594.154782 1605.714358 1624.906943
473.465400 1562.516179 1578.790407 1594.968609 1594.728206 1606.219410 1625.133960
473.609000 1563.696712 1579.922193 1595.605983 1595.375508 1606.718603 1625.493498
473.752600 1564.404415 1580.698504 1596.069021 1596.048574 1607.446138 1625.820991
473.896200 1565.100513 1581.659528 1596.816589 1596.684541 1607.838232 1626.203185
474.039800 1566.149348 1582.213859 1597.198466 1597.294605 1608.366896 1626.559263
474.183400 1567.179356 1583.364368 1597.848762 1597.894931 1608.829044 1627.056486
474.327000 1567.880387 1584.159145 1598.496006 1598.492732 1609.395273 1627.700863
474.470600 1569.793924 1584.750375 1599.018002 1599.091624 1609.953445 1628.207096
474.614200 1570.200240 1585.337623 1599.798048 1599.688102 1610.482674 1628.788101
474.757800 1570.848435 1586.076944 1600.474173 1600.312312 1611.100433 1629.145284
474.901400 1571.838748 1587.185951 1601.095723 1600.928467 1611.749849 1630.222065
475.045000 1572.466796 1587.842351 1601.791219 1601.563495 1612.386363 1633.546489
475.188600 1573.024448 1588.331329 1602.425232 1602.154861 1612.895156 1636.855952
475.332200 1573.751363 1588.800189 1603.140405 1602.783981 1613.632791 1637.340094
475.475800 1574.592271 1589.417779 1603.762485 1603.369151 1614.237423 1638.843627
475.619400 1575.501945 1590.144681 1604.295919 1603.977279 1614.862271 1639.561465
475.763000 1576.544268 1590.782782 1604.879966 1604.579568 1615.467497 1640.026597
475.906600 1577.802354 1591.474539 1605.438447 1605.219582 1616.084303 1640.991224
476.050200 1578.160049 1592.032074 1605.998654 1605.857902 1616.938115 1642.685566
476.193800 1578.549505 1592.433910 1606.574123 1606.441023 1617.555287 1645.490919
476.337400 1579.165573 1592.856584 1607.143028 1607.023466 1618.159325 1645.799622
476.481000 1579.831825 1593.504176 1607.819902 1607.630371 1618.658069 1646.067737
476.624600 1580.374135 1594.432232 1608.601716 1608.248730 1619.229097 1650.290879
476.768200 1580.898950 1595.226107 1609.283847 1608.904246 1619.686477 1654.401100
476.911800 1581.513908 1595.835029 1609.846664 1609.507944 1620.223502 1655.567761
477.055400 1581.775319 1596.291680 1610.667332 1610.087408 1621.022422 1658.203349
477.199000 1582.352297 1596.702585 1611.468960 1610.679725 1621.633210 1658.589714
477.342600 1582.697770 1597.260216 1611.991441 1611.303830 1622.252274 1662.535271
477.486200 1583.548986 1597.894187 1612.535053 1611.956341 1622.884362 1663.074519
477.629800 1584.067073 1598.508559 1613.064978 1612.553517 1623.524107 1665.015943
477.773400 1585.086264 1598.919744 1613.600466 1613.165141 1624.036422 1666.677074
477.917000 1586.320571 1599.305463 1614.206766 1613.770941 1624.785857 1668.436001
478.060600 1586.900506 1599.877847 1614.651641 1614.345724 1625.566434 1670.169632
478.204200 1587.260010 1600.604707 1615.450520 1614.963829 1626.245403 1670.982407
478.347800 1587.972061 1601.199142 1616.068173 1615.545521 1626.799494 1672.299171
478.491400 1588.840062 1601.802384 1616.781269 1616.114223 1627.421198 1673.668060
478.635000 1589.793328 1602.320678 1617.334942 1616.673893 1627.865036 1674.504165
478.777727 1590.456426 1603.162436 1617.817475 1617.218771 1628.243505 1674.724234
478.920455 1591.478666 1603.672102 1618.327437 1617.768932 1628.613636 1675.236125
479.063182 1592.483864 1604.457605 1618.823970 1618.307373 1629.093563 1675.649087
479.205909 1593.248137 1605.460805 1619.441381 1618.900955 1629.583732 1676.087993
479.348636 1594.979068 1606.003783 1619.870695 1619.444339 1630.021232 1676.457603
479.491364 1595.780137 1606.508723 1620.408331 1620.007677 1630.398001 1677.041326
479.634091 1596.772367 1607.316635 1620.858824 1620.533547 1630.836777 1677.206014
479.776818 1597.432959 1607.952954 1621.257720 1621.055568 1631.255073 1677.452302
479.919545 1597.974749 1608.853295 1621.630874 1621.622584 1631.745780 1678.254097
480.062273 1598.707582 1609.648107 1622.040400 1622.158930 1632.223634 1678.786207
480.205000 1599.985044 1610.210999 1622.409867 1622.669821 1632.874474 1679.048303
480.347727 1600.396034 1611.072779 1623.079402 1623.233184 1633.356379 1679.363364
480.490455 1601.686419 1611.686720 1623.804465 1623.774720 1633.782387 1679.804809
480.633182 1602.018506 1612.433914 1624.177347 1624.282600 1634.120027 1680.035299
480.775909 1602.999857 1613.133574 1624.783636 1624.845716 1634.520996 1680.331317
480.918636 1604.033141 1613.731396 1625.316013 1625.418562 1635.021968 1680.870292
481.061364 1604.531395 1614.390132 1625.894148 1625.937544 1635.415934 1681.618543
481.204091 1604.758812 1615.011333 1626.395054 1626.495739 1635.858887 1682.305896
481.346818 1605.549901 1615.690235 1626.888277 1626.998957 1636.181143 1682.678496
481.489545 1606.461947 1616.328286 1627.351154 1627.508030 1636.572355 1682.945868
481.632273 1606.889252 1616.972903 1627.889638 1628.014025 1636.940260 1683.250423
481.775000 1607.361239 1617.692525 1628.245451 1628.507845 1637.258878 1683.522784
481.915000 1608.100679 1618.066054 1628.697904 1628.986760 1637.624741 1683.777825
482.055000 1608.374725 1618.716866 1629.201346 1629.473898 1637.896106 1684.064607
482.195000 1608.750496 1619.259605 1629.714524 1630.000799 1638.283733 1684.435788
482.335000 1609.148208 1619.885557 1630.227536 1630.498673 1638.627308 1684.766460
482.475000 1609.539101 1620.645582 1630.662261 1631.004469 1638.946897 1685.393898
482.615000 1610.197506 1621.221585 1631.221376 1631.478444 1639.215497 1685.762411
482.755000 1611.061159 1622.031395 1631.698495 1632.006690 1639.507461 1686.230969
482.895000 1611.602055 1622.794173 1632.144073 1632.494674 1639.917926 1686.526568
483.035000 1611.934833 1623.310133 1632.625390 1632.967201 1640.225318 1686.894550
483.175000 1613.660782 1623.815784 1633.061633 1633.465339 1640.455913 1687.212361
483.315000 1614.419592 1624.321194 1633.649888 1633.966401 1640.771022 1687.587430
483.455000 1614.753156 1624.768737 1634.198681 1634.465263 1641.051493 1688.048352
483.595000 1615.657525 1625.317804 1634.592491 1634.938416 1641.411966 1688.325110
483.735000 1616.318593 1625.899684 1635.154249 1635.439409 1641.788621 1688.670063
483.875000 1616.621324 1626.479885 1635.613756 1635.933904 1642.108117 1688.956766
484.015000 1617.276927 1627.065857 1636.040250 1636.409064 1642.363563 1689.326457
484.155000 1617.856345 1627.657878 1636.626337 1636.887426 1642.712774 1689.810973
484.295000 1618.687340 1628.114467 1637.202397 1637.399074 1643.084091 1690.066253
484.435000 1618.983238 1628.817944 1637.737712 1637.880847 1643.381430 1690.523726
484.575000 1619.259599 1629.186012 1638.096022 1638.332164 1643.668594 1690.727367
484.715000 1619.874743 1629.632830 1638.546311 1638.820266 1643.994619 1691.124075
484.855000 1620.136412 1630.205518 1639.008728 1639.289884 1644.542288 1691.275304
484.995000 1620.821386 1630.847136 1639.510358 1639.802893 1644.896655 1691.519223
