depth(m) lower_95(kyr) lower_68(kyr) median(kyr) mean(kyr) upper_68(kyr) upper_95(kyr)
142.160000 1494.053442 1496.270740 1498.156473 1498.097695 1500.055844 1501.565859
142.260000 1495.318204 1497.201963 1498.899981 1498.924620 1500.743286 1502.152880
142.360000 1496.600426 1498.141643 1499.884339 1499.806273 1501.483412 1502.784718
142.460000 1497.660901 1499.069939 1500.663079 1500.635195 1502.220805 1503.500878
142.560000 1498.658622 1499.912059 1501.539969 1501.508188 1503.015002 1504.204203
142.660000 1499.595059 1500.883443 1502.413594 1502.367743 1503.845666 1504.918052
142.710000 1500.045888 1501.348385 1502.818971 1502.808942 1504.299328 1505.375380
142.810000 1501.003593 1502.260285 1503.625723 1503.643344 1505.049580 1506.194415
142.910000 1502.049288 1503.123157 1504.430742 1504.471138 1505.787243 1506.930551
143.010000 1502.876623 1504.053085 1505.282849 1505.293102 1506.571149 1507.657201
143.110000 1503.829789 1504.905850 1506.117459 1506.116772 1507.305975 1508.401693
143.210000 1504.665787 1505.908143 1507.000770 1506.991993 1508.132958 1509.193444
143.310000 1505.611477 1506.788339 1507.920876 1507.925693 1509.013802 1510.321424
143.410000 1506.525889 1507.745711 1508.851541 1508.830390 1509.893646 1511.157568
143.510000 1507.647607 1508.689953 1509.777064 1509.757039 1510.795859 1511.944533
143.610000 1508.565066 1509.529752 1510.673771 1510.652527 1511.697354 1512.832947
143.710000 1509.343208 1510.446227 1511.500065 1511.500502 1512.583829 1513.692530
143.810000 1510.254172 1511.295083 1512.361585 1512.385276 1513.492078 1514.430679
143.910000 1510.928460 1512.086177 1513.227526 1513.209483 1514.286145 1515.348512
144.010000 1511.770743 1512.975001 1514.045853 1514.022189 1515.113814 1516.141646
144.110000 1512.552195 1513.713393 1514.835021 1514.799900 1515.901702 1516.809206
144.150000 1512.866352 1514.021134 1515.170512 1515.113836 1516.168292 1517.116601
144.250000 1513.741106 1514.895689 1515.933213 1515.889336 1516.867177 1517.714887
144.350000 1514.573425 1515.692959 1516.689453 1516.642708 1517.618551 1518.459718
144.450000 1515.345861 1516.494821 1517.497529 1517.415417 1518.324193 1519.214317
144.550000 1516.363570 1517.360450 1518.273113 1518.216547 1519.091060 1519.915833
144.660000 1517.217938 1518.198757 1519.142340 1519.077752 1519.924625 1520.656827
144.750000 1517.982629 1518.951336 1519.819422 1519.797109 1520.634942 1521.405691
144.850000 1518.679608 1519.642217 1520.559958 1520.522681 1521.355466 1522.129744
144.950000 1519.350867 1520.397324 1521.274712 1521.219424 1522.038637 1522.918047
145.050000 1520.106579 1521.103831 1521.969680 1521.924487 1522.766415 1523.565211
145.150000 1520.852389 1521.857054 1522.717195 1522.668407 1523.463917 1524.313487
145.250000 1521.739340 1522.630103 1523.429279 1523.419979 1524.202657 1525.038359
145.350000 1522.625856 1523.486047 1524.261402 1524.248409 1525.022110 1525.883355
145.450000 1523.529468 1524.295632 1525.039341 1525.052500 1525.809638 1526.667529
145.550000 1524.328902 1525.034822 1525.784553 1525.816576 1526.621854 1527.468287
145.610000 1524.762110 1525.445501 1526.208048 1526.250959 1527.084604 1527.865461
145.710000 1525.346594 1526.085710 1526.857162 1526.894468 1527.768387 1528.593339
145.810000 1525.927516 1526.685337 1527.452539 1527.510617 1528.358100 1529.376978
145.910000 1526.435587 1527.253149 1528.057918 1528.107225 1528.979299 1529.974473
146.010000 1527.023420 1527.844700 1528.657120 1528.702882 1529.584831 1530.599645
146.110000 1527.593838 1528.424392 1529.266781 1529.307324 1530.224573 1531.209843
146.210000 1528.103115 1529.032276 1529.848822 1529.898476 1530.843561 1531.776597
146.310000 1528.681018 1529.601515 1530.437304 1530.489853 1531.438073 1532.381208
146.410000 1529.259701 1530.157545 1531.050894 1531.083511 1532.022577 1532.973426
146.510000 1529.950241 1530.763658 1531.671784 1531.691127 1532.659815 1533.586763
146.610000 1530.569312 1531.365761 1532.265570 1532.299999 1533.224603 1534.180999
146.710000 1531.085183 1531.934088 1532.864355 1532.892741 1533.855138 1534.751826
146.810000 1531.640689 1532.587065 1533.462613 1533.506129 1534.446580 1535.361179
146.910000 1532.226038 1533.191615 1534.126970 1534.130269 1535.079925 1536.023878
147.010000 1532.827378 1533.841888 1534.727406 1534.762452 1535.714233 1536.661708
147.060000 1533.174165 1534.189064 1535.077301 1535.117580 1536.058705 1537.063567
147.160000 1533.923628 1534.862084 1535.839620 1535.845715 1536.838053 1537.857348
147.260000 1534.523035 1535.560368 1536.572694 1536.587209 1537.586793 1538.716323
147.360000 1535.279407 1536.320882 1537.381264 1537.412331 1538.520035 1539.702554
147.460000 1536.138988 1537.146369 1538.307993 1538.403116 1539.651519 1541.135491
147.580000 1537.600961 1538.566229 1539.994024 1540.208587 1541.838002 1544.065686
147.680000 1538.501493 1539.663390 1541.425880 1541.607626 1543.457513 1545.785343
147.780000 1539.685998 1541.154495 1543.174297 1543.324395 1545.557938 1547.548467
147.880000 1540.974624 1542.585144 1544.707733 1544.860692 1547.135731 1549.094322
147.980000 1542.359431 1544.449893 1546.585957 1546.599410 1548.763440 1550.739903
148.080000 1544.142437 1546.286561 1548.257676 1548.192989 1550.134911 1551.999786
148.180000 1546.007201 1547.749733 1549.509878 1549.543792 1551.338889 1552.995028
148.280000 1547.336175 1549.020196 1550.610979 1550.654459 1552.368239 1553.988140
148.380000 1548.253299 1549.914137 1551.650474 1551.606832 1553.280451 1555.005782
148.480000 1549.318681 1550.909432 1552.534456 1552.546424 1554.201020 1555.939001
148.560000 1550.020294 1551.627065 1553.261495 1553.271688 1554.905318 1556.688480
148.660000 1550.851854 1552.583218 1554.152356 1554.160452 1555.773777 1557.492819
148.760000 1551.600959 1553.485398 1555.068273 1555.049850 1556.682076 1558.294027
148.860000 1552.698589 1554.343671 1555.949172 1555.949063 1557.535531 1559.148626
148.960000 1553.615771 1555.336871 1556.917033 1556.850832 1558.427880 1560.005731
149.060000 1554.520973 1556.270392 1557.834498 1557.741061 1559.291818 1560.724635
149.160000 1555.499527 1557.216572 1558.685461 1558.642130 1560.126631 1561.308022
149.260000 1556.476186 1558.104644 1559.521320 1559.505261 1560.905307 1562.187092
149.360000 1557.658053 1559.042404 1560.437867 1560.372258 1561.730165 1562.881129
149.460000 1558.535643 1559.953952 1561.321344 1561.240958 1562.453920 1563.596986
149.560000 1559.545065 1560.911206 1562.220103 1562.122064 1563.339183 1564.423669
149.660000 1560.401219 1561.885762 1563.087502 1563.041872 1564.167400 1565.300497
149.760000 1561.626138 1562.933520 1564.112448 1564.050330 1565.170477 1566.252917
149.860000 1562.636468 1564.066948 1565.174043 1565.131017 1566.216890 1567.190551
149.960000 1563.994004 1565.227525 1566.368355 1566.302200 1567.334760 1568.297061
150.020000 1564.830625 1566.025356 1567.068754 1567.016504 1568.047735 1568.925604
150.120000 1566.079961 1567.231538 1568.161208 1568.155353 1569.116179 1570.060200
150.220000 1567.040674 1568.107813 1569.042326 1569.039934 1569.987800 1570.932286
150.320000 1568.057904 1569.009631 1569.906830 1569.906140 1570.833109 1571.722535
150.420000 1568.924007 1569.789197 1570.661127 1570.675266 1571.604273 1572.416522
150.520000 1569.502401 1570.520152 1571.387661 1571.389458 1572.292225 1573.081416
150.620000 1570.262281 1571.200246 1572.080558 1572.081117 1572.972552 1573.796638
150.720000 1570.962778 1571.865838 1572.748084 1572.765842 1573.667597 1574.510225
150.820000 1571.610745 1572.554651 1573.438608 1573.458316 1574.352414 1575.292119
150.920000 1572.318517 1573.264723 1574.151656 1574.157725 1575.072259 1576.082893
151.020000 1572.926118 1573.945682 1574.863663 1574.885143 1575.843263 1577.047053
151.120000 1573.503684 1574.562051 1575.516496 1575.576684 1576.624123 1577.906211
151.220000 1574.148455 1575.177605 1576.177837 1576.246404 1577.351969 1578.528332
151.320000 1574.718184 1575.804271 1576.871085 1576.941201 1578.145210 1579.189594
151.400000 1575.336333 1576.379634 1577.426383 1577.524054 1578.784307 1580.002142
151.470000 1575.772734 1576.864969 1577.934365 1578.029354 1579.313088 1580.495592
151.570000 1576.493520 1577.558013 1578.690481 1578.793422 1580.092525 1581.408150
151.670000 1577.228433 1578.201358 1579.492647 1579.552261 1580.897790 1582.445336
151.770000 1577.814821 1578.948440 1580.302924 1580.345188 1581.674690 1583.243697
151.870000 1578.557696 1579.685551 1581.114933 1581.159338 1582.536419 1584.232913
151.970000 1579.226668 1580.418442 1581.881862 1581.976795 1583.513438 1585.234565
152.010000 1579.616931 1580.741246 1582.229628 1582.308479 1583.906868 1585.529872
152.110000 1580.238513 1581.552464 1583.036663 1583.141384 1584.784723 1586.401693
152.210000 1581.044229 1582.394801 1583.870203 1584.000590 1585.681086 1587.376435
152.310000 1581.780766 1583.193479 1584.773657 1584.831921 1586.576553 1588.321082
152.410000 1582.546649 1583.946802 1585.563666 1585.651034 1587.427674 1589.031741
152.510000 1583.243116 1584.780728 1586.431379 1586.506952 1588.255144 1589.981483
152.610000 1584.032282 1585.532788 1587.228500 1587.321682 1589.135099 1590.679012
152.710000 1584.774785 1586.354759 1588.007522 1588.116255 1589.845187 1591.646684
152.810000 1585.522640 1587.098183 1588.841797 1588.908952 1590.692397 1592.491454
152.950000 1586.522079 1588.102324 1589.894950 1589.946409 1591.784697 1593.733170
153.090000 1587.470046 1589.078558 1590.894777 1590.950631 1592.814834 1594.984846
153.190000 1588.065136 1589.745021 1591.575102 1591.650028 1593.500294 1595.645322
153.290000 1588.806926 1590.377953 1592.307937 1592.351411 1594.222248 1596.257574
153.390000 1589.469936 1591.141494 1593.030395 1593.065639 1594.855404 1597.013060
153.490000 1590.113963 1591.886859 1593.720930 1593.756200 1595.617033 1597.790954
153.590000 1590.825053 1592.503854 1594.443655 1594.440725 1596.268950 1598.435597
153.690000 1591.724699 1593.259160 1595.115028 1595.147117 1596.918481 1599.119820
153.790000 1592.320389 1593.940216 1595.775680 1595.855579 1597.745381 1599.764437
153.890000 1593.082318 1594.568151 1596.495546 1596.546981 1598.439258 1600.500952
153.990000 1593.675021 1595.399165 1597.221926 1597.282064 1599.144875 1601.536739
154.090000 1594.241769 1596.085354 1597.997208 1598.035364 1599.954813 1602.246483
154.190000 1594.813433 1596.756675 1598.700013 1598.750374 1600.668668 1603.209101
154.290000 1595.602322 1597.463879 1599.412791 1599.501454 1601.547532 1604.186919
154.350000 1596.041935 1597.934935 1599.869427 1599.960410 1601.947303 1604.545733
154.450000 1596.658667 1598.681384 1600.632653 1600.741880 1602.822586 1605.270875
154.550000 1597.361819 1599.508032 1601.399655 1601.555444 1603.651979 1606.051030
