depth(m) lower_95(kyr) lower_68(kyr) median(kyr) mean(kyr) upper_68(kyr) upper_95(kyr)
0.000000 0.632558 1.508865 2.336308 2.277701 3.054045 3.698772
0.010000 1.029533 1.887226 2.715547 2.653531 3.421446 4.028104
0.020000 1.387788 2.239334 3.080801 3.005779 3.756787 4.358671
0.030000 1.708595 2.584509 3.419540 3.354676 4.103379 4.722708
0.040000 2.036345 2.918379 3.778164 3.706744 4.462367 5.068538
0.050000 2.401390 3.249186 4.108510 4.055685 4.810083 5.443038
0.060000 2.718022 3.645380 4.470972 4.412173 5.163598 5.819049
0.070000 3.118086 3.981983 4.832518 4.770897 5.525836 6.228682
0.080000 3.493799 4.339421 5.182001 5.124289 5.887894 6.618394
0.090000 3.889863 4.661661 5.552171 5.476903 6.230594 6.954985
0.100000 4.257173 5.015357 5.904886 5.841803 6.575574 7.329223
0.110000 4.631206 5.388480 6.275514 6.222162 6.964486 7.780955
0.120000 5.032769 5.780388 6.668279 6.624306 7.392482 8.246950
0.130000 5.457996 6.153661 7.060927 7.022010 7.786120 8.659478
0.140000 5.840582 6.570124 7.511241 7.454365 8.266138 9.127632
0.150000 6.129791 6.966453 7.930542 7.878125 8.698078 9.558516
0.160000 6.615446 7.452473 8.368638 8.316642 9.117140 9.923934
0.170000 7.103588 7.984834 8.845100 8.804599 9.577778 10.407578
0.180000 7.647886 8.536360 9.334488 9.315811 10.114396 10.901275
0.190000 8.152117 9.060041 9.818841 9.824296 10.616072 11.427749
0.200000 8.581110 9.517910 10.294575 10.300862 11.103360 11.885689
0.210000 9.070550 9.967590 10.709964 10.724799 11.504931 12.329969
0.220000 9.667401 10.429175 11.172568 11.209853 12.017534 12.846971
0.230000 10.214067 10.980460 11.782714 11.807806 12.667776 13.542483
0.240000 10.829525 11.575322 12.481745 12.512031 13.501167 14.343965
0.250000 11.654410 12.656759 13.633227 13.583881 14.515299 15.145841
0.260000 12.891133 13.802409 14.689436 14.606961 15.354488 15.894067
0.270000 13.903476 14.807855 15.513741 15.469307 16.152264 16.750335
0.280000 14.766845 15.520214 16.127328 16.132429 16.774929 17.520886
0.290000 15.350162 16.046677 16.676501 16.729677 17.393629 18.511737
0.300000 15.690119 16.448913 17.149788 17.241705 18.026695 19.305059
0.310000 16.093340 16.873567 17.639685 17.742797 18.595705 20.054780
0.320000 16.424868 17.276127 18.076496 18.224297 19.199005 20.716358
0.330000 16.771676 17.656704 18.539682 18.711414 19.786191 21.447608
0.340000 17.090570 18.081563 19.034781 19.200443 20.342244 22.185792
0.350000 17.459008 18.479283 19.566992 19.699760 20.827364 22.875053
0.360000 17.826028 18.891682 20.054069 20.183856 21.393465 23.537159
0.370000 18.207267 19.284185 20.555894 20.636926 21.876930 24.026872
0.380000 18.581047 19.679937 20.972508 21.086294 22.414356 24.467732
0.390000 19.032175 20.131347 21.405634 21.540481 23.001416 24.905500
0.400000 19.397967 20.545534 21.881754 22.021191 23.530287 25.393143
0.410000 19.889606 21.034721 22.339789 22.516796 24.019970 26.021321
0.420000 20.417821 21.515218 22.819812 22.999750 24.512510 26.723911
0.430000 20.867714 22.054821 23.285782 23.487060 24.991817 27.393687
0.440000 21.272786 22.494868 23.733561 23.995596 25.605503 27.960455
0.450000 21.790742 23.018990 24.261774 24.547526 26.249710 28.672448
0.460000 22.183125 23.577881 24.792950 25.137690 26.921146 29.410016
0.470000 22.783990 24.128659 25.445299 25.764078 27.489163 30.065245
0.480000 23.204449 24.635984 26.086971 26.343770 28.036470 30.860742
0.490000 23.679055 25.125857 26.692080 26.920427 28.661676 31.456567
0.500000 24.230057 25.599806 27.292723 27.534850 29.377924 32.311430
0.510000 24.719916 26.088037 27.939911 28.171982 30.214958 33.273049
0.520000 25.295046 26.682099 28.614706 28.864011 30.898040 34.321900
0.530000 25.744592 27.238729 29.426622 29.579607 31.802225 35.251411
0.540000 26.184708 27.722614 30.072136 30.270910 32.526670 36.395074
0.550000 26.638243 28.261699 30.766228 30.983593 33.521171 37.278045
0.560000 27.243568 28.845365 31.489429 31.693010 34.382323 38.085115
0.570000 27.721333 29.379469 32.158076 32.394096 35.204261 38.729933
0.580000 28.192695 30.014967 32.797763 33.087571 36.008992 39.493472
0.590000 28.614096 30.656351 33.582834 33.816408 37.049039 40.127212
0.600000 29.118176 31.305261 34.256189 34.521898 37.770372 40.707883
0.610000 29.653715 31.983456 35.006768 35.222156 38.513055 41.230733
0.620000 30.274224 32.660994 35.644248 35.905712 39.310273 41.758549
0.630000 30.751507 33.510775 36.418940 36.598704 40.058701 42.551774
0.640000 31.318921 34.177996 37.191628 37.286939 40.635554 43.027808
0.650000 31.852249 34.806384 37.899997 37.983128 41.300341 43.702930
0.660000 32.685638 35.507660 38.708467 38.711869 42.013849 44.263445
0.670000 33.189947 36.173973 39.440977 39.413015 42.676250 44.883557
0.680000 33.863995 36.913112 40.253030 40.114574 43.399648 45.428396
0.690000 34.703095 37.681725 40.922751 40.803919 43.977829 45.976455
0.700000 35.456763 38.329979 41.619597 41.481364 44.557567 46.546374
0.710000 36.333092 39.152958 42.374405 42.164593 45.264215 47.180925
0.720000 36.869432 39.754356 43.087433 42.827761 45.826955 47.820369
0.730000 37.589252 40.374807 43.818974 43.493046 46.484696 48.555717
0.740000 38.321186 41.171241 44.395527 44.149471 47.046102 49.386580
0.750000 39.108641 41.837958 45.058253 44.792049 47.637010 50.128176
0.760000 39.848538 42.438663 45.703156 45.429466 48.274712 50.843387
0.770000 40.559426 43.096620 46.290664 46.091687 48.899217 51.448352
0.780000 41.146276 43.813150 46.820673 46.738994 49.486838 52.146575
0.790000 41.745832 44.399193 47.454670 47.398598 50.115442 52.856766
0.800000 42.492430 45.131318 48.065410 48.067533 50.807824 54.037244
0.810000 42.933222 45.831986 48.738642 48.725314 51.403600 54.773940
0.820000 43.462464 46.452021 49.462453 49.398663 52.144813 55.558011
0.830000 44.116893 47.059496 50.041119 50.069212 52.866765 56.358088
0.840000 44.842401 47.662617 50.625032 50.732724 53.709603 57.187400
0.850000 45.559139 48.398016 51.267398 51.416659 54.603328 57.769360
0.860000 46.255386 49.059714 51.915599 52.124619 55.342595 58.729338
0.870000 47.096639 49.693356 52.626290 52.856989 56.140397 59.324013
0.880000 47.705233 50.442645 53.322724 53.586115 56.958063 59.981269
0.890000 48.316653 51.134760 54.101631 54.318755 57.785743 60.697768
0.900000 49.149050 51.803896 54.898827 55.085948 58.789784 61.313918
0.910000 49.869415 52.529660 55.676693 55.842512 59.565893 61.952074
0.920000 50.712552 53.312532 56.590965 56.675923 60.329255 62.603938
0.930000 51.604268 54.220560 57.508888 57.517002 61.106367 63.210373
0.940000 52.447990 54.890003 58.413831 58.330110 61.812483 63.709123
0.950000 53.158737 55.807681 59.300845 59.169316 62.440273 64.250105
0.960000 53.974361 56.781820 60.185164 60.040717 63.079599 65.083993
0.970000 54.858673 57.769895 61.175502 60.922327 63.807432 65.725147
0.980000 55.622473 58.740694 62.191254 61.816281 64.467993 66.290514
0.990000 56.582166 59.963218 63.030089 62.658411 65.188795 66.915560
1.000000 57.422981 60.958664 63.982322 63.549185 65.955922 67.473679
1.010000 58.502006 61.995743 64.809406 64.357946 66.594633 68.160074
1.020000 59.730807 63.077011 65.396958 65.112253 67.192648 68.846504
1.030000 60.651585 63.971288 66.001386 65.801794 67.792889 69.325295
1.040000 62.045122 64.565227 66.606999 66.455363 68.305938 69.833293
1.050000 63.074987 65.298777 67.212519 67.101448 68.871543 70.438606
1.060000 64.195686 65.974502 67.832227 67.741658 69.395101 71.109831
1.070000 65.061929 66.684449 68.433535 68.356043 69.947293 71.584640
1.080000 65.705344 67.319332 69.027769 68.961266 70.506882 72.127099
1.090000 66.484951 68.128673 69.661382 69.610115 71.118876 72.749125
1.100000 67.202315 68.806650 70.302133 70.276336 71.795225 73.426826
1.110000 68.070933 69.468026 70.991979 70.991290 72.531718 74.162316
1.120000 68.777752 70.205353 71.723458 71.741124 73.259992 74.886694
1.130000 69.607685 71.087495 72.461297 72.555265 74.035340 75.696298
1.140000 70.742007 72.075219 73.353893 73.494361 74.927957 76.966059
1.150000 71.582917 72.886844 74.353888 74.377227 75.795366 77.801293
1.160000 72.360553 73.617075 75.088953 75.195214 76.697476 78.749061
1.170000 72.992644 74.300939 75.819552 75.955467 77.666568 79.496537
1.180000 73.508519 74.971509 76.542248 76.697497 78.420668 80.363003
1.190000 74.121907 75.695924 77.287981 77.430990 79.253560 81.206641
1.200000 74.692706 76.321440 78.088717 78.173598 80.105356 82.260013
1.210000 75.370738 76.932369 78.755376 78.893886 80.836178 83.283582
1.220000 75.907930 77.583333 79.464153 79.609173 81.546638 83.938905
1.230000 76.463815 78.145631 80.180676 80.289269 82.216556 84.684358
1.240000 77.055708 78.795308 80.929791 80.990715 83.086241 85.632341
1.250000 77.575607 79.402468 81.645711 81.667877 83.860788 86.322137
1.260000 78.072014 80.097156 82.321119 82.320443 84.500897 87.157334
1.270000 78.510745 80.690591 82.981323 82.977415 85.094954 87.929555
1.280000 79.032251 81.371685 83.580744 83.644354 85.867824 88.592315
1.290000 79.565532 82.003773 84.138043 84.285036 86.623464 89.448703
1.300000 80.247899 82.702174 84.678810 84.920250 87.258847 90.327345
1.310000 80.729718 83.258895 85.310871 85.546643 87.938938 91.063253
1.320000 81.493334 83.868746 85.932025 86.194011 88.567641 91.887164
1.330000 82.013410 84.458801 86.535150 86.825524 89.281426 92.889314
1.340000 82.688224 85.121498 87.179141 87.456051 89.937563 93.610529
1.350000 83.460206 85.739699 87.768126 88.086030 90.506690 94.483117
1.360000 84.120316 86.360408 88.404840 88.719657 91.101114 95.393610
1.370000 84.727772 86.883381 89.060217 89.356514 91.649161 96.071061
1.380000 85.324436 87.527579 89.753724 89.976882 92.178975 96.604668
1.390000 85.800485 88.210105 90.445985 90.610826 92.792150 97.240338
1.400000 86.505415 88.886282 91.171900 91.259828 93.393001 97.809778
1.410000 87.409347 89.520665 91.885582 91.920811 94.002729 98.455329
1.420000 88.102996 90.160152 92.559774 92.568893 94.587818 99.081397
1.430000 88.636247 90.799391 93.159783 93.223108 95.312175 99.869769
1.440000 89.239028 91.479413 93.788202 93.898715 95.994695 100.423721
1.450000 89.723599 92.105574 94.484833 94.598195 96.732103 100.790486
1.460000 90.321177 92.786068 95.246350 95.324033 97.633607 101.184394
1.490000 92.172779 94.709656 97.738589 97.689201 100.652652 103.105697
1.500000 92.663999 95.355842 98.666266 98.452372 101.427064 103.611343
1.510000 93.254300 96.039807 99.421131 99.172145 102.097422 104.152634
1.520000 94.045959 96.900356 100.172676 99.868256 102.740107 104.824006
1.530000 94.615932 97.581288 100.936977 100.550661 103.375133 105.672690
1.540000 95.208804 98.269949 101.524204 101.187268 103.938779 106.295238
1.550000 95.838453 99.059506 102.205136 101.883989 104.527369 106.815601
1.560000 96.751297 99.696142 102.915608 102.533902 105.139888 107.334742
1.570000 97.616604 100.499361 103.475683 103.176539 105.663466 107.770889
1.580000 98.405778 101.267091 104.057044 103.813234 106.240425 108.436152
1.590000 99.015751 102.049650 104.642956 104.408477 106.777043 108.856989
1.600000 99.700114 102.654365 105.197210 104.996014 107.346137 109.254090
1.610000 100.477312 103.346021 105.665083 105.580337 107.799136 109.720871
1.620000 101.196690 104.000619 106.304199 106.164582 108.349549 110.241676
1.630000 101.731211 104.584721 106.848968 106.732149 108.893308 110.706878
1.640000 102.417394 105.215377 107.436509 107.272063 109.338758 111.242076
1.650000 103.014706 105.773077 107.951463 107.799450 109.904099 111.676706
1.660000 103.642016 106.314895 108.499650 108.345124 110.471337 112.280258
1.670000 104.177419 106.809075 109.082561 108.900438 111.062558 112.727719
1.680000 104.703090 107.489435 109.652304 109.463939 111.583065 113.182053
1.690000 105.185847 108.020705 110.185340 110.048645 112.033393 113.746396
1.700000 106.181579 108.620253 110.699189 110.612081 112.555093 114.282867
1.710000 106.558550 109.272346 111.318508 111.180937 113.104686 114.732838
1.720000 107.223274 109.834632 111.871442 111.742161 113.628006 115.366848
1.730000 107.876305 110.514183 112.463129 112.321917 114.165337 115.895595
1.740000 108.368818 111.136161 113.076800 112.898955 114.744027 116.377772
1.750000 108.996060 111.711984 113.675498 113.467070 115.357658 116.834217
1.760000 109.586722 112.290657 114.266471 114.035032 115.854948 117.363998
1.770000 110.109997 112.950845 114.848389 114.622772 116.325472 117.835242
1.780000 110.737121 113.485788 115.349824 115.161543 116.799940 118.289717
1.790000 111.497361 114.027390 115.865687 115.688985 117.272973 118.630315
1.800000 112.319293 114.596929 116.394194 116.206016 117.721018 119.046606
1.810000 112.859593 115.212445 116.897049 116.721410 118.200097 119.399382
1.820000 113.741026 115.695109 117.350316 117.176454 118.566917 119.703786
1.830000 114.478266 116.144864 117.786563 117.623580 118.945234 120.145409
1.840000 115.002701 116.670752 118.228617 118.064730 119.336954 120.495256
1.850000 115.776616 117.207245 118.623901 118.487031 119.702051 120.846881
1.860000 116.347334 117.803907 119.052395 118.942004 120.075586 121.198557
1.870000 116.899171 118.364875 119.482185 119.430280 120.549322 121.581005
1.880000 117.569216 118.814126 119.886950 119.883755 120.963799 122.076404
1.890000 118.160539 119.305096 120.304174 120.316901 121.388279 122.453726
1.900000 118.646485 119.755891 120.704738 120.738747 121.789173 122.909593
1.910000 119.063765 120.198781 121.091094 121.153086 122.249215 123.339798
1.920000 119.457124 120.575850 121.477321 121.557402 122.670648 123.698036
1.930000 119.847592 121.003631 121.926262 121.975831 123.082249 124.110142
1.940000 120.276648 121.391605 122.321150 122.389347 123.532250 124.474438
1.950000 120.737089 121.773438 122.765210 122.802702 123.898662 124.848490
1.960000 121.197373 122.194453 123.239832 123.225244 124.312210 125.266529
1.970000 121.627406 122.637837 123.659428 123.631994 124.663206 125.643285
1.980000 122.116462 123.094575 124.043107 124.054857 125.038597 125.998197
1.990000 122.552909 123.538313 124.489887 124.477098 125.410475 126.361017
2.000000 123.010347 123.996639 124.900967 124.897642 125.790326 126.685581
2.010000 123.540571 124.437312 125.342213 125.331518 126.202585 127.172078
2.020000 124.000738 124.856796 125.795045 125.758836 126.635051 127.549346
2.030000 124.385863 125.303681 126.171079 126.184250 127.061131 128.056801
2.040000 124.905399 125.826008 126.657395 126.664820 127.526027 128.460556
2.050000 125.456330 126.299892 127.104131 127.123571 128.002285 128.973573
2.060000 125.994127 126.782939 127.597309 127.627521 128.486808 129.556906
2.070000 126.602868 127.336837 128.146055 128.202895 129.084227 130.085810
2.080000 127.126305 128.015143 128.798546 128.821003 129.705650 130.630561
2.090000 127.666675 128.569581 129.472961 129.459892 130.338942 131.190939
2.100000 128.267437 129.119455 130.000404 130.017493 130.897410 131.696651
2.110000 128.842741 129.657922 130.546745 130.550571 131.430007 132.356633
2.120000 129.420272 130.262378 131.137563 131.144203 132.048029 133.003990
2.130000 129.902488 130.794732 131.699913 131.754163 132.709868 133.833779
2.140000 130.396184 131.291371 132.202665 132.287760 133.290800 134.520047
2.150000 131.016406 131.834656 132.816870 132.899605 133.949996 135.318728
2.160000 131.531341 132.450441 133.405155 133.559924 134.670425 136.406010
2.170000 132.194367 133.111144 134.226967 134.363462 135.552705 137.504447
2.180000 132.672937 133.734582 134.790808 135.023775 136.375195 138.431328
2.190000 133.259037 134.247249 135.497983 135.729327 137.255885 139.462166
2.200000 133.732980 134.762665 136.062267 136.365519 138.104318 140.339713
2.210000 134.157644 135.342402 136.727980 137.055402 138.860760 141.296320
2.220000 134.648345 135.950106 137.432193 137.733898 139.591167 142.086761
2.230000 135.143866 136.445502 138.045526 138.363582 140.280336 142.976104
2.240000 135.646117 137.026422 138.789511 139.007283 140.886262 143.736885
2.250000 136.313135 137.584444 139.408480 139.610162 141.392515 144.716540
2.260000 136.807617 138.109283 139.968874 140.168211 142.066452 145.308178
2.270000 137.326665 138.591405 140.540366 140.701441 142.691980 146.078812
2.280000 137.768457 139.052470 141.077949 141.254890 143.298078 146.564890
2.290000 138.150707 139.503434 141.571323 141.810248 143.971056 147.182398
2.300000 138.486560 139.982050 142.079289 142.340067 144.670876 147.965402
2.310000 138.995103 140.435887 142.596504 142.867798 145.282931 148.644255
2.320000 139.326493 140.942289 143.055825 143.392011 145.945557 149.313741
2.330000 139.798250 141.416284 143.598280 143.929564 146.632033 149.976607
2.340000 140.214384 141.971984 144.071859 144.472409 147.185950 150.683654
2.350000 140.582988 142.505801 144.519683 145.015168 147.809906 151.338070
2.360000 141.052257 143.009687 145.011203 145.545886 148.540825 151.709586
2.370000 141.519523 143.455203 145.491444 146.078409 149.197144 152.209928
2.380000 141.925047 143.916380 146.123063 146.616284 149.730076 152.750429
2.390000 142.343947 144.383474 146.720852 147.156757 150.295155 153.274243
2.400000 142.814763 144.771162 147.262073 147.692461 150.995566 153.666546
2.410000 143.195446 145.184229 147.884579 148.239710 151.571682 154.303523
2.420000 143.540263 145.742671 148.515067 148.783187 152.150642 154.737512
2.430000 143.940739 146.255257 149.091561 149.339292 152.766589 155.470114
2.440000 144.294332 146.712284 149.677095 149.904895 153.390758 156.090093
2.450000 144.907261 147.233496 150.267101 150.473441 153.908261 156.649444
2.500000 147.275369 149.862640 153.124173 153.374915 157.047725 159.870695
2.550000 149.498801 152.688432 156.801049 156.437409 160.141244 163.092139
2.600000 151.591977 155.510076 160.110019 159.671507 163.212417 166.755181
2.650000 154.928054 159.145765 163.367399 163.054618 166.567978 170.692307
2.700000 159.406050 162.922234 167.154427 167.215875 171.304882 175.982145
2.750000 162.267522 166.018848 170.661554 170.823677 175.727954 179.634377
2.800000 164.279517 168.966554 174.683031 174.228603 179.258338 182.650157
2.850000 166.821612 172.522756 178.236661 177.565578 182.187062 184.907218
2.900000 169.867875 176.587893 181.579830 180.770308 184.828910 187.367297
2.950000 174.260782 180.207990 184.356550 183.796853 187.409961 190.015714
3.000000 179.028454 183.829527 187.483499 187.097731 190.354985 193.353215
3.050000 183.177015 187.904565 191.067235 190.954392 194.102740 197.799361
3.100000 188.909665 192.248129 195.684066 195.794863 199.497158 203.848021
3.150000 192.289991 195.308343 199.529289 199.672979 204.209740 207.751236
3.200000 194.530790 198.508375 203.627687 203.309658 208.123923 210.748254
3.250000 197.327639 201.960184 207.552133 206.780197 211.234004 213.283289
3.300000 200.029069 206.054223 211.202494 210.129983 213.740895 215.300002
3.350000 202.703468 211.199604 214.198264 213.367556 216.050171 217.497392
3.400000 205.987414 214.467185 216.638230 216.095775 218.285504 220.007576
3.450000 209.572725 217.597267 219.340112 218.988554 221.131221 223.007499
3.500000 213.764682 219.764439 221.592980 221.453901 223.654840 226.294433
3.550000 220.136989 222.042583 224.038280 224.096993 226.363643 228.537127
3.600000 222.444049 224.179302 226.577156 226.478450 228.767458 230.607023
3.650000 224.456764 226.691986 229.058109 228.865552 230.942996 232.645242
3.700000 226.929663 229.309192 231.515306 231.302904 233.180101 234.759527
3.750000 229.751835 232.074052 233.810357 233.696445 235.278809 237.093571
3.800000 233.096307 234.714795 235.961489 236.075125 237.538910 239.198366
3.810000 233.719642 235.251349 236.484716 236.592764 238.066364 239.720389
3.820000 234.187305 235.741664 236.985855 237.094186 238.574291 240.197603
3.830000 234.669828 236.267301 237.499155 237.575983 238.998538 240.606811
3.840000 235.253572 236.727846 237.967565 238.063240 239.532694 241.003543
3.850000 235.722847 237.187723 238.486398 238.537904 240.027066 241.530536
3.860000 236.068438 237.594131 238.926430 238.979118 240.501224 241.943087
3.870000 236.681328 238.027281 239.365961 239.444384 240.941025 242.389796
3.880000 237.191029 238.527916 239.884441 239.917466 241.425326 242.899676
