depth(m) lower_95(kyr) lower_68(kyr) median(kyr) mean(kyr) upper_68(kyr) upper_95(kyr)
0.060000 0.017406 0.096069 0.366435 0.451833 0.813809 1.383493
0.160000 0.278857 0.444288 0.733283 0.816610 1.202128 1.816145
0.260000 0.544705 0.768073 1.091887 1.174502 1.610871 2.261143
0.360000 0.816143 1.094414 1.434520 1.525983 1.999149 2.564156
0.460000 1.137272 1.436808 1.810001 1.891857 2.401416 3.015305
0.560000 1.460248 1.756986 2.170228 2.253438 2.779457 3.450972
0.660000 1.782998 2.084371 2.553748 2.624845 3.173512 3.849908
0.760000 2.115320 2.437878 2.945741 3.002908 3.562246 4.223823
0.860000 2.423320 2.790336 3.357017 3.394939 3.997009 4.676550
0.960000 2.702801 3.148362 3.759014 3.780951 4.397807 5.093825
1.060000 3.037444 3.541606 4.161129 4.179477 4.818627 5.522101
1.160000 3.403463 3.913651 4.562745 4.579563 5.235432 5.902956
1.260000 3.809247 4.369618 5.009507 5.015782 5.708404 6.347622
1.360000 4.202701 4.821645 5.471672 5.483903 6.156147 6.770595
1.460000 4.605473 5.265759 5.960747 5.969286 6.647919 7.365744
1.530000 4.929673 5.617184 6.319974 6.344170 7.063670 7.827427
1.630000 5.409024 6.131896 6.864129 6.887535 7.668685 8.466015
1.730000 5.882565 6.634261 7.372282 7.426470 8.224999 9.024724
1.830000 6.391783 7.202824 7.989087 8.004637 8.819443 9.633854
1.930000 7.117263 7.816047 8.677734 8.664994 9.523236 10.297618
2.030000 7.710788 8.537651 9.401282 9.377904 10.286260 10.993284
2.130000 8.425462 9.275203 10.129496 10.131134 10.995290 11.702359
2.230000 9.262090 10.168996 10.961569 10.938526 11.735691 12.478425
2.330000 10.262360 10.993571 11.777557 11.768733 12.512948 13.190582
2.430000 11.160889 11.887159 12.617193 12.580986 13.292979 13.810001
2.530000 11.836158 12.592264 13.273410 13.231724 13.890642 14.359256
2.630000 12.488346 13.222259 13.856943 13.809327 14.407571 14.842410
2.730000 13.082712 13.795467 14.383348 14.341280 14.884290 15.312847
2.830000 13.745615 14.331889 14.882352 14.851663 15.348314 15.809246
2.930000 14.352330 14.935155 15.401853 15.406578 15.890257 16.358992
3.020000 15.003923 15.452545 15.901232 15.925488 16.391843 17.011421
3.120000 15.547516 15.970215 16.440014 16.497742 17.030808 17.904707
3.220000 16.022738 16.419694 16.901436 17.002240 17.579628 18.571149
3.320000 16.370035 16.823331 17.344340 17.472801 18.140465 19.080153
3.420000 16.795158 17.239651 17.831323 17.948361 18.647996 19.773047
3.520000 17.186779 17.674435 18.283597 18.406162 19.156074 20.265074
3.620000 17.533728 18.052354 18.759823 18.861275 19.643332 20.858704
3.720000 17.951806 18.466918 19.198405 19.315275 20.176724 21.310212
3.820000 18.350940 18.886205 19.663712 19.779256 20.697189 21.781317
3.920000 18.732867 19.335522 20.114080 20.249690 21.227295 22.243071
4.020000 19.148011 19.768837 20.586737 20.712607 21.724483 22.869458
4.120000 19.559794 20.199268 21.083949 21.198138 22.231327 23.314135
4.220000 20.015539 20.679856 21.562965 21.683484 22.757521 23.770445
4.320000 20.444378 21.135644 22.069152 22.186369 23.249836 24.471221
4.420000 20.900566 21.620238 22.584385 22.695335 23.787642 25.265035
4.510000 21.299154 22.058970 23.026411 23.142856 24.236563 25.701505
4.610000 21.756475 22.532722 23.556186 23.662541 24.754750 26.315974
4.710000 22.240363 23.043205 24.165769 24.236706 25.355580 26.920892
4.810000 22.727293 23.554997 24.734114 24.800791 25.975762 27.696556
4.910000 23.187524 24.033326 25.275419 25.385825 26.619032 28.495828
5.010000 23.776969 24.602884 25.888310 26.011499 27.342055 29.390046
5.110000 24.246528 25.160779 26.494116 26.673945 28.114058 30.327571
5.210000 24.757538 25.802797 27.197420 27.407876 29.121368 31.392527
5.310000 25.263706 26.346974 27.827922 28.120843 29.973815 32.739377
5.410000 25.775845 26.927061 28.595961 28.887455 30.958486 33.599939
5.510000 26.345529 27.516227 29.278656 29.653562 31.855418 34.515816
5.610000 26.815381 28.252990 30.084314 30.502985 32.861332 35.606306
5.710000 27.374365 29.039038 31.016870 31.426084 34.031463 36.605203
5.810000 27.907920 29.903594 32.089142 32.447328 35.180716 37.968804
5.910000 28.616581 30.748203 33.224142 33.462236 36.413043 38.980488
6.010000 29.514837 31.582906 34.424617 34.495484 37.347739 39.865592
6.110000 30.098245 32.479904 35.563480 35.512087 38.446870 40.731420
6.210000 31.011391 33.706787 36.640477 36.515826 39.267914 41.769567
6.310000 32.222404 34.797732 37.700114 37.530893 40.108657 42.525749
6.410000 33.139720 35.921242 38.733301 38.555884 40.992136 43.547629
6.510000 34.255604 37.124532 39.773947 39.555333 41.844048 44.156784
6.610000 35.433297 38.200942 40.604303 40.491487 42.664772 44.950420
6.710000 36.496910 39.288173 41.561606 41.462307 43.603051 45.834609
6.810000 37.472386 40.439174 42.554054 42.408764 44.521583 46.720888
6.910000 38.518844 41.316625 43.388704 43.314090 45.387015 47.473261
7.010000 39.734177 42.133340 44.217304 44.200471 46.246679 48.473354
7.110000 40.777320 43.017313 44.995557 45.075608 47.169255 49.447945
7.210000 41.794390 43.902383 45.839879 45.943829 48.011044 50.503166
7.310000 42.635519 44.790890 46.769488 46.847696 48.981589 51.506766
7.410000 43.355517 45.592162 47.653073 47.759057 49.978300 52.503865
7.510000 44.094838 46.303854 48.587207 48.724964 51.151389 54.113785
7.610000 44.896670 47.032260 49.618297 49.740439 52.338128 55.569350
7.710000 45.715973 47.960195 50.610338 50.778885 53.594500 57.017108
7.810000 46.361635 48.838268 51.784767 51.863421 54.820867 58.106834
7.910000 47.135414 49.911293 52.930403 53.067480 56.312070 59.154468
8.010000 48.227993 51.047469 54.409308 54.364173 57.643017 60.485017
8.110000 49.207153 52.293693 55.904010 55.707747 59.152664 61.622453
8.210000 50.357031 53.371786 57.336704 57.059969 60.624358 62.741129
8.310000 51.696045 54.730788 58.874679 58.431057 61.708702 63.655485
8.410000 52.710432 56.207201 60.418575 59.824188 62.929163 64.599385
8.510000 54.045531 57.959633 61.884627 61.220525 64.024155 65.789403
8.610000 55.758608 59.926046 63.287568 62.629445 65.146375 66.715076
8.710000 56.969394 61.765656 64.595628 64.058151 66.252704 67.784738
8.810000 58.525049 63.370790 65.770350 65.333575 67.318229 68.986661
8.910000 60.351048 64.715475 66.800831 66.501073 68.484925 70.226283
9.010000 62.350557 65.814339 67.844839 67.604195 69.566710 71.306522
9.110000 63.853753 66.818380 68.824580 68.687565 70.684326 72.603290
9.210000 64.981401 67.799435 69.819540 69.804987 71.874866 74.125529
9.310000 65.998114 68.856349 70.897855 70.948793 72.958970 75.832626
9.410000 67.236387 69.897728 72.069102 72.167731 74.521825 77.519769
9.510000 68.538328 70.957766 73.269503 73.484794 76.117541 79.096480
9.610000 69.801250 72.145331 74.804877 75.017148 77.937420 80.995490
9.710000 70.978572 73.284442 76.388973 76.494005 79.635273 82.467344
9.810000 72.439936 74.707707 78.049670 78.126181 81.393411 84.675614
9.910000 73.738402 76.285159 79.731892 79.756788 83.083494 86.496968
10.010000 75.014083 78.019172 81.340266 81.421169 84.844418 87.835645
10.110000 76.432918 79.474336 83.180046 83.152944 86.735830 89.791581
10.210000 78.080442 81.205976 85.039188 84.826894 88.497264 91.013568
10.310000 79.453693 82.822421 86.632880 86.429982 90.000404 92.308011
10.410000 80.989061 84.694583 88.249428 88.016026 91.408224 93.688460
10.510000 82.581131 86.222281 89.714134 89.524779 92.749122 94.770893
10.610000 84.046152 87.872495 91.386587 90.953780 93.873123 95.846362
10.710000 85.222148 89.676909 92.770336 92.397428 94.955029 97.384982
10.810000 86.939395 91.322346 94.188783 93.805862 96.174234 98.650930
10.910000 88.241282 92.946777 95.559239 95.218349 97.543869 100.039507
11.010000 89.789466 94.667840 96.834410 96.604678 98.789216 101.082870
11.110000 91.397775 95.860765 98.142632 97.952797 100.106083 102.404526
11.210000 93.040207 97.329933 99.491272 99.330882 101.652179 103.590868
11.310000 94.314276 98.639492 100.813876 100.660515 103.148070 104.851574
11.410000 96.293768 99.752039 102.006864 101.957374 104.409482 106.154990
11.510000 98.002767 100.955164 103.218348 103.157514 105.484667 107.449035
11.610000 99.486068 102.079518 104.418718 104.328760 106.579074 108.580874
11.710000 100.741309 103.306209 105.571846 105.466468 107.668338 109.471114
11.810000 102.118606 104.355665 106.640871 106.551775 108.795297 110.500188
11.910000 103.389847 105.503576 107.808229 107.668261 109.913514 111.549519
12.000000 104.463794 106.483375 108.863289 108.665193 110.838328 112.340556
12.100000 105.522912 107.641580 109.961579 109.743567 111.865961 113.318084
12.200000 106.725144 108.735716 110.995438 110.824072 112.924303 114.146895
12.300000 107.821057 109.875816 112.143274 111.902419 113.896999 115.036302
12.400000 108.978370 111.007757 113.247032 112.956320 114.808580 115.887947
12.500000 110.093123 112.210310 114.278139 113.992177 115.701848 116.688839
12.600000 111.265663 113.438581 115.224799 114.967345 116.492342 117.421868
12.700000 112.555830 114.490936 116.227894 115.959194 117.295761 118.156953
12.800000 113.809918 115.760159 117.202362 116.957315 118.136533 118.955040
12.900000 115.131478 116.951676 118.171498 117.965215 118.981147 119.829083
13.000000 116.732421 118.053225 119.077739 118.968098 119.884810 120.687493
13.100000 118.133597 119.196153 120.036167 119.993259 120.818537 121.668213
13.200000 119.247674 120.169291 120.960299 120.931293 121.698295 122.557572
13.300000 120.242322 121.061235 121.816398 121.805289 122.555702 123.403736
13.400000 121.096798 121.881628 122.594852 122.630920 123.378398 124.312354
13.500000 121.917636 122.669730 123.463585 123.458383 124.203933 125.169913
13.600000 122.724706 123.557624 124.297623 124.334352 125.132385 126.080503
13.700000 123.718940 124.525722 125.368880 125.386774 126.206184 127.414951
13.800000 124.812486 125.718706 126.675337 126.761287 127.788834 129.355597
13.900000 126.443505 127.463231 128.784536 128.818878 130.132975 131.419448
14.000000 128.417137 129.718756 131.096712 131.063528 132.437275 133.790105
14.100000 130.815940 132.143899 133.369671 133.484326 134.874753 136.667606
14.200000 132.666689 133.781415 135.094791 135.255743 136.688166 138.939289
14.300000 133.986448 135.287296 136.794028 136.911005 138.487706 140.776558
14.400000 135.057587 136.491283 138.125405 138.314557 140.104628 142.688210
14.500000 136.146446 137.622611 139.425340 139.560010 141.455584 143.923103
14.600000 137.025608 138.565477 140.573354 140.694244 142.726696 145.100675
14.700000 138.091982 139.613955 141.692302 141.839193 144.048909 146.494273
14.800000 139.126082 140.697456 142.866740 142.960956 145.234206 147.571958
14.900000 140.158130 141.800699 143.967790 144.105921 146.407674 148.765598
15.000000 141.025657 142.833920 145.161629 145.221838 147.564881 150.042632
15.100000 142.066399 143.902214 146.258113 146.355119 148.756555 151.258494
15.200000 142.954783 145.032778 147.358938 147.465560 149.868208 152.518378
15.300000 144.068399 146.180979 148.530996 148.618823 150.956055 153.713119
15.400000 145.015849 147.475611 149.751490 149.814594 152.130760 154.979036
15.500000 146.123447 148.781343 150.896499 151.000343 153.248895 156.556316
15.600000 147.167026 149.934226 152.141420 152.212065 154.513527 157.594870
15.700000 148.234731 151.154706 153.353050 153.500371 155.977190 158.919062
15.800000 149.906261 152.492031 154.670017 154.811802 157.383354 160.178383
15.900000 151.296009 153.945928 156.140928 156.185741 158.552887 161.618198
16.000000 152.376756 155.445235 157.651374 157.615610 159.887313 162.611228
16.100000 153.967396 157.159869 159.323604 159.210834 161.402157 164.078015
16.200000 155.612832 158.699668 160.658871 160.679774 162.793487 165.418935
16.300000 157.398142 160.161701 161.984990 162.012305 164.172116 166.513979
16.400000 158.689589 161.273368 163.302540 163.326061 165.437150 167.980775
16.490000 159.822098 162.450237 164.488666 164.583678 166.805056 169.701894
16.590000 161.169022 163.777385 165.958769 166.183226 168.564942 172.154140
16.690000 162.398786 164.969348 167.616099 167.822601 170.575297 174.549969
16.790000 163.411156 166.215691 169.115926 169.425176 172.787011 176.152665
16.890000 164.623911 167.561860 170.798458 171.040641 174.794098 177.853183
16.990000 165.734622 168.770154 172.514286 172.571431 176.481107 179.051758
17.090000 166.765846 169.981497 174.305121 174.122050 178.179172 180.710922
17.190000 168.084757 171.462733 175.879812 175.605066 179.609631 181.947039
17.290000 169.400018 173.021815 177.496860 177.080837 180.958200 183.169273
17.390000 170.722561 174.536709 178.887988 178.494195 182.159707 184.284533
17.490000 172.358583 176.595066 180.324073 179.956579 183.513180 185.476797
17.590000 173.950302 178.286381 181.720399 181.404373 184.573423 186.828415
17.690000 175.967534 179.820564 183.238791 182.822836 185.706075 187.841878
17.790000 177.930685 181.475683 184.623668 184.285540 186.918087 189.053496
17.890000 180.086400 183.105485 185.906876 185.659231 188.222679 190.222432
17.990000 181.697232 184.634457 187.305435 187.140685 189.508274 191.475446
18.090000 183.341653 186.352576 188.939777 188.755913 191.093451 193.273351
18.190000 185.137975 188.120363 190.858741 190.683917 193.150891 195.748141
18.290000 186.655489 189.947401 192.597588 192.527547 195.153190 197.935973
18.390000 189.041083 191.634341 194.097848 194.201287 196.870587 199.919080
18.490000 190.705712 193.113162 195.678030 195.845129 198.523687 202.005906
18.590000 192.405768 194.486392 197.126976 197.334790 200.110470 203.793657
18.690000 193.666241 195.915273 198.569299 198.803162 201.701403 205.237288
18.790000 194.802662 197.213433 199.913714 200.218930 203.367101 206.638369
18.890000 196.128218 198.655781 201.253103 201.612538 204.872582 208.034063
18.990000 197.473951 199.888678 202.756603 203.045020 206.237594 209.337357
19.090000 198.732495 201.151557 204.245741 204.497446 207.873516 210.576725
19.190000 199.824395 202.704237 205.932305 205.982985 209.261133 211.662249
19.290000 200.890592 204.218963 207.765109 207.444011 210.539134 212.848526
19.380000 201.732518 205.585739 209.260589 208.797653 211.862105 213.807431
19.470000 203.240240 206.910820 210.655227 210.094697 212.953763 214.740088
19.570000 205.313542 208.862650 211.963948 211.547693 213.977556 215.672747
19.670000 207.169388 210.786177 213.297891 212.922324 215.002660 216.662956
19.770000 209.458203 212.288663 214.535847 214.200399 216.019712 217.611095
19.870000 211.450354 213.914895 215.679197 215.467167 217.091609 218.612581
19.970000 212.789536 215.163627 216.751536 216.658380 218.195454 219.830907
20.070000 214.414321 216.418138 217.962916 217.943801 219.441954 221.217197
20.170000 216.344439 217.891201 219.288979 219.421972 220.952711 223.287342
20.270000 217.949110 219.268000 220.679091 220.892649 222.533845 225.029023
20.370000 219.011223 220.459589 221.925254 222.222000 224.144113 226.444273
20.470000 220.298931 221.538859 223.245830 223.534682 225.696491 228.015559
20.570000 221.246068 222.637169 224.582129 224.850990 227.107638 229.579196
20.670000 222.168815 223.682640 225.903769 226.089112 228.495950 230.768149
20.770000 223.046250 224.812178 227.246914 227.361955 230.015097 231.881899
20.870000 224.033526 226.046211 228.519703 228.589492 231.310544 232.999792
20.970000 225.180315 227.254535 229.906978 229.843989 232.401648 234.222297
21.070000 226.600353 228.786413 231.296222 231.194490 233.585167 235.236420
21.170000 227.971299 230.273486 232.697428 232.552734 234.787664 236.344357
21.270000 229.310264 231.980442 234.083722 233.982720 235.915559 237.662892
21.370000 230.997490 233.640315 235.531398 235.423763 237.158829 239.073281
21.470000 232.546266 234.892145 236.741599 236.683621 238.372644 240.539089
21.570000 234.050815 236.115391 237.922462 237.903929 239.582992 241.856780
21.670000 235.370413 237.271498 239.076032 239.139622 240.969185 243.556513
21.770000 236.734180 238.297800 240.200500 240.366021 242.482479 245.207140
21.870000 237.826001 239.489477 241.369643 241.722707 244.121572 246.999085
21.970000 238.996994 240.733216 242.763266 243.174726 245.952007 248.830838
22.070000 240.597428 242.260242 244.519195 244.903146 247.908079 250.529338
22.170000 241.962188 243.748388 246.356845 246.651218 249.658613 252.134737
22.270000 243.175623 245.170875 248.285154 248.208962 251.071699 253.482744
22.370000 244.588092 246.502467 250.034584 249.782308 252.597151 254.743779
22.480000 245.805314 248.384950 251.517155 251.240029 253.910297 255.897808
22.580000 246.810772 249.679796 252.539846 252.356147 254.785205 257.139029
22.680000 248.179575 251.091825 253.584421 253.434358 255.779249 258.047954
22.780000 249.195605 252.048603 254.553584 254.444541 256.766392 259.181315
22.880000 250.349619 253.005460 255.441644 255.416967 257.606170 260.290253
22.980000 251.637239 253.893994 256.366495 256.350893 258.569171 261.224324
23.080000 252.753229 254.900581 257.326281 257.322331 259.599786 262.406360
23.180000 253.593424 255.830397 258.255965 258.262772 260.569090 263.228092
23.280000 254.535209 256.775447 259.178177 259.224766 261.623311 264.274405
23.380000 255.461109 257.819819 260.151807 260.217116 262.796315 265.248974
23.480000 256.375412 258.708443 261.103881 261.192536 263.835839 265.961873
23.580000 257.311010 259.584523 262.147461 262.154793 264.835629 266.949868
23.680000 258.151559 260.481548 263.051712 263.095940 265.837750 267.705524
23.780000 258.932645 261.379074 264.165660 264.048392 266.775405 268.521641
23.880000 259.762670 262.371763 265.134107 264.989733 267.663690 269.325382
23.980000 260.494597 263.430754 266.141472 265.955105 268.559337 270.104113
24.080000 261.476055 264.373474 267.084181 266.860326 269.319316 270.731582
24.180000 262.357462 265.418769 268.070543 267.799622 270.151794 271.519369
24.280000 263.202261 266.399261 268.974198 268.694564 270.925932 272.373872
24.380000 264.411017 267.487900 269.852090 269.605149 271.739802 272.989001
24.480000 265.716091 268.372271 270.689092 270.451717 272.527859 273.732345
24.580000 266.720153 269.310196 271.580517 271.310408 273.260260 274.466108
24.680000 267.713948 270.280184 272.483155 272.176843 274.031967 275.107788
24.780000 268.704255 271.233362 273.273729 273.037231 274.786811 275.880108
24.880000 269.533985 272.208311 274.082287 273.896225 275.605702 276.783488
24.980000 270.322811 273.069280 274.932059 274.730769 276.386051 277.584794
25.080000 271.352156 274.019793 275.762683 275.594757 277.219631 278.508431
25.180000 272.478716 274.998693 276.617620 276.466404 277.994092 279.466655
25.320000 274.023185 276.236652 277.699413 277.678028 279.068820 281.100051
25.460000 275.598551 277.453201 278.877929 278.911998 280.184552 282.704520
25.560000 276.752728 278.282866 279.723720 279.879178 281.137960 285.072355
25.660000 277.919112 279.192842 280.612706 280.869057 282.238029 286.865117
25.765000 278.772892 280.132190 281.595084 281.971228 283.672023 287.921637
25.870000 279.720242 280.994540 282.590918 283.132633 285.188354 289.255902
25.965000 280.440988 281.861384 283.630886 284.182121 286.513057 290.386222
26.060000 281.192432 282.757753 284.716363 285.274042 287.873857 291.694049
26.160000 282.116253 283.690032 285.897960 286.401330 289.162809 293.418605
26.260000 283.111458 284.791006 287.044932 287.565843 290.401598 295.067831
26.360000 284.125390 285.920489 288.238213 288.813899 291.777044 296.570458
26.460000 285.331717 287.141116 289.454988 290.096548 293.116293 298.015643
26.560000 286.484049 288.295709 290.722069 291.385434 294.526119 299.841519
26.660000 287.623662 289.537844 292.075700 292.653795 296.044569 301.720183
26.765000 288.819762 290.588537 293.356386 293.970196 297.546978 303.003451
26.870000 289.693596 291.644194 294.691397 295.291039 299.073154 304.500382
26.970000 290.651370 292.738848 295.977303 296.555787 300.595237 305.596920
27.065000 291.618505 293.962711 297.235311 297.836710 301.908339 306.725252
27.160000 292.340531 295.115831 298.623864 299.070931 303.172531 307.776716
27.265000 293.266432 296.302002 300.246161 300.527237 305.061399 309.127786
