depth(m) lower_95(kyr) lower_68(kyr) median(kyr) mean(kyr) upper_68(kyr) upper_95(kyr)
0.000000 0.010990 0.070541 0.330063 0.483555 0.985559 1.509471
0.020000 0.104068 0.193147 0.471477 0.619643 1.134327 1.626276
0.050000 0.240503 0.354853 0.671051 0.812243 1.362730 1.818831
0.070000 0.339486 0.459801 0.806215 0.943043 1.506894 2.014544
0.100000 0.472489 0.626218 1.000887 1.132954 1.702268 2.218036
0.120000 0.574298 0.737768 1.154091 1.268166 1.840281 2.404317
0.150000 0.720216 0.894296 1.355469 1.454118 2.042375 2.585300
0.170000 0.812927 1.001650 1.503099 1.584030 2.171892 2.685267
0.200000 0.947902 1.168760 1.696745 1.769165 2.351151 2.880053
0.220000 1.057855 1.287961 1.830742 1.897618 2.494417 2.979261
0.250000 1.225087 1.450247 2.075615 2.087731 2.707837 3.186710
0.270000 1.326325 1.562946 2.208574 2.215228 2.842272 3.288720
0.300000 1.479887 1.729833 2.410609 2.397844 3.036069 3.472372
0.320000 1.590334 1.843715 2.542286 2.523320 3.156730 3.634687
0.350000 1.755770 2.025527 2.722030 2.706367 3.346272 3.828256
0.370000 1.876741 2.144796 2.858628 2.834657 3.484846 3.963310
0.400000 2.000538 2.307547 3.027965 3.017856 3.687984 4.212311
0.420000 2.111710 2.429478 3.150781 3.144327 3.816721 4.423767
0.450000 2.274007 2.601003 3.341554 3.321472 3.988866 4.614142
0.470000 2.369449 2.706443 3.466612 3.443709 4.116289 4.721496
0.500000 2.503367 2.877442 3.642271 3.621274 4.288366 4.932086
0.520000 2.624746 3.001624 3.768993 3.744597 4.408332 5.065162
0.550000 2.814378 3.181511 3.940193 3.924867 4.588574 5.301509
0.570000 2.921792 3.307553 4.074034 4.049353 4.706349 5.432293
0.600000 3.075273 3.484442 4.243437 4.226724 4.902976 5.625508
0.620000 3.202367 3.593107 4.388502 4.349598 5.022223 5.745338
0.650000 3.371782 3.780771 4.582042 4.529061 5.224558 5.920388
0.670000 3.499359 3.893249 4.705058 4.652453 5.343479 6.028150
0.700000 3.655852 4.066038 4.878470 4.832205 5.540091 6.229432
0.720000 3.765226 4.167805 5.005232 4.955354 5.678197 6.395858
0.750000 3.958776 4.367684 5.192316 5.141526 5.859383 6.565197
0.770000 4.052139 4.476874 5.323246 5.268928 5.998563 6.702143
0.800000 4.234987 4.651054 5.497049 5.457382 6.200103 6.935008
0.820000 4.359204 4.775304 5.621276 5.586312 6.308412 7.068640
0.850000 4.557513 4.952796 5.797951 5.775862 6.503658 7.326678
0.870000 4.653093 5.075049 5.904888 5.907798 6.641513 7.505604
0.900000 4.836399 5.265764 6.089021 6.094811 6.818078 7.687772
0.920000 4.943014 5.408013 6.210384 6.226050 6.937666 7.885351
0.950000 5.097710 5.609389 6.385041 6.426786 7.141069 8.127522
0.970000 5.225327 5.760025 6.539728 6.581003 7.288232 8.304887
1.000000 5.431147 6.023344 6.770776 6.819346 7.528875 8.555367
1.010000 5.514427 6.087312 6.838428 6.896478 7.611050 8.652011
1.020000 5.582927 6.188291 6.933816 6.979774 7.697218 8.780831
1.050000 5.815926 6.429728 7.189634 7.231009 7.973105 9.127250
1.060000 5.886990 6.531642 7.282995 7.318157 8.085329 9.184062
1.100000 6.181363 6.907394 7.676906 7.713162 8.502328 9.530394
1.110000 6.276298 7.008980 7.785209 7.810547 8.579943 9.604900
1.150000 6.643531 7.433976 8.262455 8.267224 9.118545 9.995399
1.160000 6.746346 7.524687 8.336842 8.368603 9.232475 10.134983
1.200000 7.333855 8.013205 8.832416 8.840437 9.682847 10.499987
1.210000 7.418665 8.119119 8.928748 8.946757 9.789417 10.570226
1.250000 7.899649 8.584599 9.412285 9.413942 10.263492 10.912778
1.260000 8.000294 8.672098 9.521114 9.521066 10.383155 11.009873
1.270000 8.111789 8.795606 9.638734 9.633853 10.485007 11.081592
1.300000 8.477554 9.315404 10.113755 10.113863 10.920616 11.460793
1.310000 8.609371 9.463126 10.255423 10.236041 11.059081 11.617388
1.320000 8.857830 9.619488 10.404489 10.364196 11.178385 11.697952
1.350000 9.423333 10.237221 11.072927 11.002525 11.728057 12.294574
1.360000 9.515736 10.369143 11.193311 11.134941 11.867642 12.419182
1.370000 9.645630 10.500177 11.337004 11.258537 11.980529 12.567263
1.400000 10.259345 11.032324 11.805886 11.742904 12.443937 13.025406
1.410000 10.361028 11.151726 11.925676 11.859532 12.565897 13.110425
1.420000 10.464517 11.263868 12.028641 11.966945 12.662147 13.193153
1.450000 10.893427 11.657190 12.374032 12.335135 13.014298 13.468889
1.460000 11.003763 11.750523 12.459527 12.437095 13.112493 13.557363
1.470000 11.094313 11.853363 12.552896 12.537158 13.215195 13.638901
1.500000 11.481498 12.218654 12.946684 12.874076 13.510817 13.884220
1.510000 11.584763 12.307257 13.041824 12.966438 13.585445 13.971492
1.520000 11.664296 12.413718 13.141520 13.058984 13.692223 14.040772
1.550000 12.035143 12.733662 13.453812 13.343758 13.931662 14.288781
1.560000 12.141413 12.833280 13.553869 13.436540 14.012324 14.367803
1.570000 12.237126 12.929300 13.644244 13.529709 14.090527 14.465947
1.600000 12.542094 13.248625 13.916371 13.815493 14.307385 14.656173
1.610000 12.711312 13.348012 14.015036 13.914231 14.392978 14.755572
1.650000 13.163411 13.849212 14.379634 14.299143 14.717668 15.095770
1.660000 13.225051 13.958453 14.482936 14.397797 14.811745 15.172254
1.670000 13.326052 14.075012 14.570912 14.495082 14.892832 15.246765
1.700000 13.772909 14.468097 14.822095 14.796004 15.194868 15.463863
1.710000 13.846980 14.556488 14.910294 14.889180 15.302148 15.550237
1.720000 13.968202 14.652681 14.986469 14.980039 15.387808 15.615815
1.750000 14.428537 14.929004 15.221256 15.242200 15.625467 15.838314
1.760000 14.501462 14.997821 15.303283 15.321478 15.701041 15.902932
1.770000 14.571963 15.080668 15.383191 15.400778 15.769411 15.977620
1.800000 14.907448 15.290074 15.634025 15.624957 15.969509 16.185972
1.810000 15.051767 15.363089 15.723967 15.703792 16.032843 16.250444
1.820000 15.113490 15.438381 15.813748 15.780274 16.096609 16.302708
1.850000 15.381007 15.637730 16.030221 15.988133 16.279776 16.572788
1.860000 15.439182 15.703349 16.123200 16.062330 16.348006 16.622791
1.870000 15.510025 15.771975 16.200681 16.135595 16.416445 16.724362
1.900000 15.723703 15.956535 16.397797 16.337564 16.589747 17.012395
1.910000 15.799624 16.023675 16.470011 16.408637 16.661149 17.078863
1.920000 15.870059 16.088699 16.526599 16.479728 16.726558 17.158824
1.950000 16.069534 16.306675 16.715556 16.678371 16.889746 17.612003
1.960000 16.133593 16.388449 16.782901 16.749620 16.957003 17.713864
1.970000 16.192014 16.466139 16.849680 16.820654 17.023822 17.807822
2.000000 16.352625 16.684614 17.020205 17.009264 17.201879 18.153180
2.010000 16.423211 16.750167 17.083585 17.078257 17.269400 18.278795
2.020000 16.484800 16.839454 17.143855 17.146008 17.329982 18.353758
2.050000 16.628559 17.037621 17.313243 17.336055 17.531634 18.631329
2.060000 16.699885 17.102025 17.378747 17.404953 17.592855 18.691401
2.070000 16.761904 17.176436 17.441528 17.473077 17.662227 18.782884
2.100000 16.913864 17.363647 17.612239 17.661549 17.888315 19.015843
2.110000 16.976282 17.449285 17.675547 17.730421 17.970930 19.097439
2.120000 17.030745 17.511177 17.740201 17.799649 18.040438 19.201840
2.150000 17.187691 17.666297 17.915764 17.996309 18.261433 19.366462
2.160000 17.247220 17.731885 17.984558 18.067240 18.325411 19.472388
2.170000 17.311101 17.805299 18.061406 18.140324 18.393450 19.562023
2.200000 17.486489 17.982015 18.257925 18.343020 18.597565 19.774619
2.210000 17.544713 18.036601 18.324346 18.414610 18.682165 19.897441
2.220000 17.602110 18.103217 18.408809 18.486684 18.756919 19.982198
2.250000 17.775030 18.271826 18.626833 18.690092 18.980939 20.225901
2.260000 17.834288 18.332843 18.702461 18.760728 19.076922 20.338963
2.270000 17.886894 18.398215 18.775740 18.835837 19.219211 20.399537
2.300000 18.042774 18.560910 18.978183 19.047017 19.539778 20.621107
2.310000 18.132585 18.623652 19.046533 19.122167 19.636926 20.685133
2.320000 18.183566 18.685486 19.112361 19.196624 19.735782 20.747595
2.350000 18.345544 18.849148 19.296613 19.415670 20.022065 20.972301
2.360000 18.416690 18.916739 19.368788 19.493793 20.147472 21.031620
2.370000 18.469544 18.982991 19.438356 19.573071 20.243951 21.118697
2.400000 18.646971 19.174108 19.625272 19.812926 20.567298 21.317469
2.410000 18.708949 19.242443 19.691856 19.893039 20.660336 21.404877
2.420000 18.776871 19.321038 19.760959 19.973011 20.728073 21.551343
2.450000 18.993281 19.532466 19.964769 20.196341 20.997548 21.730717
2.460000 19.056747 19.604631 20.047101 20.274315 21.077108 21.847286
2.470000 19.150011 19.680011 20.131844 20.353271 21.165707 21.995998
2.500000 19.362619 19.880229 20.368135 20.575763 21.411269 22.254522
2.510000 19.438306 19.957964 20.458578 20.654868 21.482599 22.350861
2.520000 19.492606 20.033548 20.535873 20.734227 21.547932 22.456619
2.550000 19.732096 20.229968 20.819514 20.978292 21.876862 22.803476
2.560000 19.807948 20.310909 20.903707 21.063561 21.978924 22.876937
2.570000 19.872471 20.383778 20.997324 21.148595 22.062758 22.937515
2.600000 20.074471 20.621688 21.282514 21.392217 22.314775 23.191510
2.610000 20.118169 20.704121 21.358892 21.476653 22.397736 23.292076
2.620000 20.195363 20.795532 21.433061 21.561994 22.490579 23.382773
2.650000 20.428965 21.015309 21.703550 21.817051 22.702641 23.653012
2.660000 20.510082 21.107840 21.794232 21.904748 22.773765 23.748464
2.670000 20.607609 21.189903 21.880010 21.993031 22.866577 23.846493
2.700000 20.852790 21.441600 22.178794 22.262750 23.091157 24.243319
2.710000 20.923369 21.526784 22.277893 22.352828 23.168241 24.366443
2.720000 21.019238 21.619453 22.361427 22.443241 23.240995 24.544150
2.750000 21.273037 21.889344 22.612269 22.723939 23.511308 24.798025
2.760000 21.369969 21.968578 22.720435 22.818497 23.599692 24.903270
2.770000 21.450813 22.073940 22.810402 22.910552 23.693602 24.990347
2.800000 21.745656 22.368674 23.068270 23.205732 24.007635 25.279641
2.810000 21.849436 22.455463 23.154206 23.301134 24.110928 25.335849
2.820000 21.931334 22.551993 23.247484 23.395483 24.223250 25.420008
2.850000 22.152994 22.858067 23.537019 23.701394 24.670250 25.762970
2.860000 22.213724 22.957929 23.630524 23.805082 24.785238 25.897282
2.870000 22.291555 23.058141 23.711779 23.898075 24.880958 26.062716
2.900000 22.559729 23.312365 24.040479 24.193489 25.157842 26.451121
2.920000 22.715036 23.523574 24.236044 24.393961 25.434675 26.734117
2.950000 22.978224 23.805756 24.562807 24.705278 25.803814 26.930750
2.970000 23.147644 23.992897 24.752753 24.910868 26.035446 27.140768
3.000000 23.419146 24.243192 25.049165 25.239655 26.397019 27.555287
3.020000 23.576769 24.424522 25.251131 25.442876 26.583021 27.820413
3.070000 23.986846 24.831551 25.820645 26.006735 27.254892 28.754296
3.100000 24.203846 25.076083 26.193876 26.345020 27.689845 29.181355
3.120000 24.354333 25.246523 26.413882 26.558876 27.922333 29.481461
3.170000 24.679567 25.667328 27.032876 27.151705 28.594764 30.520566
3.200000 24.910589 25.912263 27.394505 27.505992 29.094697 30.894113
3.220000 25.074272 26.081459 27.608003 27.741745 29.354903 31.249874
3.270000 25.402613 26.526811 28.374083 28.460732 30.237935 32.307166
3.300000 25.750149 26.783789 28.771713 28.848477 30.700461 32.722361
3.320000 25.948188 26.993540 29.038073 29.108736 31.015432 32.903887
3.370000 26.195861 27.514487 29.917858 29.925726 32.061089 34.136000
3.400000 26.463728 27.781913 30.303851 30.364974 32.629986 34.485404
3.420000 26.706284 28.022668 30.621499 30.639840 32.985745 34.933792
3.470000 27.177108 28.793839 31.531009 31.588939 34.260301 36.417816
3.500000 27.475573 29.151844 32.049255 32.043861 34.770546 36.952601
3.520000 27.703684 29.459867 32.331717 32.333224 35.087700 37.235596
3.570000 28.173017 30.274865 33.420097 33.342722 36.087063 38.201884
3.600000 28.543393 30.669629 34.034386 33.843339 36.688025 38.914437
3.620000 28.788559 30.882823 34.367711 34.137332 37.038657 39.294491
3.670000 29.272607 31.761901 35.384508 35.151638 38.131925 40.101182
3.700000 29.550125 32.230918 35.914568 35.654671 38.649708 40.778790
3.720000 29.779847 32.512527 36.220736 35.962995 39.002221 40.979584
3.770000 30.380768 33.577269 37.415014 36.939406 39.852544 41.666263
3.800000 30.949374 34.073239 37.899619 37.399260 40.355820 41.953730
3.820000 31.124832 34.438474 38.217079 37.704910 40.590665 42.232367
3.870000 31.906585 35.635621 39.106095 38.605997 41.375254 42.954383
3.900000 32.359326 36.033595 39.627624 39.066578 41.805011 43.519376
3.920000 32.602305 36.311678 39.916412 39.361482 42.055664 43.817847
3.970000 33.525954 37.399349 40.645217 40.224460 42.833082 44.423574
4.000000 34.012004 37.970898 41.059648 40.661866 43.206297 45.024143
4.020000 34.576496 38.367566 41.356304 40.944194 43.473942 45.286088
4.070000 35.363100 39.132611 42.041999 41.702810 44.165184 45.936754
4.100000 35.796612 39.513454 42.475137 42.125476 44.634314 46.316366
4.120000 36.077726 39.735587 42.771993 42.409670 44.917915 46.611587
4.170000 36.963143 40.732954 43.485887 43.178016 45.685326 47.286368
4.200000 37.393507 41.098480 43.965853 43.601132 46.103857 47.705180
4.220000 37.779432 41.356413 44.208605 43.883623 46.481000 48.018836
4.270000 38.978966 42.184380 44.908304 44.659272 47.337032 48.811655
4.300000 39.825535 42.620068 45.279055 45.072264 47.750549 49.429286
4.320000 40.102790 42.872686 45.568329 45.351233 47.998404 49.675870
4.370000 40.766925 43.515219 46.185547 46.054345 48.699305 50.522899
4.400000 41.164502 43.896237 46.559584 46.497138 49.175940 51.157205
4.420000 41.488206 44.161840 46.803030 46.789969 49.436832 51.541853
4.470000 42.545066 44.968655 47.575844 47.626116 50.404119 52.834510
4.520000 43.513646 45.697230 48.498053 48.542621 51.313622 54.005478
4.570000 44.190857 46.523475 49.450147 49.508389 52.490228 55.013508
4.620000 44.964287 47.406562 50.412792 50.509953 53.650832 56.151770
4.670000 45.925577 48.391465 51.557940 51.567070 54.816408 57.798517
4.700000 46.328691 48.860119 52.216795 52.149646 55.448492 58.346911
4.720000 46.694559 49.125584 52.603129 52.524801 55.804431 58.735838
4.770000 47.747210 50.130159 53.833224 53.710173 57.132358 59.795044
4.800000 48.075520 50.568257 54.501006 54.323012 57.822067 60.561562
4.820000 48.492003 50.940053 54.841284 54.706707 58.191559 60.854127
4.870000 49.506800 52.263451 56.333932 56.087836 59.602419 61.977898
4.900000 50.051259 52.890740 57.077791 56.779295 60.407521 62.564019
4.920000 50.477711 53.334721 57.496415 57.196807 60.773603 62.804878
4.970000 51.950172 54.923482 59.017257 58.663583 61.986275 63.774235
5.000000 52.509849 55.751898 59.911452 59.411430 62.696228 64.336136
5.020000 52.783085 56.338951 60.435248 59.866526 63.097831 64.756186
5.070000 54.787857 58.229642 61.905673 61.333077 64.049891 65.691132
5.100000 55.591793 59.076017 62.619120 62.038428 64.599500 66.213241
5.120000 56.128156 59.610373 63.033919 62.474061 64.965259 66.505856
5.170000 57.961407 61.766401 64.234997 63.849744 65.893725 67.464835
5.200000 58.754251 62.773622 64.851377 64.538471 66.544828 67.938042
5.220000 59.147012 63.199696 65.216980 64.936223 66.890561 68.269206
5.270000 61.410291 64.304055 66.024923 65.887066 67.689199 69.134375
5.300000 62.197849 64.922545 66.519858 66.436725 68.182635 69.603051
5.320000 62.921117 65.286240 66.825560 66.797238 68.544010 69.873206
5.370000 64.242610 66.116912 67.645538 67.629960 69.347805 70.701747
5.400000 64.751942 66.615055 68.150063 68.143797 69.827013 71.223450
5.420000 65.316601 66.929918 68.540990 68.495484 70.138991 71.601799
5.470000 66.486921 67.735088 69.373292 69.376602 71.021589 72.545949
5.500000 66.952777 68.247941 69.860879 69.925613 71.607675 73.282726
5.520000 67.415773 68.633026 70.206757 70.322649 72.037011 73.762564
5.600000 68.768734 70.171171 71.967027 72.317140 74.412388 77.872766
5.620000 69.262992 70.619386 72.417658 72.795753 75.070817 78.542733
5.670000 70.476970 71.934813 74.045121 74.453037 77.107168 80.105527
5.700000 71.123003 72.586395 74.995742 75.290730 78.049515 80.996943
5.720000 71.574377 73.036459 75.536732 75.807680 78.583621 81.498922
5.770000 72.621211 74.525085 77.357021 77.437276 80.286479 83.125453
5.800000 73.374627 75.302834 78.144911 78.250364 81.082757 84.023223
5.820000 73.888811 75.745496 78.719075 78.750281 81.653398 84.421997
5.870000 74.738187 77.100116 80.087352 80.097861 83.117113 85.699513
5.920000 75.934436 78.220130 81.436400 81.411728 84.383841 86.883262
5.970000 76.735450 79.523796 82.872090 82.731667 85.723986 88.448101
6.000000 77.475676 80.416868 83.570757 83.427891 86.492418 89.036405
6.020000 78.038663 80.850453 83.966079 83.881179 86.870005 89.314240
6.070000 79.093248 82.005297 85.224191 85.119610 88.313066 90.281920
6.100000 79.583572 82.665980 85.910329 85.803851 88.952919 90.872391
6.120000 80.001128 83.186170 86.406854 86.247556 89.329787 91.170784
6.170000 81.442071 84.552417 87.584127 87.441061 90.377859 92.182227
6.200000 81.817979 85.136080 88.349723 88.100334 90.983589 92.751598
6.220000 82.372679 85.562689 88.795207 88.525102 91.398862 93.029173
6.270000 83.371234 86.792019 90.073796 89.665347 92.276756 93.934295
6.300000 83.922751 87.440193 90.738177 90.293949 92.791560 94.513127
6.320000 84.301212 87.825792 91.193087 90.694542 93.136350 94.819300
6.370000 85.391760 88.969331 92.363785 91.703366 94.000348 95.503453
6.400000 86.288788 89.543950 92.941978 92.291078 94.513366 95.962744
6.420000 86.677140 90.016413 93.324623 92.679036 94.853994 96.244776
6.470000 87.778574 91.271524 94.368636 93.709618 95.786120 97.063565
6.500000 88.316830 91.863669 94.961376 94.320262 96.402419 97.466651
6.520000 88.667520 92.359496 95.331037 94.716024 96.758805 97.796721
6.570000 89.897790 93.762255 96.127244 95.631224 97.525462 98.654295
6.600000 90.350723 94.452640 96.633813 96.157206 97.963969 99.111476
6.620000 90.764924 94.790048 96.994375 96.505416 98.269908 99.394526
6.670000 91.684289 95.732439 97.820965 97.360726 98.991313 100.120205
6.700000 92.264916 96.254455 98.277949 97.891558 99.498273 100.665740
6.720000 92.704529 96.592171 98.617183 98.230944 99.787292 101.076307
6.770000 94.311704 97.570016 99.407013 99.077174 100.494929 101.767823
6.800000 94.984614 98.166676 99.904376 99.588550 100.916998 102.267261
6.820000 95.495174 98.516933 100.219914 99.913956 101.203149 102.556871
6.870000 96.956862 99.477749 100.943893 100.725072 101.941826 103.342467
6.900000 97.610922 99.971322 101.359869 101.205297 102.431299 103.882261
6.920000 98.079603 100.283670 101.644187 101.524987 102.746477 104.217054
6.970000 99.138350 101.161172 102.368093 102.308943 103.421446 105.011104
7.000000 99.742754 101.685169 102.800730 102.779345 103.896739 105.509458
7.020000 100.180906 102.018438 103.107874 103.089224 104.174817 105.858724
7.070000 101.087072 102.782777 103.823606 103.841182 104.992897 106.665003
7.100000 101.454757 103.223972 104.235591 104.302438 105.481276 107.218700
7.120000 101.811397 103.545155 104.516841 104.599960 105.805807 107.592242
7.170000 102.463108 104.229267 105.177618 105.285885 106.472896 108.441011
7.200000 102.907855 104.647164 105.612608 105.724794 106.942354 108.953035
7.220000 103.241568 104.914765 105.890044 106.018257 107.220385 109.220176
7.270000 103.927548 105.588516 106.513234 106.683264 107.950600 109.999381
7.300000 104.401739 106.009039 106.939593 107.118160 108.369928 110.343881
7.320000 104.699863 106.268261 107.235602 107.418539 108.651147 110.623885
7.370000 105.434567 106.927002 107.962247 108.128482 109.437420 111.262759
7.400000 105.862757 107.343580 108.384128 108.566641 109.893905 111.779141
7.420000 106.058662 107.595332 108.695247 108.880932 110.244899 112.055321
7.470000 106.835007 108.317279 109.484630 109.636749 111.060818 112.890321
7.500000 107.284585 108.757443 109.952649 110.120917 111.583321 113.287318
7.520000 107.722793 109.071150 110.293971 110.450421 111.939942 113.595167
7.570000 108.354434 109.749540 111.146803 111.233795 112.770527 114.370927
7.600000 108.946564 110.223651 111.704730 111.729257 113.299803 114.758600
7.620000 109.271154 110.549070 112.072351 112.079570 113.643497 114.995134
7.670000 110.026687 111.378470 112.928755 112.956866 114.624371 115.837936
