depth(m) lower_95(kyr) lower_68(kyr) median(kyr) mean(kyr) upper_68(kyr) upper_95(kyr)
0.250000 0.378745 1.173849 2.143803 2.107866 3.055357 3.781182
0.300000 0.852006 1.676622 2.654437 2.628467 3.595310 4.179720
0.350000 1.222706 2.180915 3.173118 3.130178 4.101397 4.785884
0.400000 1.677104 2.623639 3.648677 3.602997 4.562780 5.293068
0.450000 2.111610 3.056609 4.174397 4.095371 5.048976 5.698035
0.500000 2.651626 3.550621 4.688192 4.577565 5.476079 6.248288
0.550000 3.069826 4.030604 5.145463 5.050571 5.988519 6.664106
0.600000 3.612854 4.522289 5.656361 5.554543 6.463971 7.218429
0.650000 4.031977 5.065644 6.131342 6.050553 6.971508 7.713976
0.700000 4.575383 5.581842 6.619389 6.527675 7.416656 8.207016
0.750000 5.006962 6.120788 7.100483 7.018362 7.890367 8.660904
0.800000 5.548664 6.642512 7.575627 7.503307 8.390451 9.109268
0.850000 6.115150 7.185924 8.056399 8.008238 8.869826 9.621883
0.900000 6.612325 7.717793 8.552244 8.523470 9.384488 10.093623
0.950000 7.280445 8.263115 9.082660 9.066423 9.905895 10.535387
1.000000 7.965990 8.845794 9.621685 9.623086 10.418479 11.052302
1.050000 8.686616 9.440948 10.304299 10.252596 10.995470 11.739530
1.100000 9.501367 10.247497 11.040677 11.000433 11.717446 12.397850
1.140000 9.945859 10.752108 11.519941 11.498933 12.257083 12.918838
1.200000 10.534600 11.402344 12.142664 12.120374 12.863487 13.484022
1.300000 11.423795 12.312215 12.997630 12.980846 13.684188 14.253524
1.350000 12.010205 12.840495 13.492825 13.475764 14.141266 14.665985
1.410000 12.789868 13.546274 14.173438 14.147963 14.750672 15.244356
1.450000 13.273216 14.056414 14.724145 14.673499 15.253337 15.778214
1.550000 14.965372 15.575085 16.187418 16.253977 16.928618 17.882757
1.600000 15.737081 16.329728 17.023700 17.108133 17.888597 19.012003
1.650000 16.340190 16.909899 17.669920 17.776499 18.620903 19.892116
1.700000 16.698730 17.346789 18.217915 18.337709 19.317000 20.768076
1.750000 17.172882 17.811413 18.747835 18.893888 19.994666 21.394274
1.800000 17.660520 18.301809 19.278904 19.441531 20.632694 22.141657
1.850000 18.062554 18.785945 19.804879 19.988427 21.266207 22.821856
1.960000 18.959358 19.795887 20.962798 21.218503 22.839025 24.427103
2.000000 19.291357 20.164037 21.468409 21.709591 23.426948 25.042457
2.050000 19.724415 20.700675 22.146821 22.335607 24.066359 25.639279
2.100000 20.287678 21.227336 22.784423 22.954192 24.825690 26.312970
2.150000 20.768789 21.696409 23.370774 23.559596 25.397868 26.990290
2.200000 21.190059 22.192784 23.965126 24.148204 25.996949 27.668301
2.250000 21.713393 22.839892 24.766754 24.786726 26.647506 28.325256
2.300000 22.254130 23.434315 25.370397 25.423011 27.269966 29.307272
2.350000 22.884081 24.055845 26.018859 26.108691 28.109205 30.073140
2.400000 23.600110 24.822794 26.821385 26.832450 28.822083 30.865451
2.450000 24.273022 25.581384 27.576593 27.635368 29.559147 31.717525
2.500000 25.132866 26.438923 28.311246 28.473101 30.314155 32.957638
2.550000 25.817042 27.360145 29.174958 29.353322 31.336739 33.786644
2.600000 26.550653 28.140491 30.011712 30.219515 32.250857 34.980866
2.650000 27.331585 28.880781 30.730290 31.019448 33.205839 36.302633
2.700000 27.938316 29.703520 31.487222 31.833532 34.185392 37.086952
2.750000 28.550397 30.301541 32.399351 32.607226 34.961432 37.799008
2.800000 29.273619 31.027181 33.109279 33.346120 35.765182 38.777886
2.850000 29.996256 31.601866 33.762261 34.075248 36.486483 39.910157
2.900000 30.699907 32.186185 34.548683 34.827599 37.493048 40.883509
2.950000 31.143844 32.861717 35.319523 35.566303 38.263830 41.592017
2.990000 31.624286 33.445246 35.948006 36.159126 38.864204 42.584521
3.100000 32.930005 34.872161 37.702167 37.901768 40.921815 44.534207
3.200000 33.919261 36.416225 39.321485 39.552526 42.832473 45.885800
3.300000 35.099762 37.826885 41.206498 41.197056 44.500125 47.250724
3.400000 36.343482 39.632473 43.001859 42.820457 46.049443 48.604230
3.500000 37.949299 41.130794 44.394635 44.273849 47.353384 49.658509
3.600000 39.555910 42.684777 45.742054 45.632113 48.481017 50.814459
3.700000 41.337318 44.354689 47.124139 47.005385 49.544254 51.867865
3.800000 43.060217 45.869370 48.453577 48.325173 50.650929 53.072899
3.900000 44.556061 47.361505 49.775757 49.571677 51.743634 54.004309
4.000000 46.172160 48.651384 50.906851 50.778517 52.943935 55.080171
4.100000 47.570838 49.930919 52.158031 52.007428 54.094083 56.191339
4.200000 48.790452 51.013602 53.313090 53.153660 55.214075 57.056602
4.300000 50.170987 52.242432 54.418486 54.311584 56.240191 58.068561
4.400000 51.275851 53.481250 55.532224 55.432262 57.246035 59.399662
4.495000 52.212230 54.642816 56.612690 56.505371 58.302422 60.437175
4.590000 53.375645 55.796157 57.701913 57.567559 59.413741 61.610088
4.690000 54.450516 56.809135 58.759053 58.678763 60.538330 62.543526
4.790000 55.433114 57.949029 59.826107 59.774011 61.589524 63.486798
4.890000 56.545540 59.023240 60.948961 60.922188 62.744764 64.990628
4.990000 57.596353 60.094223 62.001177 62.043821 63.873173 66.445579
5.090000 58.873515 61.372004 63.154886 63.239904 65.093140 68.016129
5.190000 60.133600 62.563116 64.302684 64.483277 66.390476 69.686218
5.290000 61.568854 63.846131 65.622605 65.812448 67.838775 71.011226
5.390000 62.932257 65.082333 66.947562 67.195680 69.293225 72.408131
5.490000 63.934509 66.263968 68.445671 68.628700 70.973580 74.247622
5.590000 65.478216 67.656430 69.892935 70.084784 72.478314 76.561923
5.733333 67.149418 69.710500 72.099483 72.455330 75.125359 79.835775
5.876667 69.346035 71.653648 74.438765 74.835861 78.001791 83.246789
6.020000 71.320192 73.601051 76.763502 77.232209 80.701005 86.165187
6.105000 72.500186 74.936890 78.069865 78.618635 82.280293 87.876435
6.190000 73.875260 76.127585 79.418382 79.976195 83.886042 89.315202
6.290000 75.242094 77.497865 81.117839 81.623290 85.931593 90.992570
6.390000 76.680671 78.931822 82.826211 83.280362 87.748660 92.321543
6.490000 77.737246 80.424623 84.464502 84.872695 89.685620 93.663770
6.590000 78.844715 82.018656 85.920407 86.430893 91.377803 95.105814
6.690000 80.060714 83.542021 87.449981 87.942415 92.966967 96.302988
6.790000 81.357848 84.939001 89.186858 89.470340 94.689142 97.908402
6.890000 82.756356 86.462819 90.960975 91.055849 96.021435 99.156476
6.990000 83.999340 87.953765 92.597495 92.608889 97.454036 100.286394
7.090000 85.408138 89.437060 94.623902 94.243488 98.958754 101.597520
7.190000 87.059112 90.933497 96.377687 95.902514 100.367605 103.401334
7.290000 88.681983 92.629382 98.191563 97.650529 102.008972 105.488411
7.390000 90.666887 94.434373 99.760075 99.393227 103.592959 107.489163
7.495000 92.698218 96.276430 101.559494 101.147365 105.414478 109.468054
7.600000 94.556115 98.190519 103.187820 102.905151 107.250226 110.870041
7.724000 96.644689 100.657562 105.347395 105.134891 109.420769 112.821582
7.848000 98.796085 103.254638 107.532029 107.365932 111.663645 114.742103
7.972000 101.584387 105.367244 109.811069 109.495909 113.457194 116.396234
8.096000 104.209234 108.002533 112.140468 111.734067 115.431574 117.932327
8.220000 106.547989 110.328505 114.365863 113.986596 117.335894 119.638079
8.346667 109.147602 113.735363 117.021518 116.654115 119.660917 121.552774
8.473333 113.041170 116.894084 119.734066 119.411004 121.932221 123.718527
8.600000 117.312079 120.152513 122.199684 121.975808 123.959536 125.255403
8.700000 118.970784 121.958333 123.961704 123.682985 125.511733 126.916971
8.800000 120.558345 123.734124 125.510249 125.241909 126.825677 128.178258
8.900000 122.600307 125.405362 126.891777 126.758284 128.182881 129.548743
9.000000 125.219960 126.990359 128.251232 128.195806 129.536381 130.774510
9.100000 126.803969 128.222748 129.574745 129.552878 130.882405 132.251952
9.200000 128.264094 129.574469 130.857250 130.868869 132.203669 133.527518
9.300000 129.499325 130.965984 132.293375 132.326891 133.697986 135.530813
9.400000 131.017058 132.312294 133.640973 133.793148 135.313517 137.434963
9.500000 132.102732 133.440782 134.871108 135.123966 136.844156 139.252891
9.600000 133.098981 134.533533 136.049437 136.383681 138.413522 141.260203
9.700000 133.965067 135.386369 137.173248 137.496544 139.715163 142.304581
9.800000 134.741902 136.299268 138.217967 138.582999 140.964268 143.938751
9.900000 135.609483 137.168343 139.251896 139.615306 142.175134 145.172280
10.000000 136.515113 138.091845 140.342410 140.614945 143.246239 146.695819
10.100000 137.349109 138.927145 141.324770 141.606000 144.378064 148.025045
10.200000 138.054859 139.807949 142.253516 142.585265 145.440048 149.358293
10.300000 138.830921 140.646548 143.133240 143.520159 146.339278 150.268455
10.400000 139.706457 141.517605 144.123897 144.507069 147.459846 151.381214
10.500000 140.402264 142.450236 145.032263 145.489142 148.638152 152.380602
10.600000 141.257700 143.359391 146.085300 146.460086 149.693991 153.423077
10.700000 142.030728 144.190996 146.955105 147.384848 150.793894 154.375793
10.800000 143.011669 145.099379 147.890205 148.338019 151.932163 155.469308
10.900000 143.842358 146.207525 148.827648 149.280151 153.080807 156.237707
11.000000 144.647695 147.141644 149.843224 150.251361 153.910188 157.120085
11.100000 145.558577 147.973692 150.785067 151.197076 154.965472 158.114566
11.200000 146.551499 149.018449 151.744701 152.137605 155.735077 158.907382
11.300000 147.413194 149.994890 152.791556 153.090010 156.632722 159.744262
11.400000 148.533105 151.036882 153.776478 154.070877 157.364714 160.746082
11.500000 149.767351 152.072830 154.772679 155.066781 158.271816 161.516114
11.600000 150.703934 153.295295 155.838044 156.090340 159.148456 162.292043
11.700000 151.807775 154.409010 156.864101 157.116971 160.212153 163.125625
11.800000 152.784819 155.616934 157.882100 158.155247 161.327724 163.900414
11.900000 153.853620 156.756717 159.003645 159.291600 162.396692 164.750724
12.000000 155.436261 157.916118 160.318316 160.490721 163.379117 165.499301
12.100000 156.923718 159.122278 161.625609 161.709219 164.461158 166.503313
12.200000 158.492196 160.349298 162.900796 162.948911 165.553957 167.677248
12.300000 159.583869 161.650274 164.387658 164.255042 166.736626 168.800942
12.400000 160.776877 163.033054 165.714146 165.566160 167.926455 169.891305
12.500000 162.157315 164.651326 167.029614 166.979271 169.261079 171.251667
12.600000 163.748112 166.333119 168.510708 168.456768 170.505963 172.695932
12.700000 165.431687 167.816140 169.723418 169.735893 171.734418 174.296225
12.800000 166.757649 169.086063 170.808283 170.935119 172.896715 175.743581
12.900000 167.801446 169.997000 171.855437 172.029890 174.142377 176.947946
13.000000 169.144413 170.926976 172.876381 173.105619 175.452761 178.144632
13.100000 170.283002 171.968320 173.872842 174.163700 176.568649 179.469502
13.200000 171.204465 172.950795 174.891437 175.227921 177.559687 180.974628
13.300000 172.104655 174.039563 176.044155 176.327916 178.653786 181.912583
13.400000 173.187440 175.132395 177.198511 177.538314 180.141600 183.466036
13.500000 174.193898 176.262931 178.381850 178.737036 181.451679 184.434202
13.600000 175.386480 177.488853 179.729090 179.995627 182.670163 185.824974
13.700000 176.524409 178.667518 181.185168 181.331770 184.093773 187.002772
13.800000 177.611752 179.816454 182.539373 182.608371 185.364380 188.051365
13.900000 178.985813 181.150505 183.915853 183.943632 186.682491 189.140287
14.000000 180.196055 182.550507 185.289198 185.294092 188.030415 190.476058
14.100000 181.321480 183.984175 186.691925 186.667648 189.322917 191.803740
14.200000 182.796220 185.519920 188.263719 188.149780 190.739838 193.119156
14.300000 184.100487 186.998882 189.815068 189.626325 192.104903 194.539943
14.400000 185.590227 188.443186 191.175239 190.969017 193.278088 195.669958
14.500000 187.039385 189.892129 192.423531 192.284089 194.646995 196.781709
14.600000 188.715924 191.454341 193.616186 193.536021 195.664258 197.741289
14.700000 190.149532 192.681294 194.748618 194.734021 196.814647 198.904506
14.800000 191.737973 193.841644 195.932838 195.837709 197.788392 199.678236
14.900000 193.123661 194.999631 196.930601 196.893442 198.800401 200.686477
15.000000 194.215246 196.017306 197.854191 197.862597 199.728291 201.436401
15.100000 195.145016 197.001844 198.820126 198.764064 200.632060 202.198187
15.200000 195.999816 197.749756 199.640094 199.622747 201.504288 203.084319
15.300000 196.833805 198.582925 200.509537 200.474495 202.345077 204.072732
15.400000 197.561195 199.413141 201.385729 201.319792 203.175969 204.967389
15.500000 198.461191 200.287427 202.175375 202.188103 204.107498 205.945239
15.600000 199.175071 201.097099 203.010679 203.049071 205.022197 206.808896
15.700000 199.985613 202.038792 203.963643 203.930060 205.823559 207.476059
15.800000 200.869240 202.911360 204.881860 204.829746 206.736738 208.333710
15.900000 201.896960 203.892888 205.837033 205.734859 207.536238 209.280558
16.000000 203.011614 204.923557 206.717258 206.629322 208.403544 210.082840
16.100000 204.093490 205.860855 207.604430 207.560930 209.232841 210.757655
16.200000 204.887849 206.815682 208.505252 208.465596 210.121674 211.651990
16.300000 205.772798 207.751324 209.451118 209.357941 210.987093 212.454432
16.400000 206.866273 208.782782 210.411396 210.316353 211.904429 213.396861
16.500000 207.891690 209.774393 211.412221 211.263621 212.712539 214.180070
16.600000 208.983416 210.830746 212.224446 212.169740 213.585326 215.032004
16.700000 209.929988 211.733482 213.074985 213.044224 214.486025 215.834963
16.800000 210.780887 212.483706 213.909137 213.863569 215.260912 216.662812
16.900000 211.773355 213.327350 214.709971 214.660273 215.953779 217.362397
17.000000 212.674048 214.197942 215.506368 215.470005 216.723921 218.256960
17.100000 213.724012 214.998395 216.263581 216.275945 217.484341 219.052602
17.200000 214.634183 215.886420 217.113248 217.142751 218.340869 219.982411
17.300000 215.404132 216.793574 217.982061 218.032011 219.247332 221.076491
17.400000 216.340546 217.633329 218.868109 218.958641 220.270539 222.281336
17.500000 217.190796 218.512710 219.762333 219.940881 221.476454 223.421986
17.600000 218.033502 219.368364 220.753616 220.923596 222.504086 224.493454
17.700000 218.979363 220.232436 221.673774 221.895634 223.693428 225.616006
17.800000 219.757641 221.130285 222.729915 222.878693 224.760756 226.608798
17.900000 220.424197 221.954318 223.853411 223.855044 225.897337 227.433978
18.000000 221.313654 222.811396 224.781532 224.820876 226.832061 228.263193
18.100000 222.101248 223.780261 225.869743 225.798144 227.753599 229.298125
18.200000 223.145956 224.783167 226.870403 226.811335 228.672642 230.160990
18.330000 224.418236 226.198494 228.306920 228.092702 229.843128 231.173477
18.415000 225.173331 227.189181 229.137833 228.925339 230.676193 231.903917
18.500000 226.128055 228.126566 229.953660 229.810712 231.422875 232.731118
18.600000 227.336972 229.251952 231.017279 230.862418 232.366482 233.858411
18.700000 228.210515 230.429068 232.042633 231.944864 233.451483 234.970260
18.790000 229.389379 231.389917 233.077767 233.045466 234.638522 236.601653
18.880000 230.464114 232.447902 234.139534 234.154952 235.845740 237.924220
18.990000 231.932251 233.730972 235.517542 235.653307 237.622026 239.722647
19.100000 233.633720 235.235590 237.070158 237.257350 239.395940 241.843828
19.200000 234.732507 236.478039 238.629458 238.743284 240.939087 243.725863
19.300000 236.093405 237.864905 240.092904 240.207063 242.417158 245.561014
19.400000 237.034721 239.310040 241.696181 241.817109 244.432008 247.594684
19.500000 238.299264 240.739239 243.189202 243.488334 246.450767 249.204302
19.600000 240.236802 242.606451 244.965526 245.312599 248.545313 250.807817
19.700000 242.527664 244.281589 246.865664 247.212603 250.431887 252.814369
19.795000 243.691135 245.689724 248.865600 248.782323 251.859409 254.194490
19.890000 244.831637 247.116973 250.474670 250.202692 253.030974 255.165567
20.010000 246.281709 249.090235 251.992084 251.782961 254.283469 256.345935
20.130000 248.023972 250.809664 253.480496 253.249959 255.510762 257.521332
20.215000 249.228446 251.779588 254.400313 254.172024 256.326108 258.475228
20.300000 250.136621 252.833054 255.207295 255.061683 257.164833 259.261180
20.400000 251.194701 253.866254 256.160190 256.044846 258.113304 260.350924
20.500000 252.302679 254.917965 257.097418 256.994769 259.209633 261.264859
20.600000 253.593171 255.901496 257.974058 257.917490 260.024478 262.340800
20.700000 254.656907 256.924492 258.778889 258.823534 260.832741 263.213464
20.795000 255.626886 257.771628 259.639009 259.686802 261.745560 263.932310
20.890000 256.464345 258.652332 260.469363 260.538795 262.539343 264.738747
20.995000 257.594988 259.514774 261.385347 261.424551 263.433833 265.651519
21.100000 258.508371 260.402684 262.250480 262.302997 264.347552 266.387853
21.195000 259.269153 261.205289 263.046158 263.086810 265.130556 267.086930
21.290000 259.990732 261.983905 263.838050 263.867816 265.908623 267.660876
21.395000 260.720084 262.740988 264.618808 264.677881 266.737913 268.518284
21.500000 261.575834 263.562339 265.445598 265.513311 267.604089 269.207258
21.600000 262.302768 264.374323 266.227083 266.302969 268.374679 270.140701
21.700000 263.215061 265.135290 267.076054 267.113839 269.136714 270.964802
21.800000 264.037778 265.965275 268.008241 267.936625 269.975837 271.649328
21.900000 264.880277 266.776979 268.836202 268.790835 270.746410 272.417989
21.980000 265.519551 267.548692 269.621907 269.511854 271.413397 273.124111
22.060000 266.281996 268.319017 270.323881 270.241265 272.052255 273.893801
22.170000 267.284885 269.270212 271.239376 271.205101 273.140676 274.739802
22.280000 268.341129 270.288318 272.201885 272.154213 273.999986 275.551984
22.390000 269.490146 271.371872 273.145576 273.115954 274.862705 276.284904
22.500000 270.572496 272.383891 274.127282 274.086264 275.847873 277.185735
22.600000 271.643310 273.433259 275.097123 275.031420 276.695277 278.208813
22.700000 272.743156 274.515569 276.116292 276.044468 277.629174 278.962486
22.795000 274.008993 275.620619 277.203819 277.139844 278.661997 280.128598
22.890000 274.977912 276.758969 278.337766 278.274435 279.739814 281.234324
22.995000 276.146779 277.934080 279.449399 279.429893 280.959026 282.519123
23.100000 277.661012 279.055616 280.616410 280.621749 282.108898 283.369408
23.200000 278.883334 280.466359 281.999785 281.984472 283.485377 285.058859
23.300000 280.114427 281.636021 283.417064 283.349916 284.894536 286.489645
23.400000 281.116239 282.802480 284.588001 284.530583 286.280091 288.154064
23.500000 282.061325 283.730448 285.654955 285.702243 287.540724 289.785412
23.600000 282.988685 284.804589 286.702402 286.871367 288.894923 291.410587
23.700000 283.796757 285.892933 287.861796 287.998546 290.196625 292.989502
23.780000 284.859576 286.791535 288.657582 288.900140 291.100576 294.001636
23.860000 285.861306 287.578000 289.436330 289.773393 292.175996 295.483413
23.980000 287.181144 288.784387 290.688679 291.107429 293.538634 297.307186
24.100000 288.381245 290.017151 291.905477 292.419290 294.993641 298.614414
24.205000 289.172736 290.953122 293.129911 293.541524 296.136037 300.016699
24.310000 290.207343 291.881594 294.236042 294.621128 297.353877 301.514116
24.405000 290.892639 292.773881 295.351047 295.649069 298.533648 302.768115
24.500000 291.648580 293.623922 296.368089 296.668162 299.678392 303.610196
24.600000 292.382113 294.520668 297.499290 297.741986 300.911078 305.023338
24.700000 293.211540 295.522552 298.584560 298.861431 302.304529 305.898500
24.800000 294.000802 296.693953 299.719922 299.996203 303.538987 306.960008
24.900000 294.980617 297.625124 300.897983 301.105033 304.715092 307.966833
25.000000 296.070284 298.630060 301.976682 302.246877 305.971661 309.100091
25.100000 297.021729 299.658760 303.293646 303.382182 307.247561 309.990127
25.200000 297.976112 300.797227 304.587966 304.544985 308.358819 310.905584
