depth(m) lower_95(kyr) lower_68(kyr) median(kyr) mean(kyr) upper_68(kyr) upper_95(kyr)
0.100000 1.270362 2.222140 3.119377 3.158103 4.109578 4.985882
0.200000 2.553848 3.514915 4.703908 4.742437 5.964625 7.340009
0.300000 3.592037 4.889429 6.471793 6.437016 7.936504 9.417422
0.400000 4.947270 6.515337 8.209826 8.082555 9.605226 10.824314
0.500000 7.189007 8.658210 10.297362 10.226085 11.814717 13.029345
0.600000 10.464352 12.182452 13.651476 13.517031 14.866090 15.801159
0.700000 13.682084 15.217091 16.092018 16.020543 16.858243 17.647693
0.800000 15.592321 16.430807 17.090383 17.098885 17.850183 18.599043
0.900000 16.445871 17.185879 17.865335 17.893314 18.654365 19.509051
1.000000 17.178335 17.887589 18.576842 18.610244 19.357248 20.263476
1.100000 17.889168 18.583432 19.231840 19.295916 20.061368 20.932128
1.200000 18.496722 19.227353 19.952215 20.005527 20.788735 21.678807
1.300000 19.186467 19.949066 20.658194 20.726530 21.549403 22.546166
1.400000 19.865710 20.633625 21.370202 21.447266 22.291770 23.335964
1.500000 20.442452 21.331753 22.127903 22.186309 23.063763 24.185454
1.600000 21.169675 22.021998 22.843759 22.925561 23.818310 25.115246
1.700000 21.902924 22.788028 23.553763 23.705525 24.661005 26.045198
1.800000 22.643835 23.522180 24.353937 24.526269 25.549942 27.151449
1.900000 23.409368 24.329001 25.230134 25.405480 26.492944 28.366374
2.000000 24.160746 25.077034 26.116087 26.322356 27.554833 29.983002
2.100000 24.905115 25.904375 27.052957 27.292968 28.638080 31.073424
2.200000 25.695715 26.768492 28.094079 28.382267 29.918956 32.763238
2.300000 26.546119 27.740539 29.158350 29.571387 31.529564 34.738298
2.400000 27.355107 28.749982 30.386611 30.862188 33.244897 36.515474
2.500000 28.298240 29.843187 31.850512 32.279839 34.987432 38.141361
2.600000 29.189083 31.062470 33.449790 33.782304 36.560667 39.595643
2.700000 30.165015 32.288582 35.000377 35.247670 38.347315 41.173800
2.800000 31.491446 33.688694 36.570029 36.708761 39.794302 42.458598
2.900000 32.822012 35.078642 38.177155 38.230551 41.397067 44.119437
3.000000 34.069368 36.519869 39.658733 39.659324 42.789082 45.480895
3.100000 35.189664 37.911961 41.149992 41.085408 44.076159 46.655118
3.200000 36.653254 39.457321 42.482885 42.514283 45.633250 48.069406
3.300000 38.051592 41.180999 44.002998 43.978106 46.850253 49.848194
3.400000 39.657373 42.489388 45.496012 45.428390 48.259201 51.581774
3.500000 41.173336 43.841595 46.719727 46.809647 49.830605 52.763508
3.600000 42.395285 45.203235 48.148767 48.233795 51.388756 54.509673
3.700000 43.680432 46.456294 49.455961 49.585246 52.896648 55.749460
3.800000 44.897172 47.797144 50.868735 50.951863 54.344289 57.080535
3.900000 46.257043 49.220882 52.218231 52.469464 56.101007 58.620576
4.000000 47.737338 50.791532 53.835235 53.995051 57.516165 60.031859
4.100000 49.293996 52.181044 55.596722 55.615702 59.098712 61.307540
4.200000 50.745806 53.800881 57.632874 57.288042 60.579188 62.544448
4.300000 52.478381 55.520243 59.533996 58.979857 62.064043 63.752391
4.400000 54.213051 57.251628 61.353746 60.715681 63.519483 64.998540
4.500000 55.813968 59.633143 63.041911 62.458984 65.028253 66.342042
4.600000 57.805199 61.558998 64.523963 63.993506 66.162651 67.844010
4.700000 60.042377 63.399978 65.693257 65.408235 67.280239 69.104515
4.800000 61.785212 64.868747 66.845129 66.679160 68.443489 70.178831
4.900000 63.547471 66.068801 67.993315 67.870311 69.670891 71.732005
5.000000 65.059708 67.239597 69.076117 69.071977 70.937598 73.264417
5.100000 66.405621 68.373686 70.271762 70.349186 72.345768 74.995988
5.200000 67.672617 69.526603 71.432183 71.629510 73.730397 76.940914
5.300000 68.859541 70.786070 72.738621 73.060731 75.424434 79.082426
5.400000 70.371736 72.159015 74.212691 74.674500 77.336256 80.975481
5.500000 71.965682 73.669420 75.995121 76.484567 79.485321 82.932154
5.600000 73.446297 75.267446 78.014465 78.365483 81.595339 85.081348
5.700000 74.720313 76.761106 79.853078 80.163701 83.594890 87.201700
5.800000 76.155296 78.411586 81.617853 81.910571 85.392348 89.346867
5.900000 77.596695 80.084373 83.230235 83.542289 86.903529 90.911446
6.000000 78.874259 81.756170 85.062164 85.272656 88.806009 92.731631
6.100000 80.513644 83.422447 86.712105 86.964928 90.387315 94.535938
6.200000 82.138699 85.304832 88.618222 88.746954 92.131287 96.352928
6.300000 84.062568 87.184573 90.459679 90.569840 93.988647 97.748819
6.400000 85.878268 89.198189 92.285717 92.466375 95.821223 99.486232
6.500000 87.771791 91.463451 94.292607 94.413677 97.547421 101.478515
6.600000 89.382537 93.714060 96.395889 96.383212 99.284808 102.964606
6.700000 91.367934 95.718146 98.456176 98.466898 101.427898 104.824182
6.800000 93.178392 97.699221 100.556366 100.541861 103.552739 107.058872
6.900000 95.040688 99.771731 102.816842 102.709760 105.872461 109.000014
7.000000 97.136900 101.786029 105.027645 104.763517 108.009778 110.441605
7.100000 99.892749 104.105857 106.982698 106.759993 109.830682 111.941383
7.200000 101.832881 105.983837 108.793235 108.609877 111.369597 113.399831
7.300000 103.399533 107.789372 110.494009 110.220117 112.897257 114.847304
7.400000 105.420904 109.576133 112.150418 111.822786 114.298316 115.939741
7.500000 108.010574 111.202395 113.666133 113.403491 115.679688 117.069043
7.600000 109.978209 113.200129 115.281795 115.039510 117.073302 118.476090
7.700000 112.204256 115.078931 116.984787 116.770611 118.637107 119.818089
7.800000 114.694738 117.298984 118.842651 118.732127 120.249888 121.557963
7.900000 118.036637 119.763386 121.060368 121.049230 122.471747 123.933969
8.000000 120.240725 121.575506 122.926031 122.997352 124.444485 125.861363
8.100000 122.269690 123.571860 125.203707 125.326291 127.026057 128.950536
8.200000 126.169316 127.710120 129.470569 129.438514 131.141413 132.472287
8.300000 129.801920 131.200498 132.537037 132.623446 134.095690 136.029434
8.400000 131.781163 132.803512 134.134599 134.297657 135.723383 137.913333
8.500000 132.789507 133.976703 135.337210 135.570251 137.276425 139.433985
8.600000 134.012237 135.058823 136.490375 136.809265 138.786770 140.935922
8.700000 135.127109 136.211885 137.809791 138.103697 140.123633 142.263778
8.800000 136.264559 137.333925 139.161242 139.421086 141.638071 143.698770
8.900000 137.312002 138.464234 140.431990 140.673356 143.018985 144.890756
9.000000 138.254470 139.541899 141.740050 141.882365 144.285352 146.320202
9.100000 139.099215 140.661868 143.044926 143.136934 145.705788 147.504758
9.200000 140.378130 141.814789 144.321049 144.366427 146.912938 148.615083
9.300000 141.384119 142.987661 145.649118 145.590023 148.086142 149.603187
9.400000 142.419379 144.216932 147.146707 146.865531 149.346262 150.655093
9.500000 143.471487 145.378688 148.512881 148.103664 150.411538 151.681005
9.600000 144.435402 146.635338 149.828931 149.357958 151.486721 152.651860
9.700000 145.636223 148.333885 151.027662 150.595607 152.557054 153.522490
9.800000 146.965437 149.997838 152.339553 151.869649 153.642316 154.505586
9.900000 148.372054 151.488751 153.541469 153.143650 154.703158 155.624403
10.000000 149.846006 153.029019 154.628441 154.315055 155.670073 156.699774
10.100000 151.553271 154.390441 155.712096 155.446011 156.619147 157.655585
10.200000 152.722717 155.467543 156.681801 156.482125 157.633829 158.677758
10.300000 153.992040 156.460121 157.678610 157.525406 158.663088 159.816268
10.400000 155.341899 157.494134 158.637247 158.556189 159.727243 161.111952
10.500000 156.524023 158.450339 159.554328 159.552624 160.752963 162.195157
10.600000 157.898034 159.467943 160.554713 160.606529 161.812686 163.337308
10.700000 159.038997 160.473585 161.530323 161.623744 162.891985 164.399948
10.800000 160.113037 161.385262 162.570580 162.661066 163.993925 165.526702
10.900000 161.190384 162.421568 163.654039 163.766295 165.122422 167.028829
11.000000 162.330345 163.481301 164.756835 164.902431 166.289285 168.358102
11.100000 163.434973 164.606435 165.992935 166.207529 167.689130 170.414538
11.200000 164.615527 165.836860 167.429685 167.871275 169.675191 174.520518
11.300000 165.988445 167.370675 169.128581 169.899909 172.221747 179.199997
11.400000 167.474058 169.231263 171.473443 172.369218 175.708356 182.205516
11.500000 169.443452 171.300523 173.832767 174.976283 179.401967 185.900721
11.600000 171.343846 173.446111 176.793289 177.772805 182.649402 187.991098
11.700000 173.287865 175.598022 180.349764 180.685219 186.054404 190.340128
11.800000 175.334458 178.642782 183.868762 183.756184 188.523285 191.883792
11.820000 175.683667 179.144351 184.445735 184.229838 188.970717 192.238546
11.920000 177.764815 182.413925 187.942084 187.238263 191.443014 194.037486
12.020000 180.431046 186.002220 190.768463 190.049376 193.700468 196.318094
12.120000 184.606095 189.560030 193.434001 192.983421 196.208006 199.030859
12.220000 188.186102 192.348184 195.555157 195.417861 198.443804 201.587116
12.320000 191.528644 194.752887 197.711024 197.701320 200.683543 203.380839
12.420000 194.234173 196.954756 199.975313 199.864891 202.600781 205.535468
12.520000 195.824047 199.112825 202.061142 201.902313 204.556511 207.247786
12.620000 197.657295 201.485268 204.183837 203.979721 206.545186 208.831982
12.720000 199.514028 203.736217 206.070152 205.889099 208.192816 210.355133
12.820000 201.651035 205.505876 207.720392 207.674316 209.851311 212.888694
12.920000 203.861705 207.412796 209.603063 209.682921 212.011522 216.335961
13.020000 205.463134 209.316123 212.000035 212.039089 214.923658 218.257414
13.120000 206.709150 212.384678 215.393569 214.914959 217.582321 219.767509
13.220000 208.196919 215.080644 218.544062 217.612721 220.189274 221.912784
13.320000 209.529081 217.243330 219.844615 219.097332 221.572107 223.018650
13.420000 210.761442 218.484183 220.850575 220.255406 222.667491 224.319661
13.520000 212.509338 219.505079 221.720439 221.341546 223.552903 225.386004
13.620000 214.642820 220.582764 222.653993 222.366979 224.594938 226.271126
13.720000 216.983963 221.550049 223.691847 223.377459 225.496209 227.231192
13.820000 219.159283 222.468505 224.675835 224.401191 226.457927 228.043274
13.920000 220.652316 223.413806 225.594842 225.377956 227.350709 229.048146
14.020000 221.832064 224.456147 226.506637 226.335469 228.278224 230.035890
14.120000 222.899195 225.401557 227.462367 227.300506 229.181547 231.105039
14.220000 224.111376 226.379645 228.448256 228.298657 230.113510 232.023297
14.320000 225.132628 227.432021 229.341160 229.268247 231.108410 233.168033
14.420000 226.166240 228.406835 230.224948 230.250434 232.044507 234.155459
14.520000 227.378693 229.429107 231.281781 231.285674 233.183752 235.325060
14.620000 228.461948 230.381007 232.278912 232.339489 234.426451 236.914775
14.720000 229.439450 231.443109 233.261180 233.404599 235.474162 238.562524
14.820000 230.490592 232.373676 234.234264 234.485398 236.714534 240.588624
14.920000 231.329297 233.266384 235.163499 235.580656 238.220189 242.088297
15.020000 232.300959 234.178170 236.158381 236.675391 239.575794 243.368091
15.120000 233.318292 235.029431 237.144768 237.806259 241.029678 244.713983
15.220000 234.420259 236.052189 238.327374 238.975309 242.330369 245.907403
15.320000 235.708663 237.281901 239.662670 240.163588 243.314800 246.989021
15.420000 237.039832 238.686028 241.029007 241.482149 244.303305 248.010448
15.520000 238.567377 240.324036 242.428701 242.957760 246.032808 249.016062
15.620000 240.485177 242.380611 244.256543 244.689890 247.685830 250.284925
15.720000 242.693221 244.151930 245.857415 246.415000 249.025355 252.231152
15.820000 243.994683 245.588040 247.461995 247.878951 250.291659 253.526776
15.920000 245.148582 246.802075 248.800741 249.136092 251.382417 254.819253
16.020000 246.413562 248.256827 250.178450 250.382081 252.485042 255.929166
16.120000 247.547136 249.531224 251.406379 251.650020 253.656946 257.567933
16.220000 248.629095 250.675183 252.503487 252.825201 254.972064 258.999126
16.320000 250.093676 251.855093 253.580716 253.972856 256.265808 260.087961
16.410000 250.950887 252.704128 254.459847 254.951552 257.394177 261.400148
16.500000 251.773971 253.562593 255.332283 255.937138 258.740422 262.700993
16.600000 252.768725 254.431564 256.293677 256.979302 259.973065 264.200672
16.700000 253.680658 255.388727 257.204246 258.007697 261.426063 265.415531
16.800000 254.666254 256.187280 258.195633 259.071757 262.684153 266.589597
16.900000 255.689755 257.099931 259.191984 260.163641 264.252167 267.850141
17.000000 256.632416 258.081710 260.200500 261.296950 265.727288 268.908875
17.100000 257.458743 258.944876 261.328447 262.447504 267.177963 270.078077
17.200000 258.478356 259.924145 262.669442 263.651181 268.433116 271.149737
17.300000 259.464343 261.017675 263.873979 264.829996 269.589464 272.075188
17.400000 260.577030 262.357181 265.429303 266.104955 270.660773 272.916509
17.500000 261.817019 263.750947 266.879122 267.417578 271.640114 273.835930
17.600000 262.944593 265.113186 268.633932 268.825545 272.683890 274.967535
17.700000 264.142627 266.617768 270.330094 270.274056 273.891283 275.953167
17.800000 265.642622 268.207032 271.918772 271.693172 275.126026 276.982069
17.900000 267.108827 269.869242 273.513600 273.162556 276.229587 277.963783
18.000000 268.596056 271.639969 275.052766 274.662609 277.302915 279.076003
18.100000 270.635036 273.656906 276.497508 276.138269 278.420084 280.125788
18.200000 272.801561 275.771482 277.884651 277.735111 279.693485 281.351890
18.300000 275.591537 278.000356 279.722850 279.759299 281.392960 284.608602
18.400000 277.799137 279.660373 281.161474 281.361094 282.820436 287.870636
18.500000 280.324365 281.516798 282.934334 283.313263 284.741896 290.533139
18.600000 282.232570 283.423922 284.847797 285.250374 286.625258 293.229892
18.700000 283.899010 285.293844 286.829378 287.372629 289.036459 295.401575
18.800000 286.002119 287.829250 289.963072 290.398694 293.087868 297.513335
18.900000 287.731736 289.863890 292.750051 293.053391 296.227242 299.587066
19.000000 289.710131 292.505772 295.555411 295.673603 298.840781 302.055950
19.100000 291.305373 295.224319 298.210522 298.217955 301.098464 304.776634
19.200000 293.748961 297.237866 300.382930 300.385088 303.182225 307.132320
19.300000 296.115440 299.058045 302.287883 302.349932 305.471204 309.393680
19.400000 297.856285 300.988646 304.183438 304.376756 307.971173 311.444947
19.500000 299.402437 302.593273 306.078598 306.304740 310.098257 314.075568
19.600000 300.904633 304.298121 308.086130 308.276013 312.493101 316.152479
19.700000 302.055030 306.064845 310.199422 310.266387 314.840229 318.052736
19.800000 304.090682 307.758537 312.471851 312.277102 316.746661 319.590735
19.900000 305.783935 309.763204 314.605938 314.227925 318.570781 321.247502
20.000000 307.344801 311.682178 316.539354 316.116135 320.357791 322.862502
20.133333 310.222580 314.232132 318.587221 318.331292 322.243107 324.435260
20.266667 313.078669 317.119036 320.784432 320.539307 324.040642 326.299558
20.400000 316.872025 320.144692 322.878201 322.790476 325.696978 327.774604
20.500000 320.276882 322.529855 324.779449 324.771299 327.193162 329.088854
20.600000 322.379463 324.561483 326.569555 326.519836 328.624903 330.256310
20.700000 324.078014 326.176251 328.282353 328.134808 330.042067 331.575178
20.800000 325.852971 327.955926 329.924008 329.772326 331.584204 332.933006
20.900000 327.764618 329.687016 331.475284 331.368476 332.998598 334.289387
21.000000 329.635072 331.489863 333.087344 332.969891 334.436714 335.769789
21.100000 331.180006 332.929033 334.395387 334.329828 335.666192 337.013105
21.200000 332.604510 334.266688 335.679744 335.639745 336.926739 338.399756
21.300000 334.532345 335.828132 337.071182 337.157463 338.433506 340.393035
21.400000 335.728929 337.110878 338.380818 338.598498 339.984206 343.052462
21.500000 337.242024 338.438144 339.833882 340.319781 342.036296 346.913342
21.600000 338.554838 339.752944 341.586261 342.278002 344.977498 349.597063
21.700000 340.226854 341.943455 344.500970 344.947758 348.105289 351.389197
21.800000 341.934752 344.191154 347.798952 347.756956 351.316912 353.520929
21.900000 344.064968 347.323890 350.517236 350.353022 353.404471 355.615028
22.000000 346.460775 349.713123 352.809493 352.496128 355.165160 357.049861
22.100000 348.850494 351.765336 354.702113 354.305478 356.717995 358.433488
22.120000 349.219895 352.153040 355.033487 354.655549 357.005240 358.771650
22.220000 351.247554 354.097926 356.541138 356.296644 358.477359 360.156836
22.320000 353.257206 355.758438 357.979253 357.835857 359.916915 361.517061
22.420000 354.638758 357.332954 359.416695 359.304148 361.339082 362.881613
22.520000 356.350688 358.828762 360.894680 360.769388 362.704268 364.564359
22.620000 357.847018 360.362792 362.334526 362.270715 364.113964 366.198632
22.720000 359.452239 361.788674 363.780553 363.779138 365.749359 368.402994
22.820000 361.185623 363.404529 365.206523 365.356900 367.367981 370.201085
22.920000 363.096105 365.056512 366.981690 367.149639 369.516508 372.056788
23.020000 364.360564 366.400541 368.586596 368.738555 371.209754 374.100082
23.120000 365.872602 367.966229 370.150925 370.388468 372.885107 375.993515
23.220000 367.230120 369.391794 371.892823 372.095228 374.774325 377.790170
23.320000 368.610519 371.188228 373.908966 373.941244 376.746724 379.887128
23.420000 370.093062 372.745957 375.740615 375.776422 378.703775 381.409386
23.520000 371.561774 374.463429 377.650153 377.545414 380.620104 382.961456
23.660000 373.836634 376.933200 380.187177 379.949275 382.813461 385.423302
23.760000 375.516816 378.750580 381.883659 381.657313 384.282393 386.975631
23.860000 377.205581 380.513075 383.481716 383.271260 385.841049 388.376064
23.960000 379.259142 382.371963 385.055794 384.939910 387.184667 389.693066
24.060000 381.453241 384.384922 386.828987 386.770730 388.685031 391.350213
24.160000 383.548249 386.541157 388.526681 388.508645 390.135253 393.174603
24.260000 385.991025 388.415722 390.185973 390.276024 391.788379 394.846756
24.360000 388.418474 390.446562 392.131144 392.257475 393.791639 396.325983
24.460000 391.107748 392.771850 394.312392 394.449985 395.989586 397.946735
24.560000 393.471013 395.168277 396.906416 396.920537 398.357728 400.558105
24.660000 397.222219 398.752063 400.239335 400.671291 402.479684 407.031684
24.760000 399.691725 401.049284 403.100635 403.515480 405.893798 409.571622
24.860000 401.459234 403.203109 405.849428 406.056988 408.950451 412.208878
24.960000 403.126832 405.256225 408.453269 408.427703 411.429755 414.041801
25.060000 404.932053 407.539281 410.684982 410.556196 413.500964 415.691117
25.120000 405.967999 408.945988 411.877629 411.790968 414.665550 416.795321
25.220000 408.477245 411.277306 413.850926 413.818844 416.440873 418.476423
25.320000 410.376273 413.419712 415.627183 415.755169 418.298924 420.592346
25.420000 413.033758 415.651494 417.992643 418.042796 420.519979 423.220423
25.520000 416.724418 419.116836 421.854093 421.818490 424.485120 426.949360
25.620000 423.584986 426.611548 428.729660 428.596766 430.652727 432.601449
25.720000 427.601662 429.425076 431.109635 431.123513 432.779552 434.932544
25.820000 429.373682 431.062439 432.823873 432.881377 434.575379 436.795361
25.920000 430.906149 432.611723 434.436552 434.456506 436.176672 438.731403
26.020000 432.366661 434.128653 435.918531 435.980223 437.795405 440.449632
26.120000 433.758095 435.577330 437.319313 437.449133 439.328695 441.879294
26.220000 435.096340 437.080465 438.801330 438.939725 440.844591 443.239115
26.320000 436.570329 438.455907 440.270731 440.410100 442.293716 445.038271
26.420000 438.355653 440.018077 441.829451 442.040004 443.916517 446.997269
26.520000 440.206036 441.802522 443.601024 443.930693 445.972050 449.855161
26.620000 442.049599 443.816510 445.904941 446.410188 448.965548 453.410962
26.760000 444.945229 446.903062 449.944708 450.405961 454.000434 458.309280
