depth(m) lower_95(kyr) lower_68(kyr) median(kyr) mean(kyr) upper_68(kyr) upper_95(kyr)
0.015000 0.035998 0.191030 0.630132 0.719058 1.228663 1.996835
0.025000 0.105293 0.272238 0.714963 0.794050 1.304065 2.070964
0.035000 0.168978 0.343993 0.784367 0.868942 1.382760 2.128702
0.045000 0.227204 0.406487 0.859612 0.942184 1.461467 2.201976
0.055000 0.276770 0.469428 0.932489 1.013513 1.543605 2.334662
0.065000 0.331320 0.533004 1.003663 1.086575 1.628391 2.407087
0.075000 0.381841 0.593615 1.069442 1.159426 1.709827 2.586421
0.085000 0.442879 0.662430 1.144059 1.229019 1.796196 2.696588
0.095000 0.494976 0.732637 1.215759 1.301376 1.871649 2.779938
0.105000 0.535794 0.789167 1.283411 1.372224 1.968039 2.842694
0.115000 0.584625 0.847253 1.340243 1.443026 2.032916 2.948786
0.125000 0.641632 0.927258 1.401758 1.515755 2.121695 3.056674
0.135000 0.695605 0.982410 1.464166 1.587333 2.203085 3.136659
0.145000 0.748316 1.052353 1.527853 1.658561 2.284891 3.291799
0.155000 0.792563 1.115812 1.594213 1.728653 2.375000 3.380095
0.165000 0.835613 1.172739 1.660990 1.799112 2.463676 3.502315
0.175000 0.877145 1.239952 1.717827 1.867353 2.531965 3.578688
0.185000 0.923539 1.298029 1.786039 1.937607 2.643872 3.636612
0.195000 0.973488 1.372547 1.848851 2.005724 2.730114 3.715206
0.205000 1.029532 1.424457 1.915798 2.076341 2.829976 3.839681
0.215000 1.089895 1.491348 1.977148 2.146557 2.913840 3.966024
0.225000 1.138464 1.562213 2.042836 2.216003 3.000454 4.057585
0.235000 1.201310 1.630013 2.106869 2.291198 3.091572 4.189659
0.245000 1.257762 1.698658 2.178732 2.365831 3.194601 4.269357
0.255000 1.309798 1.766044 2.258998 2.437629 3.261471 4.322729
0.265000 1.372033 1.838060 2.339813 2.509984 3.347930 4.394666
0.275000 1.426935 1.898542 2.402115 2.580182 3.430759 4.462317
0.285000 1.483605 1.956699 2.462257 2.653716 3.532493 4.532773
0.295000 1.555123 2.019232 2.529308 2.728154 3.603356 4.609023
0.305000 1.617727 2.079466 2.602418 2.802380 3.696717 4.710338
0.315000 1.669778 2.151249 2.686898 2.875359 3.801378 4.790360
0.325000 1.719230 2.220676 2.767199 2.949869 3.876711 4.843034
0.435000 2.333757 2.817018 3.523823 3.729118 4.770558 5.710446
0.445000 2.434973 2.881427 3.608976 3.805710 4.855057 5.792227
0.455000 2.502874 2.951506 3.686711 3.881272 4.936933 5.861817
0.465000 2.569784 3.020211 3.760993 3.956742 4.992510 5.965758
0.475000 2.619343 3.083517 3.850219 4.033082 5.113709 6.057134
0.485000 2.684442 3.145102 3.954617 4.112612 5.191520 6.079151
0.495000 2.741101 3.209668 4.039343 4.191463 5.257184 6.135132
0.505000 2.814464 3.272217 4.136874 4.274093 5.331341 6.197924
0.515000 2.878968 3.341067 4.208135 4.355453 5.410552 6.264976
0.525000 2.925837 3.435615 4.331430 4.438100 5.477690 6.326715
0.535000 2.970261 3.488215 4.413002 4.514643 5.561825 6.389127
0.545000 3.024718 3.570775 4.505721 4.597288 5.646243 6.453466
0.555000 3.075148 3.644288 4.596715 4.681787 5.735477 6.543291
0.565000 3.123963 3.730463 4.654845 4.761202 5.805901 6.618294
0.575000 3.194231 3.798210 4.741262 4.842545 5.872354 6.683460
0.585000 3.247202 3.870875 4.825764 4.921570 5.938620 6.790395
0.595000 3.307272 3.947577 4.917788 5.006513 6.013757 6.888926
0.605000 3.356728 4.038921 5.009073 5.086085 6.086077 6.963847
0.615000 3.389494 4.127606 5.097826 5.170032 6.171718 7.082519
0.625000 3.449649 4.210404 5.160950 5.253086 6.250522 7.165009
0.635000 3.508712 4.306136 5.241365 5.336026 6.338232 7.265365
0.645000 3.561551 4.389876 5.323281 5.416493 6.415276 7.332837
0.655000 3.619009 4.474875 5.406971 5.496485 6.498496 7.388979
0.665000 3.672248 4.573913 5.492847 5.580374 6.575579 7.469961
0.675000 3.723394 4.686442 5.574798 5.667551 6.639810 7.539669
0.685000 3.771947 4.799845 5.673644 5.748604 6.712619 7.588328
0.695000 3.881200 4.907751 5.750447 5.832805 6.773160 7.648614
0.705000 3.943586 5.007737 5.840246 5.916605 6.856394 7.720665
0.715000 3.995019 5.078111 5.932985 5.995697 6.926458 7.795768
0.725000 4.068279 5.184570 6.049486 6.079323 6.988822 7.847840
0.735000 4.143421 5.313097 6.145503 6.161851 7.062109 7.918009
0.745000 4.226556 5.410711 6.235581 6.246065 7.136832 7.999054
0.755000 4.342673 5.497764 6.315870 6.324883 7.235081 8.041210
0.765000 4.417642 5.571953 6.407080 6.405627 7.328545 8.102114
0.775000 4.501688 5.638896 6.481710 6.483554 7.421560 8.155386
0.785000 4.597068 5.708474 6.594300 6.558934 7.502517 8.233965
0.795000 4.678118 5.802671 6.682193 6.636544 7.577267 8.293486
0.805000 4.787454 5.872149 6.770936 6.711592 7.655058 8.344726
0.815000 4.846261 5.993121 6.845825 6.784695 7.729999 8.400553
0.825000 4.938023 6.070545 6.925696 6.857538 7.802173 8.441109
0.835000 5.014614 6.131051 7.021975 6.930947 7.861468 8.502596
0.845000 5.069038 6.197290 7.108759 7.002658 7.934828 8.555285
0.855000 5.150881 6.257134 7.177065 7.076065 7.992726 8.605919
0.865000 5.214120 6.313090 7.249839 7.141983 8.049049 8.658351
0.875000 5.303224 6.380154 7.310031 7.208421 8.108199 8.716863
0.885000 5.388450 6.440561 7.382314 7.281160 8.173107 8.773198
0.895000 5.464715 6.494097 7.435715 7.348114 8.229002 8.860528
0.905000 5.547001 6.551901 7.502337 7.416230 8.291502 8.924438
0.915000 5.616953 6.608565 7.571245 7.485673 8.376261 8.962991
0.925000 5.704508 6.655468 7.639109 7.556862 8.440187 9.030605
0.935000 5.759180 6.727811 7.711395 7.630238 8.525749 9.084517
0.945000 5.855563 6.789755 7.779252 7.699158 8.568111 9.135813
0.955000 5.964865 6.859147 7.845883 7.769266 8.633524 9.202201
0.965000 6.058476 6.912215 7.919831 7.837179 8.692543 9.241907
0.985000 6.167933 7.052072 8.054998 7.986598 8.869613 9.432305
0.995000 6.240611 7.123535 8.121274 8.058453 8.947119 9.501542
1.005000 6.326118 7.193986 8.194648 8.130833 9.037675 9.568597
1.015000 6.413700 7.279600 8.275664 8.207741 9.114459 9.672415
1.025000 6.480555 7.351839 8.345105 8.282390 9.215592 9.737483
1.035000 6.548443 7.434158 8.427915 8.357487 9.280743 9.809966
1.045000 6.599796 7.518629 8.502759 8.431680 9.339591 9.866802
1.055000 6.714773 7.581949 8.569944 8.506336 9.399883 9.925708
1.065000 6.789302 7.671993 8.658954 8.586014 9.482905 10.001367
1.075000 6.860222 7.764050 8.753036 8.666109 9.546805 10.071785
1.085000 6.953634 7.855885 8.836815 8.744161 9.597286 10.131921
1.095000 7.116456 7.914012 8.918958 8.829016 9.667162 10.224048
1.105000 7.231010 8.043193 9.012182 8.915274 9.733667 10.317771
1.115000 7.304930 8.118279 9.085825 9.005007 9.805065 10.422001
1.125000 7.398296 8.234198 9.178242 9.094917 9.889950 10.516564
1.135000 7.462865 8.318750 9.249324 9.182465 9.972763 10.635194
1.145000 7.555210 8.431187 9.348142 9.278475 10.064352 10.700281
1.155000 7.680846 8.601044 9.423163 9.371722 10.148195 10.818175
1.165000 7.788353 8.737117 9.529059 9.470378 10.231660 10.923101
1.175000 7.952776 8.826100 9.610890 9.571238 10.316302 11.055998
1.185000 8.043183 8.922701 9.713136 9.675002 10.420718 11.165195
1.195000 8.187098 9.048103 9.816906 9.782457 10.506715 11.257070
1.205000 8.296572 9.149001 9.908072 9.888655 10.599634 11.351232
1.215000 8.445519 9.264323 10.023282 9.998419 10.699057 11.484746
1.225000 8.552554 9.383504 10.141325 10.113557 10.802243 11.582033
1.235000 8.640250 9.515725 10.253467 10.223925 10.906991 11.678665
1.245000 8.737812 9.652713 10.370561 10.340823 11.010318 11.760483
1.255000 8.858646 9.772121 10.489151 10.459343 11.155078 11.852785
1.265000 8.996694 9.898714 10.622162 10.582018 11.293531 11.942546
1.275000 9.093522 10.041823 10.725452 10.699310 11.435995 12.049738
1.285000 9.261250 10.140202 10.833051 10.827701 11.590522 12.147737
1.295000 9.385566 10.237326 10.958213 10.955748 11.734315 12.282326
1.305000 9.507831 10.388385 11.063326 11.089298 11.878000 12.413555
1.315000 9.641610 10.503869 11.171222 11.222905 11.996445 12.601010
1.325000 9.800945 10.621789 11.304060 11.350955 12.145512 12.743145
1.335000 9.937811 10.730866 11.452678 11.485246 12.261198 12.867945
1.345000 10.116808 10.847822 11.599770 11.620641 12.394942 13.010074
1.355000 10.304892 10.984626 11.727467 11.755879 12.535310 13.135956
1.365000 10.484194 11.102742 11.871558 11.899820 12.690456 13.247249
1.375000 10.654867 11.233339 12.007074 12.036204 12.827516 13.391930
1.385000 10.769479 11.351957 12.151931 12.169482 12.964009 13.512780
1.395000 10.894155 11.451177 12.321441 12.296781 13.086800 13.598146
1.405000 11.011752 11.581053 12.467256 12.425551 13.223992 13.736907
1.415000 11.171136 11.670830 12.640957 12.556761 13.355942 13.839528
1.425000 11.252026 11.798160 12.762943 12.677858 13.489690 13.947193
1.435000 11.366239 11.915204 12.871110 12.802333 13.606231 14.052895
1.445000 11.471970 12.070984 13.007995 12.930404 13.722638 14.164678
1.455000 11.590166 12.180718 13.143826 13.050541 13.835725 14.274532
1.465000 11.708290 12.294952 13.264497 13.171839 13.931488 14.461708
1.475000 11.775964 12.402216 13.405646 13.288163 14.025466 14.564740
1.485000 11.929962 12.516707 13.507899 13.405265 14.150601 14.675212
1.495000 12.045185 12.629005 13.625636 13.520912 14.270836 14.812456
1.505000 12.183275 12.775914 13.733800 13.634502 14.379485 14.913285
1.515000 12.312068 12.914137 13.836419 13.747497 14.489797 15.050440
1.525000 12.442840 13.025288 13.942377 13.856923 14.567009 15.145902
1.535000 12.584326 13.166659 14.030976 13.965046 14.655418 15.250893
1.545000 12.674573 13.300401 14.132648 14.066737 14.735916 15.330122
1.555000 12.765519 13.422472 14.215757 14.164149 14.824075 15.411439
1.565000 12.836592 13.556769 14.309212 14.262645 14.882858 15.515408
1.575000 12.949997 13.700481 14.402728 14.366269 14.969421 15.615064
1.585000 13.103715 13.828355 14.502813 14.473657 15.072732 15.705387
1.595000 13.252236 13.956968 14.608878 14.575070 15.162938 15.805611
1.605000 13.384384 14.087493 14.706652 14.677986 15.269666 15.881342
1.615000 13.517623 14.191798 14.809619 14.781873 15.363367 15.954591
1.625000 13.612697 14.302172 14.906392 14.884150 15.475162 16.042936
1.635000 13.703714 14.416715 15.012433 14.988132 15.569258 16.104493
1.645000 13.844346 14.557647 15.106669 15.090799 15.653456 16.190410
1.655000 14.013936 14.654942 15.197855 15.186135 15.725172 16.277022
1.665000 14.133465 14.767553 15.286436 15.282530 15.823238 16.340468
1.675000 14.246279 14.865033 15.369433 15.377641 15.934944 16.417511
1.685000 14.392953 14.973616 15.470646 15.475646 16.026172 16.479616
1.695000 14.546477 15.073608 15.554880 15.575735 16.121702 16.575926
1.705000 14.683128 15.175367 15.652082 15.679424 16.224964 16.662638
1.715000 14.777697 15.257991 15.737229 15.777156 16.313834 16.795052
1.725000 14.904278 15.351525 15.850938 15.877288 16.428502 16.911024
1.735000 15.040849 15.461840 15.939438 15.981120 16.536177 17.096407
1.745000 15.152996 15.570285 16.027379 16.080367 16.633113 17.184956
1.755000 15.274247 15.671160 16.126798 16.179121 16.731020 17.294283
1.765000 15.355939 15.765117 16.218940 16.277517 16.819008 17.440130
1.775000 15.458421 15.857246 16.302639 16.371588 16.890846 17.532712
1.785000 15.523910 15.955890 16.401248 16.460888 16.974672 17.622343
1.795000 15.579250 16.034794 16.500944 16.544882 17.053015 17.704629
1.805000 15.638083 16.112626 16.580755 16.627611 17.130873 17.795387
1.815000 15.719523 16.204218 16.653637 16.703998 17.209848 17.876936
1.825000 15.782844 16.278909 16.733855 16.776968 17.311125 17.959263
1.835000 15.856212 16.338309 16.788749 16.848309 17.381171 18.056519
1.845000 15.933216 16.397663 16.870721 16.919826 17.484446 18.122076
1.855000 15.985616 16.452153 16.936934 16.990090 17.565608 18.189933
1.865000 16.056732 16.502798 17.008919 17.058459 17.645314 18.261785
1.875000 16.117692 16.567709 17.084121 17.125731 17.741075 18.328581
1.885000 16.189060 16.619083 17.147494 17.192086 17.816070 18.413863
1.895000 16.234198 16.678111 17.229357 17.258020 17.890076 18.518006
1.905000 16.303109 16.733069 17.287214 17.320974 17.948643 18.573209
1.915000 16.354729 16.789535 17.354176 17.382730 18.025751 18.645850
1.925000 16.408848 16.851010 17.426802 17.447397 18.086827 18.715115
1.935000 16.456497 16.912498 17.490894 17.510724 18.155549 18.807030
1.945000 16.502483 16.963600 17.556083 17.573574 18.223363 18.868325
1.955000 16.554819 17.019858 17.614855 17.635537 18.315478 18.924496
1.965000 16.610903 17.071216 17.693355 17.694476 18.380772 19.023957
1.975000 16.645211 17.130468 17.753559 17.755022 18.459008 19.100413
1.985000 16.698947 17.193300 17.811279 17.815035 18.525134 19.182774
1.995000 16.752259 17.246095 17.876732 17.872835 18.595547 19.243426
2.005000 16.821171 17.297716 17.917312 17.930288 18.671005 19.288390
2.025000 16.911542 17.396708 18.016963 18.033771 18.780936 19.401372
2.045000 17.030632 17.482506 18.106407 18.136979 18.880991 19.504463
2.065000 17.187299 17.584264 18.215639 18.240090 18.989133 19.595980
2.085000 17.270382 17.677121 18.303520 18.344820 19.105790 19.713482
2.105000 17.353172 17.782110 18.398503 18.447620 19.226784 19.829322
2.125000 17.495630 17.890554 18.483376 18.551521 19.345795 19.950540
2.145000 17.610626 17.980400 18.570303 18.655205 19.453095 20.045588
2.165000 17.703229 18.083005 18.659924 18.758039 19.569713 20.147922
2.185000 17.810842 18.171760 18.760097 18.862468 19.672085 20.245096
2.205000 17.925300 18.258029 18.848176 18.966234 19.792243 20.338020
2.225000 18.008761 18.355720 18.942044 19.070493 19.900657 20.452155
2.245000 18.114594 18.484062 19.038542 19.178198 20.003630 20.594762
2.265000 18.227833 18.569904 19.138211 19.282985 20.106232 20.714491
2.285000 18.330585 18.677279 19.224646 19.388709 20.205308 20.857576
2.305000 18.416599 18.758090 19.330358 19.493727 20.317575 20.956134
2.325000 18.528459 18.857994 19.423549 19.600766 20.428638 21.077159
2.345000 18.629129 18.962250 19.517700 19.707770 20.538381 21.262140
2.365000 18.733119 19.056527 19.610231 19.815715 20.662965 21.436599
2.385000 18.844844 19.185350 19.707699 19.923830 20.774712 21.558254
2.405000 18.948855 19.280241 19.811604 20.030068 20.880927 21.693091
2.425000 19.047891 19.376647 19.912335 20.137617 20.993493 21.818567
2.445000 19.140345 19.462467 20.009860 20.246899 21.102535 21.967130
2.465000 19.239847 19.571496 20.118624 20.353104 21.209813 22.109734
2.485000 19.338640 19.673308 20.219302 20.460415 21.308742 22.283088
2.505000 19.437590 19.785289 20.312451 20.566994 21.409316 22.393923
2.525000 19.542985 19.880426 20.411990 20.675408 21.517266 22.549153
2.545000 19.636178 19.976283 20.516587 20.785211 21.613610 22.668018
2.565000 19.742541 20.078731 20.617029 20.894009 21.725257 22.758679
2.585000 19.837916 20.185251 20.744890 21.003756 21.821612 22.885214
2.605000 19.945036 20.301787 20.856462 21.116884 21.943675 23.035890
2.625000 20.040511 20.426314 20.964960 21.229806 22.074034 23.115175
2.645000 20.150740 20.540393 21.089308 21.342374 22.176489 23.255848
2.665000 20.268411 20.659076 21.211127 21.456163 22.287467 23.372854
2.685000 20.364137 20.782477 21.328541 21.572549 22.387307 23.491084
2.705000 20.450304 20.896191 21.455192 21.688987 22.506494 23.638345
2.725000 20.533909 21.007147 21.575977 21.802686 22.640124 23.751534
2.745000 20.640167 21.117898 21.698417 21.917192 22.776261 23.848645
2.765000 20.726505 21.221889 21.832204 22.033871 22.886481 23.948554
2.785000 20.829921 21.332702 21.964993 22.152521 23.010751 24.053982
2.805000 20.931651 21.443216 22.095634 22.272392 23.157124 24.159207
2.825000 21.061341 21.560110 22.211880 22.389995 23.238745 24.292963
2.845000 21.175504 21.664963 22.336276 22.514016 23.362978 24.482132
2.865000 21.284215 21.767535 22.459651 22.634408 23.502494 24.596573
2.885000 21.392197 21.886113 22.586980 22.754886 23.662105 24.742680
2.905000 21.508941 22.011295 22.724196 22.883481 23.832244 24.897827
2.925000 21.589947 22.139870 22.848360 23.011214 23.977994 25.013712
2.945000 21.710195 22.279150 22.969853 23.138417 24.133246 25.209932
2.965000 21.829991 22.413508 23.090082 23.270333 24.269790 25.364606
2.985000 21.935094 22.532523 23.227371 23.402424 24.436102 25.504825
3.005000 22.070669 22.649319 23.365973 23.536512 24.550439 25.635556
3.025000 22.240443 22.760835 23.507609 23.670915 24.674076 25.789647
3.045000 22.378671 22.892868 23.689671 23.805453 24.801240 25.930557
3.065000 22.461205 23.033378 23.806522 23.937599 24.936433 26.089400
3.085000 22.603665 23.149594 23.949202 24.074031 25.069143 26.257079
3.105000 22.725103 23.279043 24.085475 24.208645 25.196682 26.397419
3.125000 22.831598 23.396908 24.235265 24.340872 25.329492 26.523719
3.145000 22.930795 23.541582 24.378013 24.476655 25.459769 26.663881
3.165000 23.041117 23.687377 24.495831 24.612523 25.598251 26.799015
3.185000 23.149451 23.811094 24.619714 24.750438 25.774797 26.935653
3.205000 23.265289 23.970794 24.735575 24.882695 25.921998 27.057700
3.225000 23.386567 24.133353 24.858234 25.016247 26.069349 27.189493
3.245000 23.501980 24.247134 24.989127 25.149022 26.208443 27.318010
3.265000 23.613099 24.361902 25.112380 25.286746 26.350404 27.467904
3.285000 23.687845 24.488675 25.258381 25.426206 26.511261 27.592788
3.305000 23.806610 24.612017 25.402573 25.566498 26.678803 27.709743
3.325000 23.921302 24.757031 25.538587 25.705625 26.846149 27.873854
3.345000 24.007683 24.899887 25.658381 25.842901 27.050690 27.970796
3.365000 24.116844 25.035701 25.784849 25.982914 27.211107 28.073936
3.385000 24.231838 25.161867 25.929514 26.124071 27.335527 28.224649
3.405000 24.335730 25.277717 26.060240 26.267211 27.530091 28.510363
3.425000 24.444882 25.400907 26.188229 26.407359 27.677802 28.693788
3.445000 24.580017 25.519397 26.346012 26.545414 27.857559 28.816278
3.465000 24.691915 25.643224 26.504301 26.683109 28.020946 29.014470
3.485000 24.806292 25.781332 26.661533 26.822925 28.200348 29.145143
3.505000 24.896897 25.902216 26.799272 26.965147 28.363400 29.292863
3.525000 25.015252 26.041480 26.951114 27.111096 28.545227 29.477556
3.545000 25.145346 26.158209 27.095627 27.251457 28.681642 29.637068
3.565000 25.245049 26.337963 27.228794 27.397357 28.797366 29.915044
3.585000 25.395180 26.483151 27.381999 27.550223 28.926754 30.158120
3.605000 25.524479 26.585900 27.549546 27.706012 29.042258 30.379676
3.625000 25.659483 26.763567 27.718332 27.860996 29.168904 30.597083
3.645000 25.845268 26.893435 27.895566 28.020445 29.291103 30.786635
3.665000 26.001738 27.031701 28.046138 28.174320 29.396466 30.958718
3.685000 26.168530 27.161334 28.223475 28.333600 29.499775 31.143164
3.705000 26.373065 27.279502 28.374808 28.493201 29.615751 31.346209
3.725000 26.536321 27.398557 28.567540 28.661719 29.721278 31.563748
3.745000 26.695473 27.545885 28.730200 28.841384 29.850440 31.797710
3.765000 26.847609 27.695488 28.915446 29.007509 29.953353 31.965583
3.785000 27.021470 27.837536 29.095522 29.177369 30.089900 32.206331
3.805000 27.223132 27.996601 29.302868 29.350232 30.232661 32.478176
3.825000 27.363935 28.152310 29.479175 29.526616 30.394302 32.712016
3.845000 27.614128 28.293092 29.687748 29.706500 30.676371 32.956634
3.865000 27.749473 28.484833 29.897349 29.888070 30.898314 33.203559
3.885000 27.906649 28.703146 30.077585 30.068462 31.145134 33.399372
3.905000 28.075683 28.871106 30.265695 30.259729 31.354233 33.613880
3.925000 28.225958 29.021494 30.432480 30.439978 31.542943 33.876391
3.945000 28.357039 29.215760 30.567704 30.620198 31.917521 34.096258
3.965000 28.540906 29.373709 30.716173 30.803772 32.143331 34.509239
3.985000 28.689448 29.581881 30.838930 30.985522 32.334306 34.800476
4.005000 28.828119 29.790411 30.978100 31.161568 32.563411 35.072622
4.025000 28.952169 29.960939 31.120190 31.343609 32.748535 35.275767
4.045000 29.112318 30.143118 31.255592 31.522110 33.027296 35.412399
4.065000 29.245503 30.313252 31.388883 31.710302 33.214308 35.676470
4.085000 29.430422 30.540820 31.526085 31.894525 33.384678 35.933779
4.105000 29.567401 30.732356 31.652053 32.072997 33.582992 36.140088
4.125000 29.735023 30.964108 31.802208 32.264525 33.813126 36.326400
4.145000 29.880241 31.197167 31.946938 32.460651 34.052436 36.584642
4.165000 30.102667 31.413423 32.116099 32.647601 34.356497 36.784670
4.185000 30.269331 31.581930 32.276792 32.835757 34.629726 36.979048
