depth(m) lower_95(kyr) lower_68(kyr) median(kyr) mean(kyr) upper_68(kyr) upper_95(kyr)
2.430000 98.483566 99.459707 100.403307 100.382297 101.345502 102.220192
2.480000 99.943184 101.035049 102.121101 102.240745 103.428504 105.150437
2.530000 101.316944 102.604724 103.978731 104.290646 106.081219 108.878143
2.580000 102.953600 104.346225 106.287419 106.607308 109.094291 111.689689
2.630000 104.797581 106.410034 109.049328 109.159899 112.018557 113.369500
2.680000 106.676686 109.029560 112.387100 111.799852 114.021823 115.166131
2.730000 109.646502 113.122203 114.733081 114.426346 115.968425 117.125011
2.780000 113.790762 115.375336 116.642890 116.565130 117.841594 119.134991
2.830000 116.362523 117.612253 118.834173 118.884956 120.104716 121.810492
2.880000 118.501533 119.643171 121.069016 121.092249 122.576630 124.065547
2.930000 119.973108 121.324405 123.097810 123.041739 124.685234 126.208167
2.980000 121.483315 123.284077 125.198444 125.016548 126.568572 127.928576
3.030000 123.260734 125.780565 127.097877 127.043392 128.381424 129.835731
3.080000 125.522362 127.325938 128.663353 128.673693 130.214008 131.406914
3.130000 128.165579 129.389300 130.668727 130.685927 132.074273 133.247538
3.180000 129.736308 131.250090 132.613087 132.536617 133.753083 134.740454
3.230000 132.014367 133.603552 134.773837 134.738406 135.895748 136.961022
3.280000 134.090824 135.343521 136.492159 136.491795 137.622671 138.989385
3.330000 135.652824 136.810584 137.936480 137.983608 139.151301 140.630666
3.380000 137.048771 138.161374 139.315910 139.389470 140.530576 142.260183
3.430000 138.412325 139.507958 140.696238 140.826789 142.119965 144.203958
3.480000 139.709494 140.895610 142.116109 142.454206 143.978800 146.899054
3.530000 141.332743 142.490380 143.929853 144.485916 146.466050 151.028151
3.580000 142.570016 143.738216 145.640466 146.402666 149.537000 153.849407
3.630000 143.731191 145.074871 147.353958 148.281453 152.274902 156.155702
3.680000 145.036126 146.347189 149.093474 150.189094 155.096471 158.218784
3.730000 146.350798 147.770437 151.104481 152.097471 157.200495 160.335231
3.780000 147.535173 149.208519 152.920771 153.901284 159.346781 162.621932
3.830000 148.759230 150.662414 154.627813 155.672079 161.282527 164.770404
3.880000 150.406948 152.550778 156.650758 157.564329 163.106320 166.698247
3.930000 152.236754 154.447633 158.806468 159.520869 164.719712 168.296713
3.980000 154.346712 157.098891 160.985233 161.636743 166.660875 170.103530
4.030000 156.426903 159.916404 164.018610 164.294872 168.980049 171.886333
4.080000 159.025624 162.392394 166.965608 167.020477 171.786848 174.471209
4.130000 161.131271 164.358149 169.167472 169.085323 173.838293 176.455064
4.180000 162.571374 166.305136 171.761958 171.240855 175.959680 178.036420
4.230000 164.075152 167.912849 174.232276 173.195635 177.670833 179.707601
4.280000 165.571914 169.598191 176.412545 175.032741 179.313820 181.252641
4.330000 166.872985 171.612651 178.071317 176.862375 180.859377 182.695745
4.380000 168.651133 174.352434 179.640962 178.627206 182.320102 184.080808
4.430000 170.322152 177.278748 181.280439 180.430993 183.881190 185.407237
4.480000 173.265685 179.237325 182.844932 182.179045 185.237020 186.485300
4.530000 176.285478 181.061942 184.542391 183.849097 186.586736 187.753933
4.580000 178.970245 182.943490 186.200695 185.495217 187.878316 188.992564
4.630000 181.689677 185.219012 187.790314 187.254108 189.193693 190.385139
4.680000 184.510553 187.753851 189.382983 189.157837 190.656805 191.892450
4.730000 188.712581 190.161394 191.346632 191.365427 192.654826 194.174236
4.780000 190.709460 191.801575 193.075571 193.168296 194.607147 195.890755
4.830000 192.215182 193.532248 195.058632 195.011251 196.369049 197.576716
4.880000 194.070911 195.590911 197.107042 197.082212 198.391300 200.124464
4.930000 196.327997 197.971324 199.263909 199.306261 200.687117 202.539861
4.980000 198.328537 199.615848 200.994402 201.159112 202.689139 205.055509
5.030000 199.794942 201.074478 202.750358 203.001998 205.071238 207.399973
5.080000 201.138003 202.813775 204.941153 205.048888 207.457230 209.278513
5.130000 202.643654 204.620237 207.238781 207.070113 209.224054 210.593621
5.180000 204.608330 207.125514 209.427111 209.083935 210.882623 212.056137
5.230000 206.507100 209.434533 211.207764 210.945669 212.513578 213.662180
5.280000 208.012370 211.324560 212.861975 212.609527 214.024315 214.992411
5.330000 209.754150 212.902029 214.340173 214.119972 215.539210 216.480052
5.380000 211.180091 214.232333 215.811826 215.587471 217.132148 218.022690
5.430000 213.302623 215.685207 217.142600 217.032234 218.513064 219.496220
5.480000 215.789412 217.519459 218.944448 218.960779 220.356805 221.985587
5.530000 218.740300 219.981877 221.468994 221.625264 223.292638 225.114469
5.580000 220.224863 221.837095 223.662365 223.710256 225.610742 227.173184
5.630000 221.677808 223.594759 225.677254 225.550785 227.423573 228.875664
5.680000 223.021975 225.256857 227.519939 227.258143 229.131493 230.277316
5.730000 224.875238 226.974879 228.964371 228.768904 230.552230 231.561095
5.780000 226.599921 228.647539 230.540440 230.331775 231.954726 233.073114
5.830000 228.627177 230.510158 232.096304 231.932453 233.344024 234.310976
5.880000 231.043024 232.650762 233.976985 233.872897 235.047787 235.968258
5.930000 233.489601 234.933925 236.089647 236.073657 237.159710 238.712767
5.980000 236.009432 237.027541 238.158668 238.235722 239.392058 240.876102
6.030000 237.742412 238.895656 240.200892 240.202969 241.494722 242.816336
6.080000 239.604829 240.931706 242.308593 242.241458 243.500268 244.652312
6.130000 241.468610 242.801647 244.082344 244.038337 245.272688 246.475439
6.180000 243.407888 244.811801 246.048689 246.059089 247.367823 248.696837
6.230000 245.494411 246.707492 248.067214 248.168921 249.606570 251.560124
6.280000 247.068061 248.392243 250.074079 250.184992 251.904724 254.085947
6.330000 248.737554 250.079173 251.820445 251.973270 253.858997 255.961237
6.380000 250.080003 251.700417 253.515541 253.705684 255.847023 258.088338
6.430000 251.660815 253.216818 255.112477 255.413933 257.735731 260.031871
6.480000 253.341358 254.924664 256.918224 257.166016 259.526472 261.860516
6.530000 254.703355 256.517043 258.562281 258.816229 261.371835 263.419053
6.580000 256.141133 257.916934 260.287193 260.444262 263.215506 264.907732
6.630000 257.637243 259.539324 262.127236 262.158392 264.854976 266.299399
6.680000 259.462480 261.516070 264.190056 263.991177 266.461884 267.876105
6.730000 261.453907 263.901028 266.120338 265.925325 267.960850 269.216504
6.780000 263.600866 266.097007 267.890625 267.721543 269.373761 270.461283
6.830000 266.542146 268.304139 269.614481 269.497226 270.735686 271.795664
6.880000 269.220674 270.227062 271.249151 271.210607 272.184791 273.034815
