depth(m) lower_95(kyr) lower_68(kyr) median(kyr) mean(kyr) upper_68(kyr) upper_95(kyr)
6.080000 98.248638 99.206731 100.149387 100.111538 101.028630 101.776377
6.130000 98.995935 100.003398 100.915272 100.920562 101.862230 102.717095
6.180000 99.698118 100.730981 101.723225 101.723879 102.709792 103.787401
6.230000 100.317498 101.440281 102.517392 102.563208 103.698383 105.112781
6.280000 101.133265 102.166873 103.330652 103.422189 104.685399 106.432875
6.330000 101.864944 102.987653 104.209838 104.390635 105.894371 107.801864
6.380000 102.555032 103.813933 105.275231 105.469195 107.192484 109.226487
6.430000 103.414677 104.777833 106.604043 106.721552 108.810533 110.722980
6.480000 104.707576 105.844011 108.150395 108.155097 110.400411 111.921505
6.530000 105.778335 107.089073 109.677293 109.513096 111.772767 112.950172
6.580000 106.793082 108.629312 111.202244 110.863062 112.786872 113.764790
6.630000 107.911716 110.273968 112.613545 112.128387 113.684235 114.519211
6.680000 109.769315 112.135440 113.718994 113.435978 114.642889 115.475348
6.730000 112.595944 114.101172 114.894609 114.833434 115.659742 116.432741
6.780000 114.247847 115.040186 115.770574 115.774448 116.487917 117.286018
6.830000 115.133801 115.754359 116.485801 116.509256 117.240940 118.143886
6.880000 115.737473 116.376301 117.087498 117.139740 117.915209 118.792931
6.930000 116.251948 116.954838 117.713712 117.763176 118.521997 119.568865
6.980000 116.882351 117.589099 118.388194 118.446108 119.258743 120.481216
7.030000 117.496645 118.203113 119.030053 119.180144 120.031301 121.994855
7.080000 118.142383 118.882297 119.845546 120.156409 121.425979 124.190019
7.130000 118.815192 119.685308 120.795177 121.286304 123.311112 125.669193
7.180000 119.762099 120.661263 122.425334 122.688728 124.945191 126.467466
7.230000 121.061912 122.507165 124.510715 124.387913 126.060913 127.192472
7.280000 122.389510 125.047056 126.212060 126.033514 127.174634 128.116279
7.330000 124.544162 126.078782 127.051970 126.973244 127.975179 128.853437
7.380000 126.071682 126.908534 127.795196 127.812574 128.745286 129.636207
7.430000 126.840813 127.672849 128.525508 128.578480 129.528101 130.408021
7.480000 127.608825 128.375229 129.246882 129.320903 130.335628 131.272703
7.530000 128.432706 129.177104 130.057071 130.133100 131.182104 132.065623
7.580000 129.317981 130.044527 130.981500 131.026929 132.083235 132.858215
7.630000 130.113792 130.929452 131.976898 131.966168 132.974703 133.743064
7.680000 131.104336 132.053598 133.124546 133.056092 134.010130 134.847624
7.730000 132.120916 133.292675 134.307393 134.246307 135.175377 135.987153
7.780000 133.693328 134.795267 135.858963 135.907068 137.038927 138.236723
7.830000 135.028910 136.075564 137.208865 137.250224 138.460947 139.542862
7.880000 135.873860 137.105413 138.386692 138.379002 139.635180 140.844841
7.930000 136.934920 137.992212 139.361477 139.300223 140.492643 141.787449
7.980000 137.711398 138.895859 140.255220 140.215566 141.464436 142.684069
8.030000 138.583536 139.870960 141.186383 141.159910 142.457216 143.740407
8.080000 139.446158 140.758968 142.047604 142.062273 143.412335 144.636190
8.130000 140.222009 141.634560 143.009043 142.987831 144.292886 145.706624
8.180000 141.255000 142.568252 143.877516 143.895534 145.152609 146.705774
8.230000 142.279171 143.585040 144.930041 144.883651 146.179880 147.616472
8.280000 143.399942 144.582208 145.906255 145.908836 147.184110 148.563560
8.330000 144.448468 145.559263 146.838000 146.936642 148.241973 149.731503
8.380000 145.407847 146.570714 147.848284 147.892408 149.209724 150.850165
8.430000 146.422620 147.535076 148.780053 148.867883 150.214293 151.766032
8.480000 147.319876 148.521271 149.741655 149.840891 151.217035 152.610787
8.530000 148.291431 149.438027 150.747348 150.790010 152.126520 153.604452
8.580000 149.242342 150.389581 151.744860 151.789738 153.226488 154.562783
8.630000 150.096602 151.485013 152.864474 152.867760 154.299462 155.691369
8.680000 151.096035 152.676423 154.094636 154.102492 155.555242 157.093000
8.730000 152.359599 153.861293 155.269339 155.283540 156.705114 158.290546
8.780000 153.492452 155.076967 156.461308 156.460912 157.931453 159.378309
8.830000 154.711271 156.174811 157.624804 157.606876 159.109504 160.356160
8.880000 155.679190 157.307692 158.830493 158.787794 160.294553 161.734868
8.930000 156.797755 158.546647 160.141564 160.108114 161.756489 163.103117
8.980000 158.052652 159.687845 161.486752 161.449490 163.185164 164.672853
9.030000 159.205267 160.816264 162.580614 162.574416 164.330001 165.992603
9.080000 160.184904 161.802320 163.559520 163.578890 165.410809 166.971574
9.130000 160.999399 162.644168 164.517061 164.511566 166.391435 168.090889
9.180000 161.780922 163.415622 165.410861 165.400489 167.290260 169.018838
9.230000 162.520310 164.329141 166.323902 166.334035 168.261885 170.166713
9.280000 163.400625 165.252317 167.392334 167.330796 169.279011 171.219859
9.330000 164.602495 166.356410 168.567056 168.477810 170.310000 172.781811
9.380000 165.664489 167.617037 169.782223 169.810951 171.843074 174.481118
9.430000 166.909326 168.947487 171.341541 171.383454 173.667183 176.161495
9.480000 168.078981 170.194747 172.745621 172.832254 175.504717 177.849851
9.530000 169.342976 171.542738 174.157740 174.244270 177.063592 179.356407
9.580000 171.209441 173.092377 175.652506 175.672077 178.219267 180.559487
9.630000 172.717048 174.718622 177.123433 177.123615 179.434935 181.908615
9.680000 174.286516 176.512844 178.599513 178.613728 180.744593 183.123578
9.730000 175.546173 178.004265 180.007669 180.019391 182.037040 184.010666
9.780000 177.115081 179.471212 181.535170 181.418837 183.345104 184.973611
9.830000 178.535316 180.828475 182.933712 182.752310 184.535613 185.865017
9.880000 180.103385 182.285070 184.325354 184.092116 185.820012 186.987163
9.930000 181.599540 183.761528 185.635288 185.387565 186.936371 187.931315
9.980000 183.342659 185.438398 186.848418 186.658028 187.943730 188.853183
10.030000 185.226312 186.921286 188.046874 187.958871 189.068938 189.824922
10.080000 187.516927 188.475199 189.358384 189.328662 190.182819 191.005080
10.130000 189.086280 189.804818 190.588542 190.583188 191.350555 192.111606
