depth(m) lower_95(kyr) lower_68(kyr) median(kyr) mean(kyr) upper_68(kyr) upper_95(kyr)
13.480000 98.959999 99.856757 100.849091 100.849242 101.881657 102.680438
13.520000 99.709203 100.680392 101.782533 101.873052 103.036581 104.492359
13.550000 100.223121 101.302251 102.642864 102.644782 103.971519 105.377861
13.600000 101.307998 102.515691 103.985712 104.028344 105.521342 107.073954
13.650000 102.309090 103.797687 105.273226 105.259768 106.816749 108.293189
13.700000 103.399178 104.947728 106.372250 106.430365 107.998448 109.494423
13.750000 104.548590 106.050791 107.496963 107.540703 109.130392 110.627275
13.800000 105.713566 107.070426 108.573548 108.593022 110.093483 111.500504
13.850000 106.854876 108.273599 109.720530 109.676107 111.104621 112.348001
13.900000 107.758811 109.223870 110.773794 110.718511 112.146598 113.299833
13.950000 108.607841 110.270778 112.052850 111.896451 113.489338 114.595787
14.000000 109.655468 111.322905 113.104725 113.061653 114.846525 116.113869
14.050000 111.003434 112.453857 114.029982 114.061426 115.751729 117.020100
14.100000 112.659974 113.855013 115.244530 115.262334 116.648265 117.799182
14.150000 114.567848 115.685598 116.898949 116.831647 117.949231 118.808644
14.200000 115.994700 117.019990 118.023190 118.002116 118.955251 119.801917
14.250000 117.206490 118.007696 118.912190 118.886198 119.726840 120.503687
14.300000 118.099341 118.958362 119.800116 119.746302 120.534598 121.242717
14.350000 118.872816 119.728966 120.474757 120.470367 121.228546 121.982431
14.400000 119.544836 120.367819 121.127101 121.109622 121.880490 122.724578
14.450000 120.162392 120.913271 121.715667 121.708581 122.455835 123.372219
14.500000 120.737888 121.491438 122.300768 122.294182 123.074905 123.973533
14.550000 121.233214 121.999503 122.853562 122.853919 123.696408 124.541145
14.600000 121.771535 122.606628 123.410946 123.426046 124.305829 125.121415
14.650000 122.340839 123.193086 124.010945 124.017167 124.873157 125.771334
14.700000 122.847687 123.807290 124.621063 124.638451 125.526518 126.362863
14.750000 123.466136 124.474939 125.277792 125.292746 126.147572 127.074690
14.800000 124.314185 125.190186 126.035743 126.038440 126.878931 127.863285
14.850000 125.398964 126.100271 126.900006 126.966663 127.822560 128.874216
14.900000 126.437240 127.186606 128.007713 128.118493 129.087899 130.380641
14.950000 127.504479 128.290372 129.245584 129.325291 130.332333 131.697149
14.980000 128.170155 128.923312 129.874905 129.979299 131.050332 132.294728
15.020000 128.969527 129.777311 130.753808 130.870609 132.030424 133.061479
15.050000 129.554858 130.412080 131.460977 131.511122 132.666427 133.672991
15.100000 130.453728 131.443975 132.517090 132.498832 133.561612 134.411582
15.150000 131.337541 132.710121 133.685587 133.669555 134.731099 135.690635
15.200000 132.517283 133.713710 134.666970 134.637235 135.557107 136.546349
15.250000 133.798375 134.830918 135.787056 135.767985 136.686183 137.623704
15.300000 134.731720 135.672371 136.662428 136.639310 137.539467 138.592623
15.350000 135.466603 136.446318 137.393406 137.394054 138.283673 139.412989
15.400000 136.103925 137.081576 138.017931 138.035554 138.928360 140.062284
15.450000 136.668126 137.686222 138.608947 138.635055 139.577833 140.905363
15.500000 137.213191 138.224235 139.226959 139.218317 140.180122 141.448471
15.550000 137.767798 138.859517 139.778018 139.801265 140.695271 142.130404
15.600000 138.253703 139.462804 140.367430 140.381942 141.293259 142.681752
15.650000 138.799626 140.019996 140.939312 140.926026 141.838283 143.147542
15.700000 139.281019 140.602933 141.488822 141.480153 142.352386 143.680296
15.750000 139.730052 141.171451 142.009986 142.023439 142.921329 144.229116
15.800000 140.205605 141.663441 142.569322 142.543101 143.410720 144.773762
15.900000 141.143865 142.535218 143.428349 143.463373 144.395809 145.753992
15.950000 141.710024 143.026529 143.921563 143.964863 144.910891 146.332608
16.000000 142.115852 143.538712 144.420711 144.477476 145.449011 147.000584
16.050000 142.756210 144.085758 144.923196 145.022194 146.047166 147.567688
16.100000 143.453954 144.615776 145.445496 145.564231 146.591570 148.049569
16.150000 144.032930 145.132990 146.007408 146.130725 147.278672 148.714447
16.200000 144.582319 145.657527 146.595204 146.710345 147.889457 149.221410
16.250000 145.100971 146.178768 147.169191 147.290368 148.538697 149.803699
16.300000 145.784286 146.731563 147.738633 147.881113 149.106408 150.430718
16.350000 146.370594 147.312543 148.303589 148.464787 149.702120 150.984976
16.400000 146.875507 147.967564 148.930653 149.074238 150.278019 151.597049
16.450000 147.485919 148.521421 149.591042 149.684016 150.967052 152.077234
16.480000 147.827106 148.898453 149.981063 150.080243 151.389531 152.412489
16.520000 148.299561 149.420138 150.500529 150.592659 151.980991 152.868387
16.550000 148.629854 149.819574 150.928556 150.976889 152.303587 153.248505
16.600000 149.281242 150.448341 151.511654 151.581216 152.852555 153.746908
16.650000 150.004549 151.035162 152.107679 152.155032 153.381439 154.291035
16.700000 150.593178 151.686448 152.752102 152.751697 153.882316 154.757139
16.750000 151.083603 152.317790 153.328680 153.328042 154.414063 155.254758
16.800000 151.750322 152.899120 153.958657 153.916479 154.914377 155.754613
16.850000 152.450848 153.511404 154.563712 154.506802 155.453562 156.280828
16.900000 153.149141 154.117461 155.100471 155.072703 156.013786 156.849914
16.950000 153.846323 154.677193 155.662706 155.629674 156.510779 157.334791
17.000000 154.423960 155.246143 156.214528 156.163620 157.035593 157.786727
17.050000 155.061154 155.842120 156.741065 156.719959 157.569307 158.392447
17.100000 155.594534 156.413388 157.241828 157.253255 158.100140 159.085449
17.150000 156.140360 156.866861 157.782807 157.783884 158.656922 159.529824
17.200000 156.730056 157.395738 158.285144 158.305629 159.154424 160.133575
17.250000 157.261411 157.926318 158.821134 158.855409 159.734595 160.730944
17.300000 157.717407 158.449722 159.373380 159.398196 160.244248 161.342171
17.350000 158.158533 158.993743 159.924605 159.958864 160.853588 162.195246
17.400000 158.662673 159.550568 160.458612 160.548299 161.528339 163.017797
17.450000 159.216838 160.141715 161.054832 161.193785 162.221058 164.011804
17.500000 159.774027 160.714982 161.754640 161.862459 162.983357 164.907294
17.550000 160.289268 161.276318 162.449625 162.605259 163.893320 166.163691
17.600000 160.811580 161.914208 163.236579 163.467516 165.011189 167.309373
17.650000 161.551813 162.754046 164.239938 164.504231 166.316677 168.663142
17.700000 162.344520 163.783279 165.469984 165.687851 167.777287 169.814724
17.750000 163.379440 164.982364 166.803923 166.994886 169.304563 171.259643
17.800000 164.405571 166.236630 168.049503 168.291310 170.575706 172.774851
17.850000 165.559207 167.201356 169.096821 169.384536 171.817828 174.081261
17.900000 166.505299 168.193027 170.125889 170.420727 172.993529 175.315540
17.950000 167.498677 169.093235 171.019938 171.373147 174.035343 176.367772
17.980000 168.098611 169.674961 171.554067 171.929828 174.527659 177.138920
18.020000 168.854792 170.453871 172.443782 172.748151 175.215420 177.941597
18.050000 169.356825 171.160588 173.108206 173.361508 175.716097 178.431982
18.100000 170.536907 172.422524 174.372777 174.489397 176.518647 179.099319
18.150000 171.335595 173.557088 175.704565 175.598338 177.480588 179.707281
18.200000 172.360405 174.959285 176.732269 176.697045 178.496897 180.397132
18.250000 173.529599 176.002373 177.728856 177.676431 179.540272 181.354078
18.300000 174.583630 176.937772 178.537436 178.579641 180.597280 182.104944
18.350000 175.489300 177.753789 179.369269 179.434635 181.418797 183.012667
18.400000 176.462742 178.516797 180.188658 180.254355 182.283133 183.754793
18.450000 177.365534 179.241604 180.948864 181.064622 183.097121 184.540640
18.500000 178.123439 179.968116 181.783821 181.868727 184.027414 185.226449
18.550000 178.857092 180.639475 182.603958 182.629985 184.741149 185.904089
18.600000 179.610381 181.356926 183.496360 183.392272 185.429621 186.567148
18.650000 180.298435 182.091968 184.359987 184.136511 186.095566 187.182112
18.700000 181.194326 182.901133 185.075130 184.882516 186.715791 187.771682
18.750000 182.106557 183.684353 185.985008 185.645585 187.345516 188.353904
18.800000 182.913564 184.602618 186.753462 186.431016 187.985102 188.942939
18.850000 183.846281 185.679216 187.480723 187.231756 188.635711 189.593026
18.900000 184.896471 186.695996 188.304323 188.114305 189.413837 190.327617
18.950000 186.110317 187.770614 189.115196 189.032334 190.247516 191.448119
19.000000 187.724724 189.049922 190.202810 190.287188 191.473233 193.464722
19.050000 189.502939 190.673469 192.001886 192.225490 194.008879 195.550120
19.100000 191.097783 192.513339 194.424443 194.464958 196.413854 198.120597
19.150000 192.500324 194.050511 196.643249 196.540329 198.977497 200.423260
19.200000 193.853960 195.275966 197.981041 197.953927 200.510127 202.020386
19.250000 194.944724 196.379496 199.010984 199.119360 201.850565 203.299377
19.300000 196.244356 197.896012 200.379013 200.351434 202.866916 204.055615
19.350000 198.187899 199.915394 201.856987 201.771264 203.632975 204.794960
19.400000 199.856497 201.967949 203.307436 203.148700 204.462669 205.466428
19.450000 201.781718 203.301374 204.266575 204.201201 205.251239 206.153086
19.480000 202.709999 203.837440 204.741266 204.702450 205.656926 206.570646
19.520000 203.429482 204.416351 205.296333 205.265666 206.190170 207.035583
19.550000 203.847238 204.836011 205.719322 205.679470 206.614452 207.527289
19.600000 204.524994 205.481431 206.362680 206.336652 207.272522 208.202721
19.650000 205.228260 206.152380 207.026752 207.013820 207.908767 208.822576
19.700000 205.927914 206.866497 207.719055 207.736592 208.668499 209.520072
19.750000 206.602820 207.603312 208.460303 208.478263 209.425185 210.435823
19.800000 207.485623 208.307220 209.243913 209.263080 210.192593 211.193359
19.850000 208.209943 209.179201 210.175645 210.184586 211.184562 212.295819
19.900000 209.181566 210.129992 211.205740 211.202718 212.252510 213.324102
19.950000 210.032589 211.031880 212.114380 212.132465 213.205371 214.095532
20.000000 210.997292 212.091726 213.091859 213.087859 214.085643 214.956103
20.050000 211.961707 213.036795 213.936263 213.922342 214.834057 215.895997
20.100000 212.924392 213.854492 214.741069 214.733565 215.591882 216.636208
20.150000 213.792687 214.614720 215.551156 215.538842 216.429518 217.442635
20.200000 214.728260 215.485355 216.386421 216.422277 217.360409 218.309296
20.250000 215.576335 216.453166 217.427998 217.449184 218.425444 219.337428
20.300000 217.133144 218.073934 218.929989 218.900271 219.706440 220.461809
20.350000 218.458449 219.185354 219.899839 219.888492 220.600651 221.362106
20.400000 219.291301 219.912692 220.501467 220.555429 221.221680 221.984057
20.450000 219.851254 220.388815 221.016663 221.059884 221.744852 222.421523
20.500000 220.281101 220.840719 221.451573 221.505076 222.190832 222.916082
20.550000 220.790787 221.268292 221.857353 221.933142 222.631523 223.357112
20.600000 221.223816 221.695157 222.283144 222.369191 223.091202 223.803338
20.650000 221.612990 222.105776 222.730045 222.802276 223.534936 224.313082
20.700000 221.998459 222.495376 223.121552 223.231791 224.007875 224.796865
20.800000 222.781669 223.275587 223.946665 224.021511 224.812626 225.539448
20.850000 223.149874 223.714321 224.381554 224.441715 225.221395 225.950499
20.900000 223.538656 224.077155 224.823900 224.862775 225.683176 226.405881
20.950000 223.926600 224.499780 225.245574 225.285889 226.113478 226.896938
20.980000 224.194362 224.746910 225.504713 225.555092 226.365833 227.163675
21.020000 224.525710 225.096053 225.858817 225.915140 226.727843 227.506425
21.050000 224.754133 225.367842 226.172416 226.208979 227.025809 227.912912
21.100000 225.220749 225.867011 226.660096 226.705630 227.553109 228.443311
21.150000 225.659574 226.347814 227.224749 227.241130 228.165344 229.074929
21.200000 226.162180 226.835536 227.783633 227.802747 228.744417 229.782480
21.250000 226.703558 227.410946 228.377008 228.408901 229.375945 230.452279
21.300000 227.200711 228.043373 229.017449 229.062307 230.067698 231.097014
21.350000 227.748626 228.727810 229.750116 229.774567 230.856744 231.846442
21.400000 228.388087 229.465835 230.632333 230.591227 231.702882 232.730833
21.450000 229.419578 230.441187 231.591099 231.564814 232.703520 233.721048
21.500000 230.511640 231.699176 232.769191 232.793975 233.949968 234.861437
21.550000 232.082498 233.483132 234.760999 234.645249 235.772183 236.600026
21.600000 233.373767 234.819126 236.065151 235.972498 237.113287 238.129370
21.650000 234.791466 235.927683 236.870529 236.884686 237.872489 239.026061
21.700000 235.627342 236.632069 237.638085 237.678220 238.734389 239.852067
21.750000 236.176204 237.207054 238.352631 238.371577 239.554140 240.593009
21.800000 236.681785 237.805562 239.163654 239.076529 240.302998 241.306958
21.850000 237.225039 238.471517 239.853682 239.757953 240.981585 241.942445
21.900000 237.927096 239.287690 240.532047 240.439324 241.564880 242.424791
21.950000 238.906590 240.165095 241.209181 241.158791 242.215941 242.897126
22.000000 239.645782 240.850098 241.832537 241.756743 242.719593 243.468593
22.050000 240.335934 241.416061 242.351472 242.304514 243.224196 243.922448
22.100000 240.987518 241.989219 242.890975 242.823136 243.681399 244.413520
22.150000 241.600483 242.482469 243.411927 243.347178 244.168907 244.960762
22.250000 242.489621 243.335204 244.222536 244.240802 245.127553 246.069207
22.350000 243.200388 244.159101 245.053715 245.078976 246.067130 247.158767
22.462500 243.955315 244.911518 245.860207 245.914085 246.926270 248.162058
22.575000 244.818151 245.712803 246.636947 246.727400 247.747522 249.191919
22.687500 245.652459 246.498710 247.394654 247.529940 248.525060 250.545261
22.800000 246.385993 247.277025 248.177473 248.325297 249.351198 251.383679
22.850000 246.752422 247.616232 248.561034 248.696008 249.778475 251.761992
22.900000 247.099820 247.988028 248.902036 249.052550 250.127843 252.130404
22.950000 247.433461 248.310699 249.235019 249.412159 250.486473 252.509930
23.000000 247.808299 248.676164 249.629136 249.787123 250.877859 252.941525
23.050000 248.142998 249.030199 249.998977 250.158387 251.287308 253.285487
23.100000 248.483609 249.412256 250.377343 250.555313 251.721602 253.583408
23.150000 248.913098 249.814076 250.769096 250.968917 252.138157 253.930211
23.200000 249.278001 250.185910 251.266372 251.400006 252.616493 254.316095
23.275000 249.753826 250.809858 251.974852 252.028763 253.225627 254.700463
23.350000 250.291543 251.364846 252.681952 252.654148 253.888751 255.127267
23.400000 250.654549 251.770581 253.132837 253.087582 254.380575 255.482624
23.450000 251.102915 252.247367 253.528392 253.512113 254.796421 255.788836
23.500000 251.577245 252.659042 253.948075 253.927393 255.211903 256.110917
23.550000 252.176527 253.167230 254.347657 254.337380 255.603398 256.412590
23.600000 252.437239 253.717460 254.717469 254.735049 255.976187 256.747413
23.650000 252.899445 254.158968 255.072715 255.121929 256.308754 257.076717
23.700000 253.318805 254.509047 255.430877 255.483125 256.664405 257.480956
23.750000 253.855881 254.893539 255.769235 255.855496 256.985467 257.849631
23.800000 254.267792 255.298388 256.104216 256.230164 257.374384 258.206742
23.850000 254.751339 255.670696 256.445938 256.595876 257.724312 258.558348
23.900000 255.268328 256.083017 256.750786 256.954544 258.035328 258.839366
23.950000 255.745964 256.455463 257.104049 257.313527 258.366946 259.195232
23.980000 255.987390 256.673640 257.318094 257.544161 258.588820 259.415048
24.020000 256.316126 256.983858 257.585277 257.833314 258.872958 259.678092
24.050000 256.517075 257.199920 257.820177 258.052266 259.081541 259.864610
24.100000 256.906227 257.579722 258.180926 258.406873 259.439921 260.188547
24.150000 257.344878 257.893617 258.533104 258.746734 259.798243 260.507665
24.200000 257.611274 258.240378 258.858447 259.079740 260.120246 260.786583
24.250000 258.011231 258.554291 259.216913 259.415837 260.459112 261.067218
24.300000 258.399261 258.857285 259.527336 259.729598 260.791991 261.376876
24.350000 258.725763 259.202817 259.881274 260.052333 261.085776 261.687995
24.400000 259.043056 259.520174 260.198167 260.375650 261.407370 261.970625
24.450000 259.359304 259.854375 260.531385 260.701885 261.694097 262.268314
24.500000 259.710889 260.177046 260.883009 261.032906 261.999263 262.560621
24.550000 260.036573 260.506858 261.251664 261.361356 262.318182 262.865082
24.600000 260.375179 260.838534 261.571111 261.696626 262.651231 263.157513
24.650000 260.725221 261.172499 261.932971 262.028336 262.946866 263.473594
24.700000 261.047248 261.538373 262.319239 262.364714 263.243376 263.759376
24.750000 261.361323 261.888307 262.691020 262.707491 263.565175 264.034912
24.800000 261.677054 262.220975 263.065838 263.052485 263.846408 264.414439
24.850000 262.019170 262.579857 263.428457 263.393294 264.152654 264.651373
24.900000 262.342964 262.915108 263.811668 263.732704 264.460098 264.982958
24.950000 262.679073 263.261406 264.181288 264.066089 264.771812 265.252281
25.000000 262.994500 263.606579 264.515974 264.395082 265.084634 265.519187
25.050000 263.293503 263.939723 264.868791 264.728890 265.395422 265.905035
25.100000 263.635972 264.301207 265.198345 265.065443 265.697625 266.191944
25.150000 263.909354 264.643237 265.522405 265.395186 266.008741 266.510661
25.200000 264.241006 264.948672 265.852941 265.719954 266.321402 266.828399
25.250000 264.550182 265.293350 266.166573 266.041314 266.640094 267.127097
25.300000 264.889037 265.592521 266.498781 266.371042 266.969422 267.584730
25.350000 265.203892 265.914108 266.804007 266.693116 267.293145 267.925463
25.400000 265.545609 266.271631 267.130984 267.029049 267.607809 268.240209
25.450000 265.905938 266.663443 267.472327 267.382156 267.951030 268.739274
25.480000 266.165583 266.906565 267.674377 267.598670 268.174220 269.011386
25.520000 266.487388 267.152062 267.943373 267.887430 268.475898 269.299302
25.550000 266.713417 267.394417 268.156591 268.110719 268.696436 269.590333
25.600000 267.000964 267.745262 268.517579 268.492629 269.132381 270.153046
25.650000 267.290503 268.103785 268.899672 268.884568 269.576459 270.774407
25.700000 267.638320 268.506814 269.247863 269.279038 270.008140 271.212569
25.750000 267.988098 268.897055 269.645000 269.686290 270.475055 271.609485
25.800000 268.277336 269.293883 270.028772 270.078838 270.949697 272.038176
25.850000 268.640203 269.658856 270.433242 270.480947 271.399487 272.429566
25.900000 269.012024 270.114113 270.818441 270.897131 271.843285 272.788741
25.950000 269.392853 270.481056 271.225102 271.294974 272.270623 273.156969
26.000000 269.863559 270.855016 271.633319 271.691172 272.672882 273.531714
26.050000 270.332557 271.245668 272.029578 272.106286 273.081976 273.938296
26.150000 271.103635 271.979274 272.814261 272.862684 273.829288 274.787498
26.200000 271.512920 272.398428 273.217505 273.287304 274.234344 275.147739
26.250000 271.980611 272.835912 273.684442 273.723429 274.663170 275.620393
26.300000 272.396605 273.229562 274.116276 274.150778 275.091523 276.044248
26.350000 272.867554 273.656989 274.609359 274.622495 275.602800 276.539341
26.400000 273.374017 274.135343 275.057269 275.071693 276.068465 277.058999
26.450000 273.729390 274.522177 275.508136 275.506062 276.475664 277.467967
26.500000 274.120226 274.990648 276.001959 275.985499 276.930049 277.832843
26.550000 274.476782 275.436937 276.519700 276.465620 277.409621 278.253001
26.600000 275.151829 276.006688 277.066296 276.995940 277.931133 278.689819
26.650000 275.750431 276.649186 277.605572 277.557616 278.456785 279.226613
26.700000 276.351402 277.256006 278.255599 278.184963 279.064315 279.754887
