depth(m) lower_95(kyr) lower_68(kyr) median(kyr) mean(kyr) upper_68(kyr) upper_95(kyr)
13.480000 98.999183 99.856135 100.815779 100.826580 101.803823 102.713165
13.520000 99.650962 100.643166 101.793062 101.795209 102.901505 104.039233
13.550000 100.229261 101.296561 102.581038 102.574868 103.851070 105.208329
13.600000 101.113915 102.421365 103.932385 103.944781 105.495426 107.044378
13.650000 102.064659 103.515802 105.160687 105.127295 106.698087 108.047113
13.700000 103.190316 104.857487 106.385915 106.361911 107.989897 109.402794
13.750000 104.364801 105.966416 107.491466 107.475971 109.021784 110.588620
13.800000 105.565964 107.046535 108.544727 108.531251 110.008585 111.647045
13.850000 106.756629 108.159433 109.571148 109.598479 111.063595 112.652194
13.900000 107.733954 109.340307 110.697259 110.728139 112.221906 113.491515
13.950000 108.621090 110.438326 111.956317 111.939643 113.527882 114.739840
14.000000 109.970090 111.395464 113.106342 113.036094 114.681991 115.879612
14.050000 111.166454 112.509609 114.043567 113.987999 115.514897 116.773451
14.100000 112.386242 113.829967 115.201444 115.163177 116.561410 117.658942
14.150000 114.701383 115.763040 116.875133 116.862879 117.991617 118.830112
14.200000 116.065180 117.089595 118.166187 118.108014 119.051659 119.884018
14.250000 117.079288 118.194234 119.094635 119.019797 119.835199 120.568777
14.300000 118.097428 119.155904 119.948631 119.898522 120.636324 121.327352
14.350000 119.110489 119.980355 120.663483 120.651045 121.348522 122.089052
14.400000 119.800158 120.591418 121.285923 121.289783 122.014105 122.788396
14.450000 120.359658 121.178531 121.894529 121.899797 122.631720 123.457811
14.500000 120.911917 121.715049 122.466739 122.470528 123.192233 124.026111
14.550000 121.447104 122.255893 123.038365 123.028524 123.780723 124.602468
14.600000 121.985765 122.788047 123.563397 123.583766 124.378581 125.174490
14.650000 122.579588 123.348694 124.147161 124.160312 124.967441 125.772563
14.700000 123.174826 123.942779 124.735920 124.754013 125.597613 126.314263
14.750000 123.825556 124.549338 125.370979 125.379373 126.204257 127.045727
14.800000 124.476808 125.285591 126.077754 126.102743 126.942204 127.794879
14.850000 125.339367 126.156204 126.933081 126.999968 127.917523 128.873047
14.900000 126.498292 127.149222 128.061645 128.131262 129.082848 130.067047
14.950000 127.527320 128.307235 129.294450 129.332077 130.266156 131.619943
14.980000 128.170352 128.900295 129.904339 129.983199 131.009704 132.155977
15.020000 129.046932 129.768440 130.752986 130.844405 131.973403 133.049359
15.050000 129.540656 130.462766 131.333112 131.448492 132.542796 133.594308
15.100000 130.382583 131.398268 132.380083 132.384744 133.395055 134.326614
15.150000 131.500880 132.452590 133.517055 133.490832 134.536281 135.422646
15.200000 132.568918 133.535213 134.363777 134.403148 135.349581 136.298471
15.250000 133.475535 134.494039 135.388642 135.453755 136.433946 137.688815
15.300000 134.401749 135.239122 136.217939 136.304407 137.399065 138.739243
15.350000 135.102981 135.891956 136.901442 137.030710 138.248394 139.571375
15.400000 135.674436 136.485122 137.513304 137.659077 138.891715 140.378768
15.450000 136.299145 137.063125 138.087506 138.257204 139.558847 140.870479
15.500000 136.766071 137.557833 138.675144 138.832892 140.160993 141.517106
15.550000 137.284543 138.098587 139.256532 139.383793 140.765869 142.103148
15.600000 137.818693 138.654097 139.819503 139.936719 141.358395 142.519367
15.650000 138.379988 139.208368 140.360589 140.484159 141.881353 143.060129
15.700000 138.808058 139.694129 140.923579 141.030507 142.445874 143.559351
15.750000 139.235512 140.248976 141.461097 141.547658 142.939376 144.107243
15.800000 139.860134 140.751173 141.939580 142.061442 143.469165 144.592547
15.900000 140.773265 141.654640 142.845331 142.958767 144.334068 145.431864
15.950000 141.264698 142.178993 143.360516 143.465770 144.848408 145.936421
16.000000 141.820238 142.699610 143.864508 143.966836 145.306965 146.436312
16.050000 142.361631 143.238793 144.373242 144.491361 145.772596 146.959144
16.100000 142.765992 143.782829 144.935102 145.041255 146.303532 147.790740
16.150000 143.431863 144.380997 145.531910 145.609430 146.836933 148.377908
16.200000 143.966139 144.964864 146.101259 146.178790 147.373633 148.897500
16.250000 144.526391 145.564226 146.679932 146.764183 147.911626 149.623640
16.300000 145.115943 146.105841 147.237642 147.336597 148.519119 150.160742
16.350000 145.608702 146.690085 147.757581 147.906313 149.123705 150.708150
16.400000 146.150484 147.286432 148.341931 148.486432 149.728324 151.336118
16.450000 146.629950 147.812335 148.913971 149.067637 150.366441 151.952687
16.480000 147.013067 148.188826 149.293475 149.439446 150.749614 152.338958
16.520000 147.477495 148.655896 149.800467 149.910959 151.220804 152.801986
16.550000 147.759013 148.998027 150.191527 150.274439 151.615248 153.157676
16.600000 148.422700 149.576234 150.802885 150.852891 152.116316 153.604135
16.650000 149.053666 150.143066 151.409850 151.437193 152.683559 154.105441
16.700000 149.765919 150.758026 152.006323 152.044740 153.247287 154.697761
16.750000 150.348491 151.339363 152.608496 152.626683 153.808149 155.196399
16.800000 150.963413 152.044279 153.263484 153.246803 154.414884 155.728785
16.850000 151.502429 152.714545 153.876457 153.856836 155.026003 156.160623
16.900000 152.192897 153.278415 154.476709 154.435783 155.576445 156.660683
16.950000 152.780406 153.858151 154.984429 154.990607 156.095728 157.130091
17.000000 153.394491 154.509000 155.527871 155.559323 156.664153 157.664635
17.050000 153.941833 155.121720 156.076910 156.105908 157.139857 158.314019
17.100000 154.489329 155.703076 156.580772 156.632830 157.646574 158.768397
17.150000 155.007934 156.194272 157.101783 157.146207 158.179833 159.261533
17.200000 155.541493 156.742487 157.612689 157.677118 158.724717 159.748103
17.250000 156.015507 157.270208 158.134262 158.202000 159.310383 160.321184
17.300000 156.614616 157.788273 158.663541 158.743264 159.860142 160.901169
17.350000 157.174183 158.322491 159.220467 159.303039 160.420986 161.524884
17.400000 157.816565 158.832285 159.795582 159.885223 161.031707 162.233914
17.450000 158.311489 159.364756 160.357905 160.489805 161.677248 163.110292
17.500000 158.954983 159.948180 160.997852 161.119482 162.249601 164.180860
17.550000 159.613971 160.573064 161.625007 161.814587 163.099174 165.044926
17.600000 160.227186 161.233290 162.436688 162.616514 164.056208 166.008599
17.650000 160.917929 162.008323 163.382446 163.551028 165.107955 167.325603
17.700000 161.885332 162.988043 164.391753 164.677248 166.421400 168.801585
17.750000 162.799010 164.138021 165.685674 165.928197 167.734033 170.531455
17.800000 163.642979 165.241794 166.896301 167.152643 169.143006 172.071294
17.850000 164.370220 166.169166 167.897104 168.204961 170.457600 173.348489
17.900000 165.409460 167.168901 168.860515 169.147187 171.254056 174.479614
17.950000 166.244061 168.162803 169.726846 170.091084 172.110789 175.650264
17.980000 166.693993 168.696289 170.290704 170.661763 172.668762 176.244253
18.020000 167.245192 169.679607 171.136965 171.536932 173.602241 176.818673
18.050000 167.792136 170.397723 171.939384 172.209847 174.260831 177.219141
18.100000 168.556320 171.505949 173.365770 173.465561 175.510967 177.966681
18.150000 169.141411 172.624297 174.869730 174.713784 176.882493 179.076700
18.200000 169.863295 173.767917 176.100880 175.896867 178.124047 180.165428
18.250000 170.814594 174.818555 177.315152 176.988849 179.068582 181.085791
18.300000 171.811202 175.978145 178.210742 177.964060 180.127694 182.011130
18.350000 172.944414 176.793281 179.090919 178.852628 181.107752 182.963276
18.400000 174.448624 177.619776 179.880915 179.713271 182.050206 183.958821
18.450000 175.741723 178.466323 180.696210 180.610973 183.017599 184.745676
18.500000 176.587943 179.159356 181.572992 181.483025 183.936011 185.391021
18.550000 177.647894 179.817987 182.434523 182.322357 184.849194 186.121559
18.600000 178.397002 180.629368 183.364506 183.123543 185.576880 186.759847
18.650000 179.214093 181.508478 184.166856 183.907528 186.241801 187.329172
18.700000 180.127748 182.384354 185.009239 184.712440 186.898567 187.889337
18.750000 181.118043 183.326251 185.848171 185.502758 187.524926 188.534231
18.800000 182.191666 184.330990 186.620657 186.319638 188.149305 189.203133
18.850000 183.322145 185.404515 187.476989 187.153812 188.730294 189.713584
18.900000 184.258815 186.644714 188.325049 188.082324 189.523809 190.562816
18.950000 185.976885 187.720520 189.188377 189.031945 190.356902 191.742960
19.000000 187.850638 189.095625 190.282750 190.363458 191.753047 193.234270
19.050000 189.735515 190.730847 192.132836 192.294962 193.983205 195.624893
19.100000 191.230168 192.519960 194.489835 194.559447 196.552501 198.189450
19.150000 192.444100 194.060469 196.716228 196.599799 199.049936 200.471476
19.200000 193.389639 195.352349 198.087353 198.013892 200.567991 202.023149
19.250000 194.334277 196.573570 199.088777 199.154665 201.917330 203.521686
19.300000 195.475010 198.140187 200.512885 200.390889 202.726705 204.166557
19.350000 196.485746 200.043213 201.926779 201.716967 203.580802 204.877552
19.400000 197.823011 201.951459 203.264003 203.063869 204.376445 205.571121
19.450000 199.747280 203.156471 204.258110 204.044838 205.258437 206.291983
19.480000 200.690485 203.672464 204.736721 204.533716 205.707904 206.733853
19.520000 201.727520 204.262648 205.301917 205.118391 206.279528 207.269174
19.550000 202.274299 204.686642 205.688311 205.547906 206.689696 207.609732
19.600000 203.525052 205.361189 206.344467 206.228496 207.314154 208.292131
19.650000 204.659070 206.080834 207.034555 206.947862 207.961689 208.900291
19.700000 205.470230 206.779477 207.745553 207.675131 208.691417 209.690983
19.750000 206.340346 207.464816 208.460091 208.430668 209.507504 210.356633
19.800000 207.176683 208.258835 209.317857 209.256404 210.322973 211.138751
19.850000 208.028160 209.212112 210.188835 210.185349 211.256499 212.208440
19.900000 209.029949 210.198874 211.181463 211.209509 212.270277 213.346930
19.950000 210.154084 211.144810 212.094956 212.153997 213.205985 214.220606
20.000000 211.080171 212.114212 213.133383 213.139586 214.109132 215.031427
20.050000 212.045816 213.086236 214.047479 214.000747 214.952663 215.770982
20.100000 213.058821 213.895734 214.834362 214.804853 215.670987 216.595943
20.150000 213.871128 214.721412 215.600865 215.610123 216.510599 217.358724
20.200000 214.691877 215.568220 216.472465 216.466078 217.387364 218.287041
20.250000 215.724248 216.537936 217.547708 217.520996 218.448740 219.329752
20.300000 217.250184 218.114228 219.004392 218.956482 219.731992 220.471674
20.350000 218.516794 219.237294 219.922156 219.903246 220.554612 221.222833
20.400000 219.194890 219.870344 220.504399 220.511580 221.154301 221.730118
20.450000 219.719183 220.389461 220.981736 221.005471 221.642885 222.171979
20.500000 220.168466 220.825933 221.415041 221.442558 222.064576 222.681788
20.550000 220.564801 221.245475 221.844360 221.850215 222.471895 223.075954
20.600000 220.979135 221.671451 222.264935 222.276888 222.879935 223.586561
20.650000 221.422376 222.109969 222.705956 222.709761 223.316010 223.956473
20.700000 221.855497 222.530101 223.127978 223.133667 223.734488 224.330538
20.800000 222.624630 223.309716 223.899129 223.904286 224.496638 225.106064
20.850000 223.104312 223.760472 224.319937 224.327598 224.906323 225.469483
20.900000 223.549602 224.172502 224.750907 224.749847 225.319563 225.957610
20.950000 223.965873 224.585017 225.149683 225.176954 225.756862 226.387573
20.980000 224.247835 224.856800 225.427243 225.450211 226.054951 226.751034
21.020000 224.553622 225.196727 225.781064 225.808779 226.420709 227.169537
21.050000 224.866269 225.470682 226.075245 226.102553 226.726285 227.550015
21.100000 225.300826 225.903099 226.539796 226.589947 227.264060 228.170813
21.150000 225.697582 226.370173 227.069365 227.119221 227.853381 228.852434
21.200000 226.121649 226.870871 227.652702 227.689654 228.507723 229.610373
21.250000 226.753462 227.411573 228.260558 228.336528 229.304166 230.415227
21.300000 227.248668 228.010763 228.936951 229.019493 230.017865 231.191636
21.350000 227.793712 228.667741 229.704431 229.738277 230.821397 231.937017
21.400000 228.540465 229.413170 230.604355 230.575284 231.684931 232.737762
21.450000 229.333189 230.488600 231.582220 231.558704 232.665032 233.673703
21.500000 230.602779 231.700485 232.826332 232.778730 233.828417 234.790030
21.550000 232.063526 233.462510 234.694036 234.584036 235.767446 236.675578
21.600000 233.500601 234.796043 235.884413 235.867594 237.009248 238.023148
21.650000 234.645250 235.707524 236.748126 236.764292 237.809156 238.769167
21.700000 235.435926 236.442486 237.526094 237.528236 238.566112 239.595381
21.750000 235.947646 237.107682 238.246392 238.224183 239.434215 240.465138
21.800000 236.424390 237.649123 239.016397 238.933788 240.181898 241.237493
21.850000 237.012762 238.236035 239.740976 239.619839 240.834694 241.764017
21.900000 237.747208 239.054336 240.443440 240.289467 241.410558 242.317367
21.950000 238.563456 240.013258 241.158217 241.043582 242.063570 242.976419
22.000000 239.301288 240.662832 241.770528 241.665239 242.666059 243.495469
22.050000 240.212618 241.395274 242.275717 242.257035 243.163647 244.044298
22.100000 240.923041 241.985662 242.845879 242.819896 243.722173 244.534112
22.150000 241.417214 242.522755 243.348114 243.376452 244.300045 245.136676
22.250000 242.439909 243.410505 244.314824 244.378132 245.389415 246.357689
22.350000 243.315590 244.262835 245.319505 245.334616 246.407093 247.455100
22.462500 244.118680 245.095181 246.219065 246.248132 247.368385 248.726296
22.575000 244.939696 245.901012 247.085735 247.125475 248.248560 249.845600
22.687500 245.681200 246.744660 247.989265 248.008125 249.177419 250.901592
22.800000 246.515616 247.529840 248.860773 248.846316 250.010583 251.659494
22.850000 246.873146 247.910156 249.239977 249.230877 250.385047 252.100990
22.900000 247.159961 248.260937 249.614462 249.600944 250.731638 252.525571
22.950000 247.489327 248.704787 249.969163 249.972742 251.144796 252.910370
23.000000 247.854993 249.094713 250.345990 250.356819 251.544991 253.360098
23.050000 248.205134 249.483597 250.696079 250.735585 251.883656 253.728783
23.100000 248.590593 249.870047 251.125742 251.134894 252.267451 254.030436
23.150000 248.992785 250.351026 251.518767 251.547580 252.686469 254.335065
23.200000 249.408012 250.798212 251.900077 251.955763 253.102190 254.683455
23.275000 250.100287 251.542182 252.553526 252.574868 253.707319 255.097520
23.350000 250.739774 252.164325 253.159276 253.183246 254.289035 255.555805
23.400000 251.267723 252.602669 253.555671 253.593676 254.690086 255.785855
23.450000 251.709321 253.002406 254.014136 254.017381 255.069152 256.085805
23.500000 252.134817 253.432631 254.464280 254.417572 255.426487 256.345000
23.550000 252.672074 253.902398 254.837291 254.818653 255.774881 256.633277
23.600000 253.330461 254.331220 255.228174 255.202568 256.112387 256.913734
23.650000 253.829361 254.729925 255.638721 255.588071 256.476241 257.259206
23.700000 254.158759 255.118957 256.030083 255.964263 256.803234 257.543042
23.750000 254.647590 255.514028 256.422883 256.344673 257.129405 257.842277
23.800000 255.051477 255.884120 256.805115 256.711856 257.455279 258.219403
23.850000 255.492091 256.272483 257.183927 257.081475 257.798204 258.457944
23.900000 255.888906 256.675567 257.517837 257.439689 258.116047 258.830683
23.950000 256.314818 257.101303 257.885137 257.815266 258.475895 259.128980
23.980000 256.641626 257.384507 258.100789 258.062935 258.699147 259.378262
24.020000 256.992708 257.737646 258.409691 258.381184 259.004341 259.658281
24.050000 257.206233 257.956432 258.662368 258.616348 259.224623 259.893564
24.100000 257.621798 258.367442 259.019817 258.972348 259.562487 260.151429
24.150000 257.996211 258.711819 259.357729 259.318098 259.890157 260.453905
24.200000 258.298809 259.070974 259.683312 259.649878 260.206003 260.776598
24.250000 258.650672 259.437364 260.013019 259.978063 260.522343 261.053089
24.300000 259.040295 259.797879 260.355912 260.309004 260.821961 261.355145
24.350000 259.381475 260.110253 260.692618 260.632791 261.140933 261.651914
24.400000 259.720410 260.442789 261.018036 260.958858 261.461489 261.915916
24.450000 260.026481 260.774105 261.345961 261.290962 261.800287 262.207596
24.500000 260.297021 261.133113 261.661596 261.619357 262.117992 262.492444
24.550000 260.702500 261.470528 261.990912 261.947636 262.437566 262.803936
24.600000 261.157333 261.802572 262.319142 262.272773 262.734234 263.153603
24.650000 261.485163 262.161089 262.631324 262.596383 263.049853 263.419225
24.700000 261.884039 262.464639 262.946592 262.920246 263.369644 263.698951
24.750000 262.217370 262.827146 263.278598 263.233591 263.665180 264.005155
24.800000 262.509455 263.147752 263.597813 263.553875 263.972286 264.305860
24.850000 262.851379 263.475965 263.899536 263.872720 264.281295 264.689710
24.900000 263.144512 263.810523 264.219670 264.190321 264.582573 264.992615
24.950000 263.504668 264.130587 264.547911 264.504271 264.898871 265.297309
25.000000 263.860906 264.459370 264.837321 264.826361 265.227695 265.641725
25.050000 264.163442 264.762228 265.174389 265.139061 265.525650 265.943103
25.100000 264.451709 265.069424 265.467889 265.444071 265.809042 266.233921
25.150000 264.794678 265.386501 265.785445 265.755899 266.137352 266.557073
25.200000 265.175973 265.705055 266.083011 266.064430 266.428697 266.825484
25.250000 265.507596 266.021635 266.384710 266.373185 266.746240 267.134623
25.300000 265.818606 266.304675 266.683576 266.677921 267.043084 267.487511
25.350000 266.133690 266.611717 266.995661 266.984621 267.337567 267.816123
25.400000 266.436271 266.920596 267.288731 267.296409 267.675881 268.161953
25.450000 266.740138 267.242474 267.600555 267.617158 268.000821 268.579791
25.480000 266.922286 267.427885 267.803967 267.823613 268.193359 268.858745
25.520000 267.208378 267.694669 268.083211 268.105434 268.498031 269.167316
25.550000 267.418068 267.912847 268.298195 268.335015 268.752944 269.482201
25.600000 267.740938 268.269908 268.649184 268.717308 269.192396 270.038176
25.650000 268.125795 268.574106 269.016225 269.113252 269.657963 270.639745
25.700000 268.513161 268.925449 269.404855 269.511482 270.133871 271.087178
25.750000 268.846725 269.261122 269.790180 269.916945 270.648264 271.585131
25.800000 269.133699 269.608920 270.206411 270.323951 271.116766 272.023316
25.850000 269.476544 269.987299 270.624651 270.727439 271.552276 272.393937
25.900000 269.854000 270.325558 271.039910 271.127571 271.994120 272.753216
25.950000 270.173743 270.666445 271.449289 271.510592 272.410259 273.126469
26.000000 270.525249 271.021014 271.814363 271.880430 272.776418 273.525389
26.050000 270.818638 271.385679 272.203842 272.248150 273.133643 273.884095
26.150000 271.468570 272.129009 272.972034 272.995739 273.842510 274.678140
26.200000 271.786434 272.495695 273.450418 273.410443 274.261221 275.067068
26.250000 272.146592 272.935575 273.873201 273.840189 274.676293 275.680127
26.300000 272.545456 273.353027 274.309384 274.282171 275.161349 276.109620
26.350000 272.943396 273.816849 274.745954 274.728650 275.612271 276.624228
26.400000 273.400840 274.284608 275.162930 275.181647 276.059740 277.084358
26.450000 273.804760 274.716878 275.596371 275.628462 276.560473 277.525364
26.500000 274.305835 275.181623 276.084618 276.108518 277.043793 277.970455
26.550000 274.687738 275.677385 276.588363 276.594639 277.474459 278.360472
26.600000 275.185416 276.288676 277.130975 277.118807 278.024261 278.923299
26.650000 275.817706 276.839263 277.691377 277.692598 278.558557 279.401070
26.700000 276.573739 277.470646 278.339714 278.324484 279.182363 279.957391
