depth(m) lower_95(kyr) lower_68(kyr) median(kyr) mean(kyr) upper_68(kyr) upper_95(kyr)
3.005000 98.351963 99.444750 100.268112 100.256712 101.109380 101.853787
3.015000 98.643804 99.753474 100.608608 100.575834 101.398181 102.113939
3.025000 99.045357 100.031458 100.960218 100.899229 101.752268 102.505604
3.035000 99.263000 100.359694 101.261304 101.226361 102.118849 102.839062
3.045000 99.616721 100.696611 101.629902 101.573336 102.459819 103.179753
3.055000 99.951879 101.014733 101.956669 101.907523 102.806646 103.584830
3.065000 100.165764 101.353153 102.286479 102.247714 103.142934 103.892181
3.075000 100.449891 101.706978 102.622735 102.600379 103.553473 104.322448
3.085000 100.861192 102.025057 102.943655 102.950738 103.885390 104.745337
3.095000 101.180649 102.401728 103.304493 103.320224 104.270745 105.195758
3.105000 101.608665 102.763770 103.705226 103.704515 104.643960 105.725406
3.115000 102.068187 103.135161 104.120147 104.089094 105.002320 106.096958
3.125000 102.339269 103.481544 104.506198 104.447976 105.365470 106.497246
3.135000 102.764199 103.876573 104.851222 104.826776 105.749818 106.840456
3.145000 103.182991 104.202928 105.187190 105.186660 106.142262 107.243101
3.155000 103.703989 104.585118 105.495107 105.549751 106.519137 107.653307
3.165000 104.125373 104.955425 105.818702 105.916324 106.902363 108.048188
3.175000 104.542625 105.349715 106.210732 106.297938 107.267260 108.490607
3.185000 104.873639 105.714774 106.560991 106.675860 107.673199 108.952177
3.195000 105.287205 106.108377 106.932222 107.082610 108.157927 109.455042
3.205000 105.773005 106.473535 107.326509 107.487277 108.539939 109.830786
3.215000 106.202847 106.812750 107.763115 107.909793 109.064948 110.414973
3.225000 106.552707 107.203648 108.191836 108.343354 109.490217 110.937642
3.235000 106.878731 107.579231 108.644723 108.776645 109.969201 111.340164
3.245000 107.237422 107.977894 109.100902 109.215335 110.556030 111.741054
3.255000 107.582122 108.399431 109.596556 109.652965 110.984985 112.143385
3.265000 107.989898 108.845071 110.068719 110.110064 111.393443 112.451011
3.275000 108.464046 109.327267 110.581115 110.583913 111.800666 112.751021
3.285000 108.906292 109.828860 111.068493 111.043626 112.195328 113.061459
3.295000 109.280538 110.390509 111.573544 111.492054 112.551555 113.346334
3.305000 109.860445 110.943396 112.003564 111.925192 112.912145 113.634859
3.315000 110.306980 111.425349 112.375290 112.318557 113.210384 113.870722
3.325000 110.848106 111.965127 112.755041 112.717792 113.542883 114.099232
3.335000 111.376275 112.463351 113.183723 113.128079 113.898085 114.375256
3.345000 112.053841 112.890619 113.596201 113.560732 114.254562 114.728590
3.355000 112.576284 113.341069 114.002247 113.961525 114.606393 115.088284
3.365000 113.060494 113.731946 114.380918 114.331880 114.932773 115.425923
3.375000 113.578950 114.150751 114.768845 114.726089 115.269524 115.790474
3.385000 113.981519 114.577672 115.140018 115.119843 115.656530 116.171172
3.395000 114.448265 114.977250 115.502484 115.514049 116.048883 116.555680
3.405000 114.900667 115.362322 115.900748 115.908032 116.440968 116.997268
3.415000 115.276079 115.786860 116.319505 116.334235 116.912399 117.451803
3.425000 115.638023 116.193214 116.741472 116.760359 117.328210 117.916273
3.435000 116.070856 116.552246 117.129727 117.140254 117.707902 118.392248
3.445000 116.361637 116.898035 117.489070 117.492795 118.069065 118.731985
3.455000 116.676107 117.237062 117.842302 117.852951 118.481003 119.035704
3.465000 116.989197 117.615915 118.232679 118.212942 118.818497 119.338008
3.475000 117.414349 118.009177 118.570995 118.575212 119.131645 119.637767
3.485000 117.850356 118.382752 118.930951 118.915899 119.453187 119.908569
3.495000 118.171894 118.758871 119.285790 119.277521 119.795426 120.317679
3.505000 118.545018 119.126501 119.605519 119.606054 120.104776 120.622758
3.515000 118.883779 119.405594 119.897881 119.904427 120.399827 120.929019
3.525000 119.292548 119.728428 120.160301 120.188003 120.663032 121.189757
3.535000 119.595247 119.992107 120.407042 120.451638 120.936445 121.443018
3.545000 119.868305 120.241906 120.665320 120.706101 121.203155 121.660028
3.555000 120.100009 120.488492 120.892795 120.947768 121.451115 121.881641
3.565000 120.366098 120.722379 121.104289 121.173828 121.705498 122.080535
3.575000 120.627037 120.930401 121.319328 121.395557 121.928343 122.268549
3.585000 120.845220 121.142527 121.549973 121.608002 122.146427 122.454880
3.595000 121.043460 121.348685 121.778061 121.823108 122.337313 122.658815
3.605000 121.276334 121.553718 122.013207 122.035875 122.545583 122.852414
3.615000 121.471344 121.761850 122.239485 122.253243 122.764670 123.090560
3.625000 121.671341 121.970651 122.470292 122.467772 122.971901 123.302221
3.635000 121.880994 122.177699 122.678025 122.681621 123.183517 123.494635
3.645000 122.074768 122.400522 122.889912 122.893940 123.379542 123.702715
3.655000 122.297903 122.629639 123.131976 123.109881 123.580007 123.910965
3.665000 122.519916 122.839317 123.338785 123.323829 123.794850 124.102363
3.675000 122.710416 123.036368 123.568744 123.538412 124.003023 124.291326
3.685000 122.899723 123.243475 123.786470 123.746805 124.212273 124.510659
3.695000 123.101913 123.454831 123.990615 123.951218 124.405482 124.721411
3.705000 123.293612 123.691386 124.202466 124.165080 124.609149 124.930670
3.715000 123.483619 123.913602 124.409489 124.373077 124.804910 125.121467
3.725000 123.673928 124.142645 124.619554 124.584372 124.993475 125.343638
3.735000 123.909607 124.360223 124.843946 124.803422 125.203414 125.555622
3.745000 124.090832 124.598954 125.073265 125.021845 125.421286 125.753570
3.755000 124.322192 124.810383 125.294418 125.240411 125.651280 125.964034
3.765000 124.542649 125.049157 125.516656 125.463362 125.853070 126.194308
3.775000 124.788693 125.296625 125.741321 125.690160 126.063978 126.424954
3.785000 125.036360 125.533320 125.964210 125.925503 126.297037 126.624418
3.795000 125.363948 125.805277 126.212513 126.178405 126.532642 126.869304
3.805000 125.598465 126.057704 126.463502 126.436680 126.791354 127.132022
3.815000 125.903502 126.353774 126.698339 126.687916 127.027294 127.400057
3.825000 126.134542 126.584934 126.914650 126.913876 127.253368 127.630949
3.835000 126.379395 126.808279 127.142609 127.147157 127.493488 127.910093
3.845000 126.641864 127.042383 127.364311 127.381833 127.733961 128.170573
3.855000 126.838147 127.255552 127.595916 127.616807 127.965171 128.478548
3.865000 127.096990 127.470458 127.822763 127.855376 128.228554 128.808086
3.875000 127.328108 127.713962 128.090012 128.121898 128.517367 129.107166
3.885000 127.594181 127.994266 128.373789 128.424122 128.844560 129.503952
3.895000 127.859937 128.274573 128.691300 128.775090 129.285166 130.083642
3.905000 128.144911 128.596341 129.086355 129.185909 129.836505 130.674358
3.915000 128.513598 128.919717 129.488644 129.611781 130.408917 131.172881
3.925000 128.834287 129.312522 130.035271 130.133968 131.039843 131.816050
3.935000 129.269446 129.857724 130.682921 130.731499 131.636368 132.404512
3.945000 129.719810 130.449738 131.343434 131.326862 132.203784 132.930176
3.955000 130.187760 131.040667 131.901328 131.914047 132.788345 133.519575
3.965000 130.731302 131.621840 132.521291 132.478681 133.323956 133.967449
3.975000 131.382110 132.250881 133.083574 133.045409 133.858298 134.480851
3.985000 131.963370 132.901989 133.616776 133.586285 134.308357 134.909479
3.995000 132.538558 133.448037 134.124616 134.108048 134.837510 135.359512
4.005000 133.173255 134.002441 134.705156 134.663737 135.332891 135.906696
4.015000 133.699619 134.578190 135.239046 135.192653 135.810919 136.428272
4.025000 134.288129 135.046029 135.669060 135.642702 136.243507 136.850663
4.035000 134.763139 135.437423 136.019616 136.010619 136.588287 137.211213
4.045000 135.194364 135.801161 136.356822 136.344161 136.900803 137.491978
4.055000 135.596746 136.101626 136.638610 136.648517 137.198167 137.766712
4.065000 135.945629 136.375630 136.888460 136.918539 137.462520 137.980918
4.075000 136.229201 136.674175 137.149535 137.170458 137.708586 138.183306
4.085000 136.496213 136.928371 137.380308 137.421637 137.952179 138.430066
4.095000 136.772042 137.188141 137.605793 137.659533 138.201079 138.685494
4.105000 137.047706 137.418734 137.823949 137.886061 138.430216 138.918373
4.115000 137.278377 137.663354 138.035005 138.113614 138.650907 139.116450
4.125000 137.478241 137.880549 138.255103 138.337256 138.910861 139.351359
4.135000 137.712991 138.113275 138.458185 138.557131 139.131817 139.544383
4.145000 137.932483 138.308045 138.670791 138.774060 139.388249 139.777099
4.155000 138.192735 138.516656 138.888377 138.994274 139.608598 139.998319
4.165000 138.405005 138.720073 139.098579 139.216465 139.832710 140.241137
4.175000 138.622655 138.929666 139.323524 139.431908 140.038279 140.450039
4.185000 138.820941 139.140566 139.531454 139.649794 140.269694 140.666155
4.195000 139.038071 139.353651 139.761654 139.869432 140.493697 140.909448
4.205000 139.243386 139.563906 139.990605 140.094127 140.719222 141.142274
4.215000 139.424065 139.774632 140.236889 140.322694 140.961986 141.346037
4.225000 139.665399 139.985654 140.478786 140.560401 141.178746 141.557952
4.235000 139.863622 140.209613 140.775349 140.806815 141.443383 141.795498
4.245000 140.095371 140.457447 141.030258 141.053626 141.682523 142.062888
4.255000 140.349849 140.700272 141.313880 141.323420 141.935278 142.365563
4.265000 140.602662 140.962468 141.612768 141.606822 142.217317 142.776465
4.275000 140.800032 141.235364 141.923094 141.893456 142.481529 143.096301
4.285000 141.016306 141.538717 142.202316 142.186538 142.784530 143.454147
4.295000 141.258085 141.792722 142.479915 142.460594 143.062565 143.793818
4.305000 141.492314 142.087395 142.758469 142.734744 143.335185 144.067297
4.315000 141.713808 142.377843 143.010791 143.021073 143.642414 144.377767
4.325000 142.013680 142.669085 143.281785 143.297770 143.943402 144.767779
4.335000 142.265001 142.929674 143.529754 143.564384 144.245027 145.069627
4.345000 142.489459 143.159160 143.794237 143.844083 144.557180 145.421344
4.355000 142.794512 143.414647 144.058813 144.120710 144.875403 145.698345
4.365000 143.035648 143.700533 144.326122 144.403060 145.197813 146.085436
4.375000 143.259614 143.958661 144.573270 144.679533 145.462933 146.449811
4.385000 143.523648 144.219327 144.840540 144.958267 145.760089 146.922808
4.395000 143.768370 144.455994 145.125992 145.237911 146.069151 147.200851
4.405000 144.019777 144.707791 145.413480 145.523119 146.327715 147.620722
4.415000 144.256972 144.963958 145.713074 145.811307 146.628853 147.950296
4.425000 144.557776 145.211085 145.973420 146.091553 146.902564 148.250123
4.435000 144.803944 145.540102 146.320785 146.406519 147.223835 148.604153
4.445000 145.051144 145.797717 146.660208 146.729498 147.603017 148.878059
4.455000 145.341604 146.092825 147.002705 147.081167 148.017779 149.423194
4.465000 145.613455 146.403198 147.343090 147.433031 148.417769 149.928741
4.475000 145.897948 146.715531 147.728519 147.792255 148.814594 150.217591
4.485000 146.244262 147.076032 148.066137 148.158201 149.215025 150.677526
4.495000 146.432341 147.402890 148.450816 148.543997 149.669146 151.111188
4.505000 146.671174 147.757863 148.851201 148.918213 150.115625 151.478860
4.515000 146.934304 148.148227 149.236215 149.286908 150.478288 151.789901
4.525000 147.174773 148.494074 149.615031 149.660951 150.868668 152.075572
4.535000 147.467780 148.907451 150.016173 150.038315 151.279330 152.539562
4.545000 147.774243 149.244187 150.413983 150.423025 151.721628 152.778195
4.555000 148.104562 149.576312 150.819345 150.800516 152.092327 153.116080
4.565000 148.459314 149.989933 151.182700 151.175753 152.449879 153.491010
4.575000 148.799524 150.401079 151.564979 151.551502 152.850474 153.846476
4.585000 149.237674 150.843679 151.903375 151.941558 153.249586 154.129841
4.595000 149.611607 151.226374 152.309868 152.331751 153.625701 154.479872
4.605000 149.924250 151.618199 152.718728 152.707591 154.008626 154.790747
4.625000 150.994548 152.357970 153.622686 153.525600 154.704760 155.442334
4.635000 151.406991 152.686654 154.042515 153.898646 155.038254 155.710212
4.645000 151.891332 153.082408 154.424166 154.268781 155.413961 155.961300
4.655000 152.269400 153.433992 154.817103 154.635768 155.755957 156.236451
4.665000 152.656695 153.823729 155.222407 154.993668 156.071725 156.484982
4.675000 153.001201 154.185372 155.605997 155.342369 156.353032 156.705922
4.685000 153.433055 154.530450 155.972627 155.680604 156.631502 156.956118
4.695000 153.760072 154.945772 156.300760 156.010024 156.870120 157.213455
4.705000 154.083120 155.295547 156.629575 156.312915 157.122864 157.431718
4.715000 154.397859 155.674279 156.909531 156.600899 157.372831 157.645374
4.725000 154.813404 156.001160 157.184837 156.880936 157.602722 157.860173
4.735000 155.098768 156.283456 157.442832 157.150909 157.812728 158.059124
4.745000 155.460677 156.578045 157.682002 157.415590 158.031919 158.281082
4.755000 155.729198 156.931338 157.919283 157.670547 158.245653 158.506339
4.765000 156.004130 157.269919 158.157182 157.923001 158.475849 158.725014
4.775000 156.247272 157.544658 158.387200 158.175528 158.716619 158.954925
4.785000 156.570749 157.808568 158.612958 158.417760 158.927016 159.182918
4.795000 156.822976 158.119682 158.842966 158.661013 159.141332 159.474230
4.805000 157.157134 158.406040 159.072349 158.907137 159.359615 159.703088
4.815000 157.498723 158.712211 159.309213 159.161659 159.599783 160.048860
4.825000 157.740811 159.035842 159.538221 159.412856 159.837227 160.253316
4.835000 157.955047 159.282442 159.764076 159.660302 160.083524 160.495736
4.845000 158.248400 159.568173 159.996068 159.909350 160.319604 160.751567
4.855000 158.599362 159.795825 160.230629 160.150584 160.572732 161.014754
4.865000 159.025319 160.049744 160.460961 160.404157 160.807802 161.364334
4.875000 159.294639 160.292779 160.706408 160.670301 161.093593 161.724358
4.885000 159.542054 160.557509 160.937471 160.932140 161.349465 162.019619
4.895000 159.953217 160.784870 161.200987 161.201761 161.622457 162.398369
4.905000 160.282927 161.026833 161.439697 161.460656 161.890205 162.637832
4.915000 160.625670 161.303093 161.683952 161.728259 162.152448 162.920540
4.925000 160.991650 161.547595 161.945377 161.990347 162.414883 163.210685
4.935000 161.268061 161.791957 162.200477 162.258039 162.711409 163.572124
4.945000 161.562008 162.048847 162.468839 162.528729 163.013387 163.855964
4.955000 161.834927 162.318935 162.746005 162.808947 163.305027 164.228894
4.965000 162.138176 162.572171 163.030230 163.091891 163.562221 164.651852
4.975000 162.438063 162.853684 163.322924 163.377103 163.838841 164.960722
4.985000 162.664860 163.135281 163.608409 163.665032 164.122344 165.252146
4.995000 162.962329 163.410240 163.909188 163.948861 164.402681 165.562324
5.005000 163.215495 163.714902 164.195678 164.235314 164.683617 165.805043
5.015000 163.509683 163.995128 164.481497 164.512200 164.932044 166.049018
5.025000 163.761441 164.258182 164.749532 164.792846 165.217745 166.542920
5.035000 164.079131 164.537134 164.997863 165.055665 165.463437 166.758434
5.045000 164.308401 164.811273 165.276158 165.327752 165.724848 167.140681
5.055000 164.618713 165.125816 165.539014 165.613078 166.016888 167.460019
5.065000 164.905968 165.391584 165.790429 165.883983 166.299651 167.699285
5.075000 165.178793 165.656486 166.063019 166.159153 166.631000 167.985207
5.085000 165.501449 165.921799 166.325179 166.436445 166.912912 168.234417
5.095000 165.731802 166.181290 166.602914 166.721909 167.237061 168.477429
5.105000 166.047739 166.451134 166.885415 167.002710 167.556639 168.793329
5.115000 166.348189 166.714428 167.193494 167.300290 167.900760 169.095997
5.125000 166.591312 166.982612 167.489666 167.603216 168.208065 169.381753
5.135000 166.839481 167.247864 167.817697 167.907586 168.555097 169.622371
5.145000 167.103455 167.542084 168.142795 168.221707 168.869486 169.906818
5.155000 167.331812 167.861552 168.492769 168.547950 169.201852 170.215165
5.165000 167.679509 168.129242 168.836909 168.878981 169.553208 170.529318
5.175000 167.981731 168.471562 169.212162 169.224894 169.894697 170.847804
5.185000 168.279645 168.823538 169.568452 169.574759 170.255533 171.162963
5.195000 168.542294 169.218250 169.921860 169.945191 170.621221 171.560141
5.205000 168.859406 169.585303 170.276609 170.299461 170.976277 172.085812
5.215000 169.151269 169.953634 170.636582 170.669363 171.360875 172.404932
5.225000 169.497963 170.337783 170.973218 171.027519 171.734891 172.846562
5.235000 169.845298 170.706337 171.335634 171.403754 172.073509 173.429123
5.245000 170.266532 171.006258 171.670499 171.753996 172.460214 173.804265
5.255000 170.626017 171.342369 172.019814 172.119435 172.820294 174.287033
5.265000 171.023557 171.643380 172.361337 172.486339 173.336775 174.704692
5.275000 171.415196 171.955544 172.731479 172.854040 173.790070 175.038124
5.285000 171.733271 172.291592 173.073261 173.216416 174.160980 175.365487
5.295000 172.067686 172.619487 173.425207 173.582551 174.549260 175.841348
5.305000 172.360648 172.992505 173.790315 173.957508 174.999443 176.177416
5.325000 172.977628 173.691733 174.575575 174.711238 175.851198 176.819370
5.335000 173.293273 174.050024 174.983043 175.104896 176.209768 177.249272
5.345000 173.638507 174.437755 175.420078 175.499459 176.588935 177.572504
5.355000 174.111453 174.848557 175.845992 175.889656 176.928698 177.956140
5.365000 174.508156 175.261182 176.250553 176.273866 177.314103 178.234062
5.375000 174.922813 175.680520 176.609783 176.648675 177.656114 178.479045
5.385000 175.435042 176.035230 176.986396 177.021731 177.994665 178.844454
5.395000 175.803729 176.442606 177.357158 177.383966 178.303471 179.218718
5.405000 176.157305 176.811669 177.697849 177.732557 178.648942 179.530893
5.415000 176.474244 177.185509 178.021511 178.060043 178.937231 179.868795
5.425000 176.875638 177.533747 178.322441 178.384932 179.246744 180.218117
5.435000 177.152397 177.858183 178.659450 178.701660 179.596733 180.555680
5.445000 177.449920 178.177322 178.988639 179.031479 179.858146 180.842088
5.455000 177.836567 178.486036 179.316124 179.344958 180.195301 181.163385
5.465000 178.116010 178.773865 179.644495 179.662207 180.468504 181.460690
5.475000 178.401432 179.119980 179.983875 179.982947 180.805271 181.755071
5.485000 178.637789 179.456306 180.289573 180.294624 181.152537 182.068374
5.495000 178.967352 179.761278 180.585260 180.615809 181.500978 182.383238
5.505000 179.244630 180.035269 180.912182 180.941635 181.861741 182.721684
5.515000 179.516734 180.347848 181.223203 181.258598 182.192280 183.107695
5.525000 179.805588 180.692082 181.540490 181.585713 182.579713 183.549744
5.535000 180.040157 180.989957 181.857747 181.921336 182.923785 183.961705
5.545000 180.289291 181.339982 182.176483 182.253037 183.258013 184.308474
5.555000 180.564537 181.693676 182.503893 182.593192 183.585863 184.808593
5.565000 180.908854 182.041660 182.853605 182.945315 183.906864 185.160284
5.575000 181.182388 182.358540 183.275106 183.315951 184.289106 185.519447
5.585000 181.508664 182.689043 183.646176 183.675560 184.695547 185.820078
5.595000 181.906848 183.037431 184.058273 184.048333 185.061869 186.167762
5.605000 182.396048 183.403943 184.470576 184.414845 185.444941 186.513696
5.615000 182.773848 183.740297 184.812263 184.782656 185.808904 186.768492
5.625000 183.301762 184.177224 185.215460 185.174840 186.183138 187.088169
5.635000 183.609001 184.563337 185.547175 185.556998 186.586571 187.362636
5.645000 184.046576 184.973165 185.966984 185.945676 186.944548 187.672629
5.655000 184.356422 185.385026 186.397360 186.334356 187.293032 187.965456
5.665000 184.808166 185.790313 186.756666 186.703206 187.625514 188.284656
