depth(m) lower_95(kyr) lower_68(kyr) median(kyr) mean(kyr) upper_68(kyr) upper_95(kyr)
10.070000 97.911001 98.658836 99.420417 99.487648 100.475262 101.242234
10.110000 98.503255 99.206872 99.936014 100.043555 101.070977 101.803881
10.150000 98.974984 99.718459 100.493062 100.605574 101.637860 102.418877
10.190000 99.456720 100.206916 100.995989 101.139862 102.248106 103.095874
10.230000 99.974643 100.734751 101.514890 101.675847 102.814165 103.560525
10.250000 100.249130 100.995999 101.801587 101.966027 103.132585 103.960521
10.290000 100.737929 101.497931 102.365270 102.538881 103.790249 104.687814
10.330000 101.207811 102.011196 102.939130 103.075221 104.333588 105.171951
10.370000 101.716470 102.489427 103.484863 103.617679 104.811757 105.662238
10.410000 102.239350 103.018939 104.057975 104.163605 105.387420 106.229833
10.450000 102.785130 103.526910 104.642981 104.718804 105.972489 106.805801
10.490000 103.328983 104.057334 105.213105 105.256990 106.457661 107.329687
10.530000 103.817305 104.616483 105.797325 105.819223 106.999343 107.911667
10.570000 104.357536 105.176201 106.483584 106.415063 107.580022 108.419992
10.610000 104.957368 105.807432 107.133025 107.042783 108.140994 108.946127
10.650000 105.490157 106.502228 107.811518 107.680508 108.744662 109.591241
10.690000 106.198529 107.204856 108.475474 108.330595 109.346017 110.066040
10.730000 106.852392 107.921532 109.061654 108.952006 109.908455 110.563312
10.770000 107.495356 108.572446 109.679430 109.554724 110.442323 111.113036
10.810000 108.134342 109.294819 110.263597 110.152933 110.973050 111.643893
10.850000 108.821837 109.928651 110.804370 110.738008 111.530265 112.207201
10.890000 109.418804 110.581001 111.383393 111.326071 112.104150 112.800988
10.930000 110.070731 111.194297 111.967143 111.916340 112.687356 113.385872
10.970000 110.872687 111.798936 112.551754 112.525791 113.260682 113.999136
11.050000 112.361666 113.045471 113.770634 113.790171 114.515170 115.272231
11.090000 113.067088 113.742134 114.434235 114.463294 115.162082 116.050782
11.130000 113.767619 114.440527 115.163020 115.199801 115.990867 116.868939
11.170000 114.441818 115.128166 115.978016 116.027048 116.938959 117.968608
11.210000 115.232028 116.046969 117.034941 117.082801 118.105287 119.119913
11.250000 116.387108 117.346023 118.412639 118.421075 119.495187 120.422051
11.290000 117.327715 118.442618 119.470514 119.443462 120.426869 121.493780
11.330000 118.400064 119.413883 120.456528 120.437787 121.396460 122.685012
11.370000 119.437526 120.311013 121.384057 121.405571 122.508499 123.506734
11.410000 120.332718 121.348062 122.414423 122.409000 123.537318 124.452205
11.450000 121.098077 122.135685 123.337441 123.285320 124.373562 125.271878
11.490000 122.016255 123.014062 124.231920 124.195613 125.315404 126.155226
11.530000 123.028794 124.084857 125.183627 125.173597 126.264684 127.364975
11.570000 124.134441 125.190928 126.264418 126.294499 127.365034 128.506657
11.610000 125.584627 126.616202 127.753929 127.768802 128.880808 130.305984
11.650000 127.567018 128.458924 129.619014 129.662207 130.887041 132.068398
11.690000 128.753273 129.654836 130.864195 130.898348 132.180843 133.080794
11.730000 129.847980 130.931171 132.194273 132.126401 133.333660 134.082151
11.760000 130.649737 131.830795 133.055542 132.935068 133.974279 134.677609
11.800000 131.771218 132.858044 134.038169 133.919894 134.853414 135.526786
11.840000 132.971735 134.118965 134.989422 134.954745 135.826624 136.556812
11.880000 134.257455 135.183881 136.064980 136.117768 137.040109 138.315379
11.920000 135.161528 136.041059 136.958549 137.093600 138.193506 139.608721
11.960000 136.005229 136.787775 137.848270 137.965772 139.143714 140.608864
12.000000 136.752221 137.551422 138.710604 138.816769 140.162242 141.401413
12.040000 137.424892 138.305485 139.596650 139.662102 141.051082 142.184376
12.080000 138.165991 139.177901 140.475370 140.497345 141.826753 142.936834
12.120000 138.779638 140.098439 141.338697 141.335029 142.606024 143.696747
12.160000 139.721941 140.931921 142.244429 142.197644 143.459566 144.517162
12.200000 140.590243 141.751975 143.019887 142.991033 144.203472 145.385951
12.240000 141.320877 142.554036 143.739072 143.749622 144.949423 146.139296
12.280000 142.166046 143.292473 144.536913 144.534540 145.686149 146.941971
12.320000 142.947705 144.116413 145.331753 145.342664 146.462706 147.845547
12.360000 143.784589 145.027272 146.190577 146.199020 147.345890 148.861288
12.400000 144.736784 145.861038 147.050391 147.094731 148.335450 149.911994
12.440000 145.386574 146.638912 147.876163 147.959183 149.254569 150.975467
12.480000 146.193874 147.571862 148.737565 148.847132 150.161277 151.680895
12.520000 147.076538 148.355874 149.595950 149.702889 151.098038 152.748532
12.560000 147.648652 149.107495 150.467952 150.562106 152.030165 153.841263
12.600000 148.218157 149.898588 151.305915 151.391710 152.934733 154.641094
12.640000 149.149335 150.697282 152.233900 152.225765 153.801139 155.393915
12.680000 149.933174 151.447422 153.100105 153.076589 154.679283 156.155700
12.720000 150.575954 152.362938 154.017798 153.962548 155.475969 156.978172
12.760000 151.408966 153.321364 154.935462 154.823140 156.285330 157.622577
12.800000 152.317001 154.188204 155.720728 155.606612 156.998046 158.315901
12.840000 153.323804 154.967483 156.454562 156.385512 157.748945 158.948290
12.920000 154.927871 156.426346 157.834823 157.775329 159.085980 160.218108
12.960000 155.860021 157.190398 158.577186 158.502529 159.780118 160.931751
13.000000 156.545782 157.921038 159.319304 159.257126 160.566808 161.700015
13.040000 157.466185 158.678856 160.070249 160.041786 161.355380 162.579237
13.080000 158.155664 159.586259 160.887700 160.883627 162.206947 163.698706
13.120000 158.895204 160.449335 161.696285 161.725923 163.042002 164.347591
13.160000 159.827933 161.356025 162.580043 162.582891 163.826385 165.243501
13.200000 160.741922 162.154552 163.397002 163.396305 164.667878 166.057483
13.240000 161.563251 162.837012 164.179962 164.179788 165.540835 166.765699
13.250000 161.722171 163.045142 164.351721 164.371928 165.725102 166.973974
13.290000 162.375880 163.751173 165.062425 165.058362 166.424062 167.565105
13.370000 163.590038 165.022535 166.341581 166.330871 167.719582 168.654425
13.410000 164.262431 165.646413 167.096719 167.012607 168.378695 169.201452
13.450000 165.040490 166.373064 167.768202 167.670058 169.021871 169.867750
13.490000 165.783985 167.013978 168.452026 168.300802 169.587292 170.413167
13.530000 166.366172 167.642225 169.121588 168.955332 170.167018 170.984479
13.570000 167.103478 168.379283 169.775690 169.622276 170.785082 171.548866
13.610000 167.751349 169.035647 170.398060 170.230876 171.297303 172.134984
13.650000 168.464668 169.699606 170.969967 170.825852 171.813823 172.713242
13.690000 169.119510 170.364242 171.532591 171.421650 172.387174 173.296144
13.730000 169.744820 171.040253 172.123851 172.032702 172.974868 174.028597
13.770000 170.489741 171.670622 172.733926 172.647963 173.597446 174.645046
13.810000 171.179418 172.268687 173.299110 173.251524 174.177626 175.258169
13.850000 171.838989 172.942318 173.843981 173.859662 174.793363 175.916036
13.890000 172.469817 173.547788 174.486947 174.486587 175.466922 176.475049
13.930000 173.042841 174.214515 175.158417 175.167392 176.210573 177.203839
13.970000 173.732865 174.862034 175.872394 175.902654 176.997536 177.985970
14.010000 174.479599 175.555571 176.624846 176.683328 177.887540 179.085575
14.050000 175.122484 176.120389 177.328947 177.375231 178.668108 179.788865
14.090000 175.755060 176.683221 177.963894 178.027239 179.373858 180.684958
14.130000 176.349824 177.235864 178.610455 178.647876 180.049041 181.347977
14.170000 176.905709 177.850538 179.224033 179.284937 180.715392 182.160490
14.210000 177.490563 178.408796 179.814357 179.904225 181.414444 182.772722
14.250000 177.958365 179.008636 180.490637 180.553696 182.153665 183.573974
14.290000 178.460491 179.666745 181.133408 181.211789 182.815839 184.174674
14.330000 179.057464 180.260672 181.904328 181.899483 183.528064 184.758314
14.370000 179.670894 180.916020 182.720722 182.616467 184.206798 185.316259
14.410000 180.254900 181.596677 183.521058 183.345238 184.939595 185.953295
14.450000 180.950398 182.464798 184.317398 184.099254 185.595914 186.435841
14.490000 181.761184 183.375777 185.051821 184.826715 186.208524 186.915615
14.530000 182.422157 184.283797 185.761151 185.530344 186.705542 187.471975
14.570000 183.138974 185.182120 186.468984 186.250766 187.348658 187.998447
14.610000 184.247181 186.100456 187.157590 186.980419 187.906545 188.543382
14.650000 185.043236 186.910327 187.824352 187.679222 188.517717 189.147014
14.690000 186.335688 187.684769 188.490064 188.388992 189.128193 189.789251
14.730000 187.270946 188.328086 189.104138 189.024663 189.721219 190.394678
14.750000 187.676380 188.653762 189.397610 189.354007 190.049566 190.762580
14.790000 188.374327 189.270168 189.965295 189.971490 190.642304 191.578830
14.830000 189.280098 189.910013 190.572242 190.637520 191.395313 192.561607
14.870000 189.861222 190.569218 191.280952 191.396407 192.252450 193.594980
14.910000 190.589038 191.290505 192.109185 192.248332 193.276992 194.606694
14.990000 192.027122 192.832640 194.046715 194.049858 195.211231 196.341475
15.030000 192.666155 193.688301 194.974237 194.924981 196.114482 197.022251
15.070000 193.362375 194.585164 195.815274 195.739684 196.871184 197.687643
15.110000 194.129942 195.458024 196.608092 196.537573 197.606752 198.460816
15.150000 194.951178 196.315613 197.250015 197.226805 198.223028 199.081968
15.230000 196.490463 197.450242 198.327057 198.333987 199.251130 200.102131
15.270000 197.126103 198.034226 198.847919 198.886535 199.797409 200.588477
15.310000 197.666581 198.523881 199.351280 199.398191 200.280808 201.116736
15.350000 198.291773 199.009313 199.827933 199.896037 200.821887 201.638638
15.390000 198.833648 199.504168 200.348130 200.392933 201.287226 202.118853
15.430000 199.297181 199.983203 200.817051 200.879257 201.800198 202.607711
15.470000 199.749755 200.463539 201.340848 201.371199 202.312018 203.143576
15.510000 200.193246 200.920735 201.799080 201.857957 202.818387 203.742490
15.550000 200.621065 201.351856 202.285198 202.358641 203.373163 204.291586
15.590000 201.091699 201.855264 202.832012 202.893586 203.994658 204.916217
15.630000 201.576587 202.350889 203.419318 203.468911 204.601391 205.590280
15.670000 202.007160 202.891983 204.023076 204.065659 205.220010 206.313368
15.710000 202.523027 203.487680 204.623595 204.674914 205.822394 207.041928
15.750000 203.057670 204.071772 205.254297 205.272216 206.409812 207.688728
15.790000 203.589284 204.696806 205.873581 205.875348 207.059809 208.167202
15.910000 205.151363 206.469100 207.638135 207.593694 208.670969 209.805518
15.950000 205.907827 207.107836 208.261666 208.212281 209.271599 210.338952
15.990000 206.505134 207.820576 208.826050 208.805120 209.803157 210.745948
16.030000 207.300649 208.475345 209.392173 209.391735 210.364948 211.259490
16.070000 207.965726 209.109123 210.018192 209.976258 210.869247 211.724391
16.110000 208.802352 209.787525 210.574994 210.576347 211.429894 212.253273
16.150000 209.612055 210.457280 211.192653 211.208652 211.977575 212.706761
16.190000 210.241887 211.055079 211.744876 211.780226 212.526735 213.325500
16.230000 210.946167 211.616409 212.309612 212.325374 213.080118 213.822285
16.250000 211.275722 211.882199 212.571433 212.603370 213.354567 214.086514
16.290000 211.749178 212.380611 213.083216 213.118854 213.877064 214.541667
16.330000 212.205784 212.898045 213.600109 213.625388 214.376331 215.050100
16.370000 212.756694 213.363741 214.111275 214.129009 214.916513 215.580240
16.410000 213.203281 213.892816 214.619059 214.631971 215.401870 216.192240
16.450000 213.739312 214.414378 215.175475 215.176796 215.925257 216.809812
16.490000 214.292615 215.006848 215.792779 215.792656 216.538353 217.406376
16.530000 214.930045 215.730734 216.548650 216.539711 217.343389 218.002088
16.570000 215.982134 216.731693 217.524223 217.503189 218.256493 219.086325
16.610000 216.918766 217.782501 218.501030 218.557394 219.357351 220.287483
16.650000 217.817843 218.542319 219.357032 219.395702 220.245051 221.182019
16.690000 218.533619 219.222486 220.062629 220.115316 220.994376 222.186187
16.730000 219.239781 219.882398 220.767774 220.864542 221.787248 223.071271
16.770000 219.804544 220.566948 221.523459 221.587150 222.617816 223.814851
16.810000 220.430370 221.196096 222.249578 222.301684 223.413547 224.534882
16.850000 221.098289 221.878185 222.955113 223.011391 224.174596 225.236632
16.890000 221.627514 222.581523 223.680535 223.740435 224.914636 225.875588
16.930000 222.240564 223.319464 224.408025 224.464358 225.639279 226.682977
16.970000 222.830277 224.020575 225.156978 225.181570 226.360910 227.484587
17.010000 223.522836 224.669982 225.878802 225.884079 227.085834 228.175648
17.050000 224.337382 225.403542 226.645527 226.629452 227.873173 228.946230
17.090000 224.979962 226.126821 227.363349 227.358601 228.585159 229.586692
17.130000 225.675639 226.919741 228.133522 228.137449 229.332275 230.426905
17.170000 226.370589 227.705165 228.944218 228.906761 230.137581 231.263660
17.210000 227.080175 228.442316 229.603758 229.597029 230.793959 231.859150
17.250000 227.749784 229.181276 230.317151 230.298795 231.496946 232.426622
17.290000 228.438832 229.936938 231.103636 231.028157 232.177557 233.042151
17.330000 229.502748 230.694684 231.819814 231.768518 232.865634 233.758467
17.370000 230.430576 231.489800 232.565087 232.493286 233.548793 234.274147
17.410000 231.199114 232.231383 233.291654 233.227849 234.202411 234.991159
17.450000 232.162714 233.032674 233.954406 233.952931 234.848734 235.719844
17.490000 232.906330 233.873740 234.739066 234.765024 235.667136 236.653137
17.530000 234.403556 235.244987 236.143387 236.190229 237.102759 238.402047
17.570000 235.653313 236.612263 237.533292 237.563167 238.520925 239.562640
17.610000 236.934662 237.851721 238.771329 238.783974 239.748216 240.718659
17.650000 237.928701 238.832778 239.819073 239.839118 240.864703 241.788717
17.690000 238.986119 239.971592 240.995992 240.987736 242.024956 242.917748
17.730000 240.295867 241.208303 242.137212 242.122830 243.053823 243.784314
17.750000 240.721117 241.590900 242.575762 242.537279 243.429579 244.178223
17.790000 241.591544 242.430619 243.314744 243.278348 244.072259 244.833653
17.830000 242.316415 243.257509 244.057884 244.031466 244.837854 245.428227
17.870000 243.263392 244.022877 244.799062 244.816417 245.629136 246.408266
17.910000 244.101827 244.823342 245.517359 245.548532 246.301169 247.110774
17.950000 244.759220 245.514122 246.261507 246.268887 247.041905 247.865292
17.990000 245.501749 246.221558 246.991886 246.990253 247.762622 248.558790
18.030000 246.078506 246.856308 247.669257 247.698868 248.540583 249.361289
18.070000 246.749933 247.604029 248.443725 248.450909 249.335830 250.050565
18.110000 247.484473 248.307670 249.186806 249.211554 250.099711 250.921347
18.150000 248.044017 248.967917 249.907313 249.872117 250.738384 251.594806
18.190000 248.812937 249.632981 250.530458 250.501208 251.361623 252.188353
18.230000 249.464402 250.211882 251.079441 251.083537 251.918664 252.721934
18.270000 250.002935 250.798719 251.615748 251.633006 252.517754 253.193385
18.310000 250.563792 251.331565 252.171735 252.173777 253.014615 253.868979
18.350000 251.080852 251.834080 252.694789 252.709693 253.541929 254.450977
18.390000 251.594986 252.385791 253.208742 253.264803 254.105681 255.151218
18.430000 252.095212 252.964113 253.810320 253.840474 254.714635 255.880807
18.470000 252.628217 253.501082 254.436645 254.451519 255.333378 256.680332
18.510000 253.124260 254.110930 255.057377 255.117871 256.079246 257.392698
18.550000 253.815643 254.694770 255.712035 255.827787 256.964946 258.371755
18.590000 254.312276 255.311936 256.361510 256.480378 257.698982 259.233939
18.630000 254.756279 255.853894 257.002314 257.120955 258.406912 259.900367
18.670000 255.326825 256.490900 257.628277 257.751130 259.056217 260.797085
18.710000 255.795783 257.037103 258.254614 258.380112 259.823546 261.485180
18.750000 256.333262 257.622333 258.894746 259.039787 260.531827 262.281218
18.790000 256.968791 258.205724 259.530752 259.699155 261.227611 263.059892
18.830000 257.500327 258.865159 260.260303 260.396364 262.086897 263.769362
18.870000 258.000921 259.481891 261.037635 261.120204 262.849706 264.496927
18.910000 258.601838 260.140174 261.809001 261.834986 263.501624 265.149525
18.950000 259.221895 260.848371 262.596883 262.578296 264.300180 265.848144
18.990000 259.876747 261.559642 263.410122 263.342391 265.081571 266.576135
19.030000 260.703419 262.235542 264.156517 264.074024 265.782122 267.273494
19.070000 261.346302 263.098598 264.938697 264.800884 266.519496 267.880724
19.110000 261.993971 263.841598 265.641411 265.507278 267.125244 268.349478
19.150000 262.857382 264.547590 266.285977 266.190533 267.800157 268.817369
19.190000 263.399324 265.318620 267.001461 266.843461 268.344595 269.313994
19.230000 264.093022 266.007889 267.689222 267.488751 268.910284 269.820730
19.250000 264.521349 266.400170 267.990208 267.792459 269.172536 270.111364
19.290000 265.259138 267.129670 268.539746 268.364571 269.653812 270.553608
19.330000 265.989036 267.712372 269.096563 268.917776 270.150276 270.938632
19.370000 266.633227 268.296774 269.605914 269.465340 270.622157 271.320180
19.410000 267.382858 268.865585 270.103524 269.970651 271.078004 271.763715
19.450000 268.027023 269.472361 270.588660 270.468263 271.509577 272.203646
19.490000 268.689206 270.001980 271.041068 270.964939 271.953645 272.679463
19.530000 269.289706 270.516611 271.513908 271.456758 272.412548 273.098633
19.570000 269.964691 271.059736 272.031554 271.955470 272.879867 273.647219
19.610000 270.575379 271.579090 272.521928 272.461576 273.353921 274.094274
19.650000 271.082080 272.094459 273.081746 272.992110 273.866474 274.698928
19.690000 271.566561 272.619158 273.572078 273.501636 274.365097 275.270189
19.730000 272.033144 273.116803 274.087466 274.002580 274.860313 275.723502
19.770000 272.504254 273.600608 274.553840 274.500633 275.407292 276.302937
19.810000 272.958429 274.070016 275.024963 274.997193 275.936552 276.838655
19.850000 273.468815 274.600168 275.503806 275.485203 276.416491 277.318670
19.890000 274.061047 275.120060 275.985248 276.000303 276.952644 277.819889
19.930000 274.528195 275.581551 276.500623 276.503283 277.513052 278.356968
19.970000 274.998340 276.104317 277.042771 277.044483 278.086123 278.903696
20.010000 275.453941 276.579694 277.580591 277.566109 278.579279 279.472145
20.050000 276.030874 277.117719 278.121856 278.098907 279.118041 279.909182
20.090000 276.636598 277.655464 278.645379 278.634513 279.629611 280.397755
20.130000 277.402297 278.314785 279.186688 279.204784 280.132213 280.955765
20.170000 278.125565 278.997744 279.938664 279.903084 280.781189 281.616043
20.250000 279.644730 280.591422 281.552870 281.513855 282.411910 283.288819
20.290000 280.893276 281.771119 282.724620 282.693813 283.570063 284.376936
20.330000 281.917302 282.812392 283.682223 283.631653 284.442897 285.156471
20.370000 282.766773 283.565799 284.373660 284.320234 285.062691 285.777612
20.410000 283.291292 284.136848 284.912328 284.908423 285.690004 286.379079
20.450000 283.984402 284.695061 285.451973 285.446653 286.212690 286.843710
20.490000 284.527918 285.224777 285.960133 285.958128 286.701452 287.280473
20.530000 285.014209 285.749759 286.499119 286.477823 287.218998 287.765240
20.570000 285.515785 286.313241 287.037733 286.995171 287.665485 288.283514
20.610000 286.093664 286.874037 287.568313 287.531041 288.206348 288.819528
20.650000 286.600992 287.371318 288.071946 288.023593 288.668940 289.240578
20.690000 287.187244 287.865501 288.520190 288.498511 289.116560 289.675423
