depth(m) lower_95(kyr) lower_68(kyr) median(kyr) mean(kyr) upper_68(kyr) upper_95(kyr)
11.520000 98.160420 99.054926 99.969049 99.980163 100.915281 101.852602
11.620000 98.905526 99.811134 100.767222 100.769788 101.687374 102.665050
11.720000 99.560480 100.583675 101.542786 101.565373 102.552130 103.687245
11.800000 100.220540 101.205561 102.212233 102.237568 103.262630 104.588641
11.880000 100.867867 101.858331 102.892199 102.936117 104.080046 105.377969
11.980000 101.627940 102.642640 103.781234 103.841352 105.032258 106.359829
12.080000 102.333012 103.484269 104.787763 104.764158 105.989387 107.324372
12.180000 103.146237 104.325713 105.671022 105.647841 106.957650 108.197967
12.280000 103.947603 105.154413 106.545554 106.539886 107.869440 108.960787
12.380000 104.799701 106.078783 107.522272 107.478902 108.854686 109.937504
12.480000 105.715608 107.033518 108.553336 108.450144 109.803932 110.919906
12.580000 106.642585 108.013097 109.493857 109.383166 110.720620 111.842170
12.680000 107.517062 109.046808 110.382338 110.302097 111.586516 112.502558
12.780000 108.640986 110.170795 111.388930 111.288649 112.464041 113.302908
12.880000 109.749153 111.368654 112.434966 112.337775 113.354488 114.300980
12.980000 111.196239 112.662270 113.614149 113.580413 114.555494 115.557356
13.080000 112.944554 114.085946 115.149820 115.208855 116.401763 117.766633
13.180000 115.252208 116.281840 117.671748 117.660254 119.033187 119.995918
13.280000 117.210653 118.510470 119.726874 119.677968 120.819118 121.845839
13.380000 118.878881 119.973253 121.010177 120.968048 121.935751 122.760859
13.480000 120.096133 121.034654 121.996154 121.948372 122.840234 123.696770
13.580000 120.939352 121.902514 122.797597 122.787806 123.679529 124.386697
13.680000 121.683476 122.658741 123.653094 123.570732 124.439477 125.085783
13.780000 122.437501 123.412979 124.396491 124.332864 125.236472 125.913075
13.880000 123.366924 124.232874 125.175474 125.137288 126.037455 126.821546
13.980000 124.172238 125.108364 125.968228 125.975568 126.854835 127.645984
14.080000 125.126590 125.962623 126.825711 126.852004 127.721117 128.812010
14.180000 126.188485 126.936051 127.872307 127.921491 128.839582 130.128444
14.230000 126.650589 127.486701 128.439082 128.519874 129.541648 130.933850
14.345000 127.858598 128.851468 130.126476 130.225967 131.691788 132.834379
14.460000 129.394895 130.720271 132.164837 132.075810 133.410706 134.277257
14.510000 130.033017 131.447417 133.016957 132.827234 134.086740 134.834606
14.610000 131.580899 133.153135 134.343869 134.207492 135.246604 135.976628
14.710000 133.298693 134.470541 135.405496 135.365527 136.244404 137.006794
14.810000 134.442705 135.499970 136.315711 136.303686 137.139428 137.930196
14.910000 135.252404 136.211375 137.051653 137.052310 137.872014 138.683349
15.010000 135.980446 136.861301 137.758124 137.745420 138.599554 139.454688
15.110000 136.651526 137.551795 138.419594 138.417674 139.281204 140.135868
15.210000 137.303715 138.224564 139.081365 139.075740 139.948396 140.826007
15.310000 137.893790 138.833026 139.732129 139.723014 140.616095 141.520622
15.410000 138.545586 139.469376 140.368051 140.370912 141.264348 142.182632
15.510000 139.154057 140.118398 141.033379 141.032399 141.910620 142.860284
15.610000 139.755574 140.756676 141.706099 141.699461 142.624724 143.718531
15.710000 140.436439 141.381053 142.351174 142.382757 143.364700 144.544002
15.810000 141.097739 142.030612 143.016879 143.072734 144.052995 145.344819
15.910000 141.821077 142.653429 143.725611 143.777070 144.850036 146.392413
16.010000 142.402166 143.381089 144.450298 144.552116 145.694770 147.325482
16.110000 143.135655 144.144441 145.229479 145.371653 146.612576 148.368852
16.210000 143.983114 144.860856 146.018070 146.209283 147.490284 149.540965
16.310000 144.687174 145.675135 146.931516 147.131579 148.618058 150.683481
16.410000 145.461513 146.544757 147.935977 148.118203 149.679906 151.766581
16.510000 146.374135 147.423607 148.947145 149.145358 150.912635 152.892520
16.610000 147.275559 148.436970 150.051594 150.216389 152.082301 153.925397
16.710000 148.188369 149.536246 151.207677 151.344547 153.255154 155.034414
16.810000 148.974010 150.497384 152.416788 152.509196 154.490778 156.336946
16.910000 149.960388 151.593665 153.610452 153.652321 155.562029 157.692911
17.010000 151.012042 152.711587 154.711715 154.740874 156.700974 158.621059
17.110000 152.222532 153.874936 155.792061 155.868247 157.842346 159.597617
17.210000 153.502612 155.128418 156.973693 157.000234 158.849768 160.502850
17.310000 154.718270 156.426795 158.126232 158.149669 159.959680 161.518973
17.410000 155.993055 157.631501 159.363392 159.338614 161.014006 162.578244
17.510000 157.356579 158.833057 160.535578 160.484253 162.124617 163.574006
17.610000 158.268706 159.849658 161.479428 161.446794 163.045965 164.534065
17.710000 159.215272 160.744108 162.327467 162.337504 163.971337 165.528993
17.810000 159.963749 161.569120 163.137392 163.169278 164.808939 166.343918
17.910000 160.903598 162.361335 164.019405 164.041340 165.698921 167.256880
18.010000 161.790745 163.142518 164.876942 164.914525 166.622872 168.069735
18.110000 162.620094 163.961475 165.809557 165.777245 167.436459 169.030001
18.210000 163.522622 164.875995 166.694842 166.663540 168.261776 169.953581
18.310000 164.383779 165.830096 167.686092 167.623791 169.177215 171.271764
18.410000 165.346637 167.065363 168.740666 168.685328 170.242573 172.480868
18.510000 166.450393 168.173947 169.865523 169.916657 171.520571 174.684617
18.610000 167.688161 169.487059 171.179875 171.333380 173.079560 176.477774
18.710000 169.108992 170.857568 172.551526 172.799305 174.895307 177.656621
18.810000 170.424533 172.093779 174.104141 174.318907 176.673217 179.477520
18.910000 171.552056 173.394846 175.763156 175.900245 178.509954 180.896360
19.010000 172.584423 175.022329 177.673026 177.675186 180.508987 182.229633
19.110000 173.899072 176.541154 179.886307 179.499982 182.305363 183.587270
19.210000 175.621964 178.390864 182.005111 181.332130 183.758564 184.841488
19.310000 177.734824 181.078339 183.697193 183.220179 185.210756 186.439952
19.410000 180.667675 183.853444 185.444406 185.141136 186.570653 187.561955
19.510000 185.038671 185.929419 186.923806 186.921038 187.935760 188.798347
