depth(m) lower_95(kyr) lower_68(kyr) median(kyr) mean(kyr) upper_68(kyr) upper_95(kyr)
7.280000 98.843576 99.774539 100.726879 100.731969 101.684158 102.707241
7.320000 99.807615 100.826524 101.973718 102.022446 103.220945 104.532231
7.350000 100.477049 101.680032 102.957316 102.994737 104.310298 105.814171
7.380000 101.135706 102.666251 103.934027 103.946165 105.317922 106.785417
7.420000 102.230647 103.869375 105.322444 105.296468 106.714061 107.924834
7.450000 103.245343 104.916572 106.300844 106.238056 107.592654 108.781475
7.480000 104.385228 105.771655 107.242527 107.146176 108.430831 109.619979
7.520000 105.706762 107.221812 108.537304 108.436982 109.671821 110.542362
7.550000 106.957389 108.158543 109.353549 109.321297 110.469343 111.262423
7.580000 107.886281 109.163015 110.210753 110.169419 111.254151 112.156349
7.620000 109.246939 110.326033 111.368129 111.332436 112.364718 113.160240
7.650000 110.174097 111.279148 112.351972 112.289380 113.274401 114.170514
7.680000 111.045626 112.355933 113.428991 113.365971 114.357322 115.302983
7.720000 112.523868 113.658397 114.637892 114.627078 115.625436 117.021919
7.750000 113.559316 114.641986 115.613725 115.695951 116.821790 118.026086
7.780000 115.194302 116.099315 117.259054 117.281587 118.468569 119.538227
7.820000 117.122113 118.133137 119.246084 119.221282 120.298619 121.240002
7.850000 118.335537 119.252135 120.279990 120.249782 121.223945 122.064861
7.880000 119.095576 120.093268 120.976135 120.974716 121.905129 122.547906
7.920000 120.095098 120.988447 121.832175 121.793519 122.573688 123.240866
7.950000 120.835959 121.557864 122.399450 122.338395 123.058147 123.680108
7.980000 121.293819 122.084664 122.876901 122.816722 123.495905 124.122710
8.020000 121.907824 122.725428 123.440831 123.399393 124.075310 124.787072
8.050000 122.322920 123.170201 123.840453 123.816167 124.466518 125.228041
8.080000 122.775682 123.587528 124.237369 124.242240 124.878043 125.738574
8.120000 123.483105 124.159539 124.806572 124.822959 125.446386 126.368427
8.150000 123.936572 124.610249 125.253244 125.303881 126.000358 126.973768
8.180000 124.522325 125.132435 125.782507 125.841673 126.547684 127.569024
8.220000 125.247872 125.891709 126.601500 126.688423 127.535980 128.495186
8.250000 126.055805 126.700388 127.499530 127.540083 128.418961 129.216645
8.280000 126.877665 127.607511 128.429399 128.458452 129.324708 129.984791
8.320000 127.862369 128.622743 129.500781 129.487043 130.344926 131.146975
8.350000 128.490943 129.248263 130.093707 130.085855 130.915337 131.751707
8.380000 129.014841 129.776727 130.672578 130.648838 131.486414 132.168998
8.400000 129.376460 130.134101 131.072233 131.009243 131.830800 132.466384
8.420000 129.780448 130.524718 131.460810 131.371615 132.171197 132.840141
8.450000 130.259710 131.099005 131.917925 131.874023 132.612640 133.252799
8.480000 130.891391 131.628563 132.400281 132.375503 133.098264 133.708801
8.520000 131.560223 132.298506 132.999816 132.986482 133.661299 134.296563
8.550000 132.101590 132.826791 133.464908 133.457203 134.086567 134.773207
8.580000 132.616796 133.291090 133.899554 133.903190 134.502168 135.172589
8.600000 132.934303 133.573664 134.184276 134.189621 134.758800 135.397060
8.620000 133.283611 133.856244 134.461259 134.458802 135.025253 135.695364
8.650000 133.638794 134.240719 134.809709 134.817763 135.353895 136.089393
8.680000 133.986638 134.577864 135.169639 135.160226 135.710468 136.392513
8.720000 134.420724 135.021263 135.588519 135.595500 136.136432 136.822931
8.750000 134.763337 135.358986 135.937996 135.939515 136.491700 137.230758
8.780000 135.106554 135.710981 136.288008 136.319268 136.877460 137.636121
8.800000 135.402274 135.968472 136.551333 136.588226 137.171783 137.999413
8.820000 135.666828 136.203472 136.832179 136.866759 137.479713 138.276970
8.850000 136.102015 136.612609 137.299339 137.356155 138.007468 139.259482
8.880000 136.507122 137.101689 137.843881 137.912490 138.693250 139.904653
8.920000 137.039881 137.738030 138.626681 138.699515 139.681421 140.800589
8.950000 137.539069 138.243487 139.241107 139.285223 140.287462 141.381636
8.980000 137.937394 138.766857 139.933552 139.887177 140.934904 141.836214
9.000000 138.185577 139.111459 140.381400 140.292045 141.388157 142.163260
9.020000 138.453748 139.541447 140.809376 140.683490 141.740576 142.529845
9.050000 138.756299 140.141598 141.292044 141.198190 142.271530 143.039038
9.080000 139.278421 140.603097 141.784718 141.674377 142.724602 143.559212
9.120000 139.806837 141.293508 142.361476 142.260078 143.214854 144.040712
9.150000 140.225180 141.665760 142.805526 142.676789 143.618452 144.519306
9.180000 140.653235 142.101989 143.199665 143.087313 144.039251 144.974694
9.220000 141.251113 142.652687 143.707523 143.611858 144.561864 145.653539
9.250000 141.675735 143.085868 144.118300 144.024741 144.967713 146.179481
9.280000 142.061991 143.582023 144.540921 144.472209 145.396870 146.631717
9.300000 142.411234 143.884477 144.842293 144.794949 145.732528 146.942638
9.320000 142.751199 144.274310 145.142873 145.127736 146.115618 147.290544
9.350000 143.353892 144.759420 145.586933 145.638585 146.645997 147.863762
9.380000 143.800894 145.163491 146.036505 146.119105 147.216155 148.347739
9.420000 144.366456 145.780483 146.627475 146.735252 147.858874 149.163850
9.450000 144.757329 146.163052 147.052040 147.177890 148.331856 149.612979
9.480000 145.157041 146.579397 147.485228 147.612330 148.833398 150.050853
9.500000 145.477059 146.882116 147.767495 147.914570 149.192032 150.375675
9.520000 145.879039 147.179059 148.099576 148.218516 149.466834 150.660283
9.550000 146.299953 147.629745 148.593295 148.682910 149.898085 151.045923
9.580000 146.847921 148.045257 149.042274 149.140936 150.357924 151.460535
9.620000 147.451073 148.576259 149.657459 149.711670 150.971920 152.010322
9.650000 147.885089 149.001066 150.110886 150.158290 151.392248 152.390723
9.680000 148.309332 149.474799 150.577148 150.603911 151.834426 152.807891
9.720000 148.818289 150.042946 151.174568 151.174152 152.396967 153.406586
9.750000 149.424530 150.528282 151.658850 151.630808 152.768678 153.756388
9.780000 149.770422 151.013124 152.095012 152.069060 153.176166 154.210058
9.820000 150.384487 151.558766 152.684665 152.638791 153.740085 154.705590
9.850000 150.886530 152.052312 153.137703 153.088950 154.160686 155.147130
9.890000 151.488529 152.671226 153.724223 153.692073 154.713269 155.678536
9.920000 151.832815 153.162218 154.159891 154.151442 155.186231 156.145679
9.950000 152.548654 153.681434 154.652030 154.647761 155.630427 156.592923
9.980000 153.149642 154.178548 155.151417 155.131232 156.063735 156.984490
10.020000 153.816247 154.769699 155.751840 155.718827 156.651705 157.502005
10.050000 154.348278 155.265913 156.161254 156.168196 157.105435 157.926957
10.080000 154.737057 155.737779 156.608252 156.612099 157.483684 158.332594
10.120000 155.286734 156.312644 157.154663 157.184371 158.069477 159.025964
10.150000 155.745997 156.771166 157.609812 157.631492 158.489253 159.450039
10.180000 156.155450 157.189512 158.053481 158.071235 158.978585 159.923402
10.220000 156.773252 157.741711 158.600237 158.639947 159.520455 160.550429
10.250000 157.233256 158.148040 159.044772 159.078039 159.988097 161.052728
10.280000 157.736660 158.566054 159.439205 159.487416 160.423745 161.525086
10.320000 158.304151 159.061821 159.975205 160.020037 160.937529 162.052372
10.350000 158.744333 159.472652 160.390532 160.437317 161.392694 162.430882
10.380000 159.138278 159.901475 160.776467 160.863162 161.869417 162.867791
10.420000 159.754600 160.446866 161.325056 161.424380 162.476679 163.464758
10.450000 160.085680 160.837822 161.727147 161.820320 162.859723 163.987614
10.480000 160.456635 161.205940 162.110771 162.224433 163.276410 164.498862
10.520000 160.931685 161.710357 162.635637 162.749302 163.804217 165.030457
10.550000 161.273441 162.061288 163.030805 163.142769 164.233299 165.383576
10.580000 161.721563 162.487406 163.476110 163.552914 164.647595 165.872307
10.620000 162.094807 162.920607 164.040974 164.087235 165.227932 166.414729
10.650000 162.498875 163.317436 164.464870 164.509627 165.696886 166.967729
10.680000 162.966193 163.770457 164.964991 164.967594 166.115677 167.463675
10.720000 163.477608 164.300510 165.522649 165.574187 166.864679 168.142815
10.750000 163.760402 164.718997 165.979275 166.046219 167.406390 168.699056
10.780000 164.170447 165.156159 166.459186 166.529606 167.894156 169.128403
10.820000 164.792655 165.884787 167.111572 167.204621 168.630687 169.945870
10.850000 165.264426 166.381635 167.634524 167.720912 169.122540 170.497910
10.880000 165.751162 166.878696 168.213200 168.273425 169.691023 171.345188
10.920000 166.358975 167.591052 168.945928 169.009926 170.375985 172.162660
10.950000 166.860445 168.194356 169.535168 169.606877 171.001677 172.903558
10.980000 167.414981 168.748687 170.116941 170.250027 171.796870 173.719183
11.020000 168.172891 169.429276 170.888685 171.101083 172.879452 174.907261
11.050000 168.687883 169.971291 171.580825 171.776634 173.706865 175.839179
11.080000 169.102168 170.590296 172.236847 172.457692 174.507000 176.552261
11.120000 169.845172 171.400772 173.460616 173.469828 175.563770 177.348811
11.150000 170.355042 172.079778 174.280524 174.188668 176.205974 178.055668
11.180000 170.988225 172.893516 175.038516 174.912126 176.862279 178.571742
11.220000 171.773343 174.094634 176.024129 175.867542 177.606539 179.173405
11.250000 172.468487 174.943717 176.730700 176.572646 178.139979 179.813003
11.280000 173.352204 175.798811 177.357844 177.225990 178.658750 180.185452
11.320000 175.087027 176.757505 178.188460 178.098532 179.410258 181.009025
11.350000 175.615914 177.432735 178.720156 178.704271 179.977923 181.552650
11.380000 176.350040 178.032585 179.260909 179.287911 180.609380 182.009409
11.410000 177.110885 178.588477 179.843617 179.859606 181.240866 182.565109
11.440000 177.729266 179.085220 180.388268 180.407241 181.876566 183.125810
11.460000 178.074990 179.391298 180.724501 180.763901 182.290549 183.402262
11.490000 178.719272 179.946378 181.286760 181.345190 182.882903 184.021585
11.520000 179.349737 180.510982 181.855654 181.934014 183.483951 184.744943
11.550000 179.919728 181.058450 182.461348 182.509774 184.063415 185.192403
11.580000 180.441180 181.659413 183.150872 183.114720 184.602108 185.625752
11.620000 181.090589 182.479053 184.066212 183.915448 185.272321 186.301340
11.650000 181.653100 183.065993 184.653197 184.501409 185.837723 186.814871
11.680000 182.397745 183.833085 185.253423 185.102823 186.277906 187.293158
11.720000 183.413360 184.743943 185.924424 185.827325 186.929159 187.831567
11.750000 184.098468 185.387100 186.473656 186.397724 187.420016 188.271011
11.780000 184.694171 186.009028 187.019178 186.956762 187.945110 188.792581
11.820000 185.603703 186.920259 187.775337 187.767079 188.697129 189.526998
11.850000 186.357268 187.561361 188.461484 188.415498 189.281865 190.184796
11.920000 188.307278 189.121653 189.932679 189.988722 190.855530 192.089909
11.950000 188.970958 189.836573 190.618986 190.722349 191.665396 192.929951
11.980000 189.806936 190.508506 191.377445 191.495080 192.558274 193.743388
12.020000 190.612358 191.410310 192.440845 192.559372 193.772287 194.853443
12.050000 191.189455 192.022445 193.276365 193.324524 194.650039 195.714697
12.080000 191.870019 192.843890 194.192893 194.192379 195.550282 196.548348
12.120000 192.723196 194.001322 195.439611 195.348043 196.595034 197.600110
12.150000 193.457474 194.941434 196.343073 196.250189 197.512741 198.495893
12.180000 194.258499 195.817762 197.165795 197.091087 198.315163 199.399328
12.220000 195.403672 196.920237 198.165290 198.138520 199.364269 200.503220
12.250000 196.154064 197.484360 198.780619 198.817441 200.126454 201.663562
12.280000 196.864664 198.041254 199.330853 199.423036 200.857265 202.447895
12.320000 197.609906 198.749513 200.085136 200.228225 201.786211 203.318648
12.350000 198.395712 199.430970 200.748639 200.869437 202.383595 203.875355
12.380000 199.080181 200.136786 201.411537 201.534239 203.003597 204.676336
12.420000 199.892759 201.011035 202.359793 202.481339 203.903770 205.662259
12.450000 200.687493 201.783420 203.105353 203.208989 204.580245 206.221442
12.480000 201.406497 202.614504 203.891356 203.986720 205.411529 206.726031
12.520000 202.614790 203.741779 204.929497 205.025925 206.422973 207.547786
12.550000 203.221054 204.500672 205.668584 205.720200 207.061276 208.136020
12.580000 203.865494 205.101916 206.401859 206.395289 207.705793 208.657632
12.620000 204.825989 206.060619 207.390578 207.296088 208.512631 209.412740
12.650000 205.641858 206.714025 208.008455 207.922735 209.099494 209.894472
12.680000 206.119320 207.371746 208.623709 208.547462 209.663472 210.500727
12.720000 207.049900 208.353796 209.487589 209.435447 210.492295 211.428390
12.750000 207.935161 209.237926 210.180852 210.163552 211.172965 212.117838
12.780000 208.724337 209.894306 210.912955 210.870355 211.846456 212.713963
12.820000 210.002810 210.831474 211.866165 211.808871 212.751275 213.547664
12.850000 210.571552 211.461908 212.436200 212.410357 213.378742 214.176754
12.880000 211.151914 212.043935 212.998101 212.960365 213.879742 214.642853
12.920000 211.800982 212.720469 213.655645 213.617942 214.495925 215.258323
12.950000 212.284072 213.191424 214.130323 214.090300 214.952007 215.652651
12.980000 212.792904 213.709609 214.615969 214.582664 215.446388 216.135237
13.020000 213.555623 214.456684 215.309065 215.260475 216.069437 216.827870
13.050000 214.101785 215.020260 215.881109 215.836324 216.604868 217.374026
13.080000 214.865129 215.714139 216.495086 216.470415 217.219807 217.980470
13.120000 215.767161 216.597256 217.359161 217.351942 218.091693 218.964151
13.150000 216.582174 217.370071 218.157911 218.159890 218.948299 219.691935
13.180000 217.431647 218.198855 218.957480 218.975453 219.734274 220.724287
13.220000 218.392665 219.146844 219.903514 219.967992 220.856071 221.753966
13.250000 218.997028 219.745440 220.541123 220.628323 221.558831 222.575083
13.280000 219.661558 220.338324 221.197828 221.294068 222.258036 223.285656
13.320000 220.392000 221.090862 222.058419 222.114548 223.134663 224.216129
13.350000 220.869619 221.598362 222.627910 222.692419 223.771539 224.697548
13.380000 221.286855 222.119213 223.167880 223.213072 224.362328 225.314333
13.420000 221.898304 222.709302 223.822852 223.865417 225.002921 225.924063
13.450000 222.377906 223.246676 224.319590 224.347723 225.449255 226.318367
13.480000 222.811138 223.814968 224.832527 224.829671 225.871402 226.782100
13.520000 223.426290 224.517630 225.535203 225.486862 226.522164 227.281034
13.550000 223.854128 225.028247 226.043180 225.989429 226.982158 227.658317
13.580000 224.458578 225.514360 226.553272 226.466513 227.413213 228.100285
13.620000 225.223153 226.219333 227.181182 227.107883 228.003728 228.653116
13.650000 225.704141 226.713177 227.621748 227.565008 228.393328 229.074572
13.680000 226.129878 227.165240 228.064978 227.997175 228.811391 229.524572
13.720000 226.780243 227.753878 228.607430 228.526800 229.278906 230.026624
13.750000 227.191589 228.136277 228.992920 228.920457 229.680926 230.374183
13.780000 227.639596 228.528603 229.335612 229.295027 230.066084 230.736505
13.820000 228.252012 229.001500 229.804700 229.779237 230.553733 231.173378
13.850000 228.605058 229.379213 230.188244 230.142667 230.862860 231.552884
13.880000 229.017594 229.784170 230.534297 230.510156 231.231964 231.909752
13.920000 229.579329 230.234704 231.005446 230.972627 231.681917 232.300267
13.950000 229.907797 230.634071 231.369092 231.332770 232.020357 232.669678
13.980000 230.293882 231.009973 231.720103 231.697299 232.352329 233.007604
14.020000 230.795526 231.492527 232.199929 232.170321 232.831383 233.464970
14.050000 231.152617 231.836937 232.552568 232.515939 233.173693 233.791598
14.080000 231.503019 232.158090 232.864258 232.848357 233.495168 234.105612
14.150000 232.199683 232.866766 233.543453 233.513057 234.138065 234.770425
14.180000 232.552484 233.188789 233.853718 233.830138 234.428136 235.058126
14.220000 232.975622 233.642376 234.274512 234.253455 234.847856 235.420280
14.250000 233.315728 233.997029 234.590064 234.593100 235.186080 235.756901
14.280000 233.705976 234.382687 234.989096 234.993621 235.612116 236.240975
