depth(m) lower_95(kyr) lower_68(kyr) median(kyr) mean(kyr) upper_68(kyr) upper_95(kyr)
6.760000 98.904297 99.698488 100.518126 100.542194 101.451914 102.239407
6.780000 99.246268 100.047920 100.854044 100.898396 101.830561 102.637665
6.800000 99.575930 100.422249 101.201839 101.258623 102.223209 103.104814
6.820000 99.940918 100.741135 101.618193 101.644091 102.633791 103.458410
6.840000 100.243992 101.073237 101.975643 102.033268 103.043935 103.846047
6.860000 100.629297 101.415126 102.405796 102.414391 103.478836 104.162613
6.880000 100.967419 101.748503 102.815481 102.786043 103.824323 104.480622
6.900000 101.366911 102.146605 103.203649 103.160060 104.133297 104.804984
6.920000 101.803476 102.519453 103.617488 103.521121 104.446664 105.111089
6.940000 102.135257 102.855719 104.004777 103.880415 104.744030 105.518995
6.960000 102.471542 103.246562 104.376132 104.240002 105.065937 105.876568
6.980000 102.847516 103.626046 104.702337 104.576329 105.337063 106.157964
7.000000 103.194549 103.965407 104.980815 104.887299 105.629052 106.495934
7.020000 103.541691 104.305231 105.251262 105.196243 105.983194 106.764437
7.040000 103.861583 104.608880 105.518259 105.488677 106.304718 107.013990
7.060000 104.098914 104.929261 105.765055 105.765625 106.561787 107.318544
7.080000 104.455594 105.243110 105.986022 106.026911 106.852000 107.562093
7.100000 104.760874 105.562629 106.227763 106.292945 107.147050 107.822740
7.120000 105.059879 105.885620 106.459456 106.550351 107.408343 108.062210
7.140000 105.364987 106.157858 106.685649 106.804978 107.691255 108.301060
7.160000 105.617602 106.409463 106.921366 107.058782 107.927311 108.552619
7.180000 105.876316 106.655958 107.164143 107.310869 108.185164 108.792282
7.200000 106.138521 106.893877 107.402092 107.565874 108.437542 108.999430
7.220000 106.470496 107.154741 107.677206 107.829892 108.692546 109.266525
7.240000 106.808260 107.412539 107.943127 108.093839 108.943796 109.489674
7.260000 107.155719 107.678351 108.199766 108.354952 109.195817 109.737681
7.280000 107.415855 107.940724 108.458954 108.613678 109.440396 109.902008
7.300000 107.682441 108.190764 108.750671 108.876327 109.675195 110.106844
7.320000 107.949782 108.443855 109.040960 109.130351 109.891677 110.322522
7.340000 108.238119 108.709519 109.334292 109.391411 110.125588 110.544112
7.360000 108.472069 108.972808 109.633328 109.644826 110.359429 110.753593
7.380000 108.732943 109.244627 109.897021 109.902404 110.590336 110.986872
7.400000 108.969446 109.489787 110.168376 110.155417 110.846697 111.208644
7.420000 109.291806 109.781732 110.420010 110.414037 111.068059 111.428243
7.440000 109.512922 110.042661 110.678229 110.669494 111.311906 111.668516
7.460000 109.780180 110.288737 110.920555 110.912883 111.527991 111.906799
7.480000 110.050334 110.580082 111.179573 111.163750 111.762587 112.107057
7.500000 110.287763 110.833630 111.412628 111.408984 112.006966 112.352602
7.520000 110.616568 111.107304 111.671797 111.663607 112.228703 112.627193
7.540000 110.871524 111.375465 111.917726 111.913134 112.472496 112.833994
7.560000 111.124331 111.650604 112.190681 112.169115 112.727837 113.060629
7.580000 111.398496 111.902764 112.431951 112.419027 112.963795 113.298529
7.600000 111.666867 112.181844 112.687183 112.671505 113.190536 113.542600
7.640000 112.143009 112.696993 113.192171 113.154519 113.631969 113.944961
7.660000 112.422132 112.955770 113.450318 113.407919 113.864772 114.213348
7.680000 112.785873 113.211479 113.696560 113.672206 114.124608 114.435741
7.720000 113.306104 113.731120 114.175385 114.152128 114.590195 114.856734
7.740000 113.593168 114.022424 114.446541 114.426967 114.822894 115.063845
7.760000 113.868406 114.314595 114.732468 114.700571 115.073706 115.347646
7.780000 114.179991 114.583271 115.006910 114.968658 115.327195 115.577224
7.800000 114.427144 114.883254 115.262533 115.232927 115.571659 115.834142
7.820000 114.722800 115.155419 115.515140 115.490146 115.810035 116.060749
7.840000 114.992648 115.439201 115.774632 115.740885 116.053605 116.305196
7.860000 115.248843 115.697191 116.002986 115.983573 116.281433 116.527099
7.880000 115.545488 115.943403 116.219855 116.207051 116.491607 116.747155
7.900000 115.834375 116.178070 116.439767 116.442304 116.710869 116.970322
7.920000 116.085183 116.402362 116.682374 116.671700 116.933542 117.213853
7.940000 116.295111 116.636579 116.910764 116.894824 117.158417 117.418220
7.960000 116.545339 116.852041 117.130881 117.117751 117.387805 117.651961
7.980000 116.813339 117.090024 117.345694 117.346718 117.603616 117.900294
8.000000 117.059609 117.314343 117.580065 117.581268 117.846458 118.095648
8.020000 117.309946 117.552093 117.819782 117.817340 118.067289 118.345729
8.040000 117.541686 117.794670 118.049693 118.051207 118.299148 118.561503
8.060000 117.790875 118.032914 118.283665 118.284407 118.520885 118.792545
8.080000 118.012514 118.252307 118.502622 118.509460 118.749085 119.016648
8.100000 118.247032 118.490339 118.714913 118.733006 118.965770 119.255813
8.120000 118.470551 118.699050 118.936121 118.952555 119.180783 119.487998
8.140000 118.683538 118.933858 119.164467 119.176426 119.406789 119.695796
8.160000 118.922028 119.155351 119.384955 119.397642 119.625696 119.929259
8.180000 119.162861 119.387204 119.606662 119.624350 119.851906 120.162238
8.200000 119.401604 119.605862 119.843631 119.855484 120.084218 120.373545
8.220000 119.603080 119.833349 120.070443 120.081753 120.302727 120.677613
8.240000 119.832786 120.068986 120.287511 120.310838 120.540699 120.917941
8.260000 120.054319 120.278391 120.510317 120.538177 120.761977 121.250825
8.280000 120.274779 120.503700 120.739128 120.765376 120.997608 121.565149
8.300000 120.503970 120.714714 120.959103 120.990808 121.212930 121.828344
8.320000 120.729371 120.936495 121.172603 121.214999 121.435278 122.125386
8.340000 120.963299 121.161423 121.388658 121.443176 121.658459 122.412725
8.360000 121.169848 121.379194 121.617186 121.667190 121.896822 122.660503
8.380000 121.376778 121.586007 121.831853 121.891854 122.133877 122.944575
8.400000 121.570234 121.813581 122.045750 122.127740 122.388897 123.251766
8.410000 121.712037 121.940135 122.159900 122.260926 122.533170 123.444098
8.420000 121.846174 122.073220 122.285938 122.398032 122.693266 123.636303
8.430000 121.964425 122.192851 122.412896 122.531416 122.883849 123.791046
8.440000 122.075681 122.320761 122.531734 122.668336 123.096374 123.968634
8.450000 122.210532 122.452467 122.659400 122.810410 123.332026 124.139065
8.460000 122.343338 122.575869 122.794747 122.953412 123.498490 124.299681
8.470000 122.462619 122.717881 122.923272 123.099919 123.729087 124.436429
8.480000 122.585938 122.848766 123.058386 123.246975 123.993856 124.568032
8.490000 122.741488 122.992169 123.197729 123.390583 124.143605 124.712716
8.500000 122.899439 123.127000 123.340137 123.536332 124.329303 124.845441
8.510000 123.044687 123.256545 123.474833 123.680781 124.507514 124.964700
8.520000 123.177329 123.399966 123.622544 123.827721 124.722911 125.081417
8.530000 123.296514 123.532629 123.767040 123.968404 124.877719 125.208549
8.540000 123.439452 123.667734 123.905968 124.106440 125.011644 125.330635
8.550000 123.569994 123.809648 124.046890 124.246762 125.154197 125.439847
8.560000 123.714028 123.942917 124.194766 124.387978 125.276531 125.563083
8.570000 123.866303 124.085724 124.332535 124.524317 125.397722 125.685090
8.580000 123.986618 124.227441 124.478558 124.657377 125.510485 125.792442
8.590000 124.135869 124.364845 124.613622 124.791560 125.636934 125.892762
8.600000 124.271750 124.515811 124.772866 124.929528 125.749070 126.005189
8.610000 124.406498 124.645901 124.929664 125.069809 125.877758 126.122294
8.620000 124.531696 124.780196 125.071883 125.209115 125.985451 126.241234
8.630000 124.644391 124.912331 125.214670 125.345065 126.104466 126.346292
8.640000 124.774557 125.059849 125.355959 125.483101 126.220674 126.481660
8.650000 124.899251 125.190063 125.507856 125.624474 126.332074 126.607170
8.660000 125.012254 125.332673 125.652862 125.762486 126.452340 126.725837
8.670000 125.118098 125.459501 125.806817 125.904423 126.580905 126.851074
8.680000 125.238614 125.599641 125.955189 126.046648 126.687868 126.949999
8.690000 125.360810 125.756758 126.096942 126.192918 126.816614 127.071377
8.700000 125.507639 125.901282 126.265821 126.336724 126.938843 127.213185
8.720000 125.789004 126.194785 126.567780 126.634839 127.180462 127.473160
8.730000 125.939796 126.359609 126.761382 126.800081 127.312839 127.631016
8.750000 126.261731 126.674793 127.107102 127.126679 127.595685 127.960382
8.760000 126.421989 126.858801 127.308125 127.319302 127.786105 128.184687
8.770000 126.584048 127.035018 127.522504 127.518367 127.979919 128.373518
8.780000 126.780217 127.242938 127.749263 127.725574 128.190417 128.617682
8.790000 126.987176 127.477764 127.954327 127.947336 128.402182 128.854836
8.810000 127.550715 128.008426 128.505866 128.532060 129.061345 129.714411
8.820000 127.800835 128.287069 128.772697 128.804762 129.351083 129.952627
8.830000 128.056703 128.512574 129.010373 129.052726 129.618764 130.155721
8.840000 128.302855 128.742344 129.262603 129.303354 129.900304 130.422894
8.850000 128.487908 128.970714 129.488208 129.549525 130.170721 130.789197
8.860000 128.773998 129.226110 129.753246 129.803110 130.424134 131.013660
8.870000 129.032996 129.456770 129.972715 130.039958 130.662436 131.255180
8.880000 129.231150 129.667946 130.251958 130.277946 130.924497 131.501233
8.890000 129.434960 129.903165 130.495236 130.528621 131.176246 131.766582
8.900000 129.681012 130.090347 130.781574 130.783417 131.423988 132.052598
8.910000 129.855100 130.289424 131.050444 131.024623 131.701991 132.316369
8.920000 130.046559 130.536874 131.309926 131.264564 131.927928 132.557319
8.930000 130.228369 130.759486 131.541768 131.493674 132.146741 132.793786
8.940000 130.443836 130.945960 131.764060 131.716737 132.355183 132.993011
8.950000 130.626793 131.187300 132.001950 131.958388 132.617811 133.232608
8.960000 130.831138 131.472357 132.249504 132.196487 132.829570 133.481239
8.970000 131.066272 131.751009 132.466859 132.426367 133.022653 133.774821
8.980000 131.295640 131.990558 132.690775 132.657835 133.239482 133.957448
8.990000 131.554520 132.286883 132.926653 132.884987 133.440707 134.193836
9.000000 131.887196 132.526968 133.164874 133.105964 133.631239 134.390806
9.010000 132.160629 132.748070 133.368950 133.322344 133.809777 134.591226
9.020000 132.382652 132.990230 133.572251 133.539836 134.003049 134.774354
9.030000 132.649223 133.196836 133.759162 133.739656 134.193696 134.965327
9.040000 132.827761 133.449668 133.928672 133.936548 134.362562 135.171932
9.050000 133.055162 133.641190 134.107685 134.122132 134.561787 135.402802
9.060000 133.305754 133.843041 134.277853 134.300885 134.734375 135.615184
9.070000 133.519152 134.033787 134.432658 134.475474 134.915735 135.722631
9.080000 133.743267 134.207862 134.617125 134.660978 135.101897 135.879099
9.090000 133.935192 134.410752 134.817772 134.864589 135.338283 136.064231
9.100000 134.190330 134.672146 135.037672 135.102953 135.559927 136.276819
9.110000 134.496431 134.919903 135.345456 135.396002 135.870850 136.555836
9.120000 134.757710 135.180033 135.648940 135.675234 136.189683 136.726704
9.130000 135.060731 135.452611 135.919220 135.963118 136.495768 136.990466
9.140000 135.271204 135.736053 136.194505 136.222414 136.741303 137.299634
9.150000 135.483951 135.978075 136.466297 136.470560 136.977902 137.593282
9.160000 135.797588 136.245601 136.737299 136.749693 137.243505 137.822282
9.170000 136.021222 136.522941 137.015659 137.019285 137.517784 138.050214
9.180000 136.285268 136.749484 137.292930 137.272768 137.777606 138.306599
9.190000 136.494586 136.984338 137.520861 137.517475 138.021692 138.514250
9.200000 136.690314 137.227876 137.757995 137.748577 138.257912 138.746215
9.210000 136.926985 137.445289 137.991415 137.972499 138.486900 139.004576
9.220000 137.112238 137.666604 138.225443 138.199115 138.690936 139.191876
9.230000 137.319877 137.950908 138.448247 138.425024 138.913013 139.438374
9.240000 137.509377 138.162220 138.649388 138.642782 139.154366 139.649789
9.250000 137.723294 138.348122 138.878693 138.856340 139.369703 139.848629
9.260000 137.982847 138.555432 139.083555 139.065550 139.572134 140.011765
9.270000 138.176092 138.768618 139.300879 139.282418 139.784155 140.267979
9.280000 138.378966 138.986070 139.501852 139.483705 139.977115 140.462688
9.290000 138.664840 139.194194 139.693189 139.688080 140.207978 140.685675
9.300000 138.860873 139.376352 139.887477 139.887950 140.395859 140.905646
9.320000 139.293515 139.763303 140.270566 140.295201 140.831151 141.334780
9.330000 139.515099 139.966891 140.503592 140.518680 141.098876 141.581531
9.340000 139.684678 140.180082 140.709646 140.730326 141.311192 141.793955
9.350000 139.864612 140.399691 140.928336 140.950478 141.541400 141.978817
9.360000 140.112588 140.595038 141.172569 141.180606 141.771461 142.236954
9.370000 140.347280 140.796697 141.429753 141.412327 142.022466 142.492461
9.380000 140.519701 141.015543 141.653591 141.647302 142.237963 142.722477
9.390000 140.693005 141.238796 141.894453 141.877043 142.476041 143.010658
9.400000 140.934841 141.472510 142.129182 142.109416 142.722808 143.256228
9.410000 141.126239 141.689249 142.367238 142.340266 142.962198 143.535476
9.420000 141.324452 141.895553 142.587886 142.563173 143.187974 143.811185
9.430000 141.505200 142.098296 142.791996 142.784485 143.388259 144.093067
9.440000 141.730370 142.312189 143.028722 143.010145 143.614874 144.398643
9.450000 141.912491 142.532812 143.231276 143.224442 143.828303 144.563780
9.460000 142.107835 142.763350 143.429400 143.433174 144.065883 144.761125
9.470000 142.323637 143.003994 143.635817 143.647337 144.304436 144.945002
9.480000 142.584436 143.234586 143.869837 143.873497 144.560260 145.164394
9.490000 142.775831 143.442589 144.069677 144.089865 144.800882 145.377407
9.500000 143.032236 143.651966 144.280481 144.306313 145.028334 145.596790
9.510000 143.216705 143.878476 144.469142 144.518152 145.245095 145.812708
9.520000 143.424442 144.106496 144.684030 144.741254 145.464396 146.081086
9.530000 143.631310 144.302566 144.902895 144.966800 145.670772 146.333701
9.540000 143.846323 144.520338 145.142970 145.199197 145.912759 146.583271
9.550000 144.029735 144.738379 145.378772 145.427075 146.154453 146.841516
9.560000 144.255175 144.947627 145.622103 145.658394 146.443827 147.080993
9.570000 144.443742 145.136100 145.859302 145.887561 146.677311 147.379783
9.580000 144.639703 145.332386 146.084041 146.111916 146.910132 147.624039
9.590000 144.803817 145.529247 146.327986 146.338061 147.176187 147.901794
9.600000 145.008679 145.700865 146.565932 146.566540 147.393612 148.149624
9.610000 145.227819 145.935622 146.804921 146.798134 147.651315 148.401548
9.620000 145.459625 146.125113 147.042604 147.034094 147.898978 148.679978
9.630000 145.691238 146.370989 147.312714 147.278479 148.128505 148.903013
9.640000 145.927440 146.648183 147.579372 147.537846 148.376809 149.179902
9.660000 146.420872 147.217728 148.104163 148.083643 148.924753 149.826522
9.680000 146.866479 147.757525 148.634604 148.646528 149.504105 150.528836
9.690000 147.114241 148.024500 148.921668 148.901684 149.766252 150.748686
9.700000 147.266424 148.274703 149.150031 149.132962 149.986038 150.965245
9.710000 147.472786 148.549489 149.392331 149.375263 150.204795 151.301568
9.730000 147.975075 149.052399 149.869682 149.901012 150.742619 152.037495
9.740000 148.200194 149.313235 150.100659 150.132070 150.988265 152.296887
9.750000 148.369293 149.576265 150.347098 150.366860 151.223665 152.486201
9.760000 148.554246 149.813906 150.581746 150.594464 151.455467 152.661191
9.770000 148.776222 150.041201 150.828502 150.824062 151.666929 152.888385
9.780000 148.965064 150.267072 151.018473 151.039684 151.842951 153.104318
9.790000 149.208049 150.513489 151.224517 151.260785 152.059950 153.476589
9.800000 149.395727 150.733341 151.404083 151.475838 152.267782 153.806811
9.810000 149.569294 150.963055 151.590061 151.691039 152.466063 154.093877
9.820000 149.765085 151.228137 151.796649 151.910733 152.702893 154.386172
9.830000 149.993591 151.440566 151.963712 152.125533 152.969846 154.601453
9.840000 150.265167 151.656307 152.146289 152.336307 153.188238 154.817826
9.850000 150.555780 151.837011 152.359254 152.555523 153.455040 155.197193
9.860000 150.779798 152.036960 152.564556 152.771651 153.669396 155.485559
9.870000 151.042284 152.205615 152.751379 152.987992 153.907252 155.726804
9.880000 151.246962 152.381995 152.958273 153.208553 154.219880 155.918549
9.900000 151.836264 152.751469 153.397959 153.709193 154.824821 156.695950
9.910000 152.069397 152.964255 153.632288 153.952119 155.174050 157.124014
9.920000 152.368835 153.187971 153.870618 154.200053 155.443440 157.407474
9.930000 152.660939 153.425130 154.104904 154.450072 155.734236 157.660844
9.940000 152.973305 153.657006 154.335273 154.709003 156.113346 158.021375
9.950000 153.205224 153.871853 154.604792 154.973411 156.484130 158.255318
9.960000 153.470226 154.148389 154.864837 155.247518 156.810879 158.600426
9.980000 154.115503 154.777132 155.529811 155.969554 157.742662 159.258140
9.990000 154.440055 155.067640 155.844994 156.259916 158.010094 159.514132
10.000000 154.795859 155.332690 156.111511 156.560370 158.338803 159.772082
10.010000 155.027468 155.655222 156.394879 156.846341 158.549304 160.009334
10.020000 155.315851 155.992593 156.718443 157.135299 158.780792 160.296501
10.030000 155.645426 156.252535 157.002102 157.426615 159.029910 160.578888
10.040000 155.982336 156.581637 157.340111 157.730046 159.250432 160.766484
10.050000 156.336246 156.923894 157.703450 158.052206 159.592549 160.966733
10.060000 156.592926 157.232086 158.072690 158.368928 159.906783 161.143318
10.070000 156.910278 157.533008 158.390946 158.674964 160.130444 161.373952
10.080000 157.316868 157.915552 158.714107 158.993590 160.437372 161.583201
10.090000 157.609790 158.265650 159.011279 159.303181 160.730984 161.782229
10.100000 157.869736 158.551312 159.284366 159.592837 161.031619 161.963307
10.110000 158.157378 158.837142 159.606869 159.877503 161.292618 162.186601
10.120000 158.431428 159.122785 159.884788 160.154657 161.562364 162.360250
10.130000 158.697522 159.404247 160.140879 160.430058 161.803695 162.599604
10.140000 158.961629 159.715311 160.435336 160.715123 162.065748 162.915297
10.150000 159.266792 159.979273 160.728479 160.992993 162.297032 163.136646
10.160000 159.559129 160.265786 161.023947 161.286036 162.570892 163.417851
10.170000 159.875544 160.558008 161.325858 161.583343 162.859185 163.645417
10.180000 160.220650 160.837417 161.603230 161.871950 163.132015 163.890947
10.190000 160.470734 161.131395 161.891753 162.149926 163.375358 164.089253
10.200000 160.746273 161.409387 162.159553 162.414176 163.624970 164.337310
10.210000 160.978823 161.688828 162.443861 162.682945 163.906283 164.602834
10.220000 161.222203 161.941754 162.718970 162.943768 164.200034 164.820827
10.230000 161.515307 162.199830 162.984407 163.202852 164.430761 165.089708
10.240000 161.800637 162.436822 163.228236 163.456242 164.667329 165.359901
10.250000 161.977261 162.665248 163.457958 163.691873 164.882694 165.524767
10.260000 162.210171 162.880259 163.727642 163.930669 165.139155 165.804317
10.270000 162.475666 163.120970 163.966889 164.168040 165.351763 166.035012
10.280000 162.653405 163.378323 164.252452 164.403546 165.557841 166.272714
10.290000 162.823209 163.588744 164.519314 164.636074 165.771587 166.491662
10.300000 163.064134 163.802705 164.800441 164.875785 165.983765 166.872436
10.310000 163.210638 164.057534 165.071562 165.126722 166.193416 167.086844
10.320000 163.559929 164.307296 165.380297 165.388999 166.430524 167.357655
10.340000 164.249884 164.995850 166.098704 166.088797 167.172971 167.996344
