depth(m) lower_95(kyr) lower_68(kyr) median(kyr) mean(kyr) upper_68(kyr) upper_95(kyr)
2.620000 98.424291 99.396717 100.359755 100.402428 101.464506 102.480285
2.650000 99.898542 100.998160 102.432212 102.740780 104.619892 107.147209
2.700000 101.811005 103.371146 105.573648 105.763597 108.335914 110.350982
2.750000 103.695171 105.667655 108.377477 108.316589 110.936524 112.703002
2.800000 105.789462 108.351603 111.281010 110.851344 112.986764 114.485518
2.860000 108.749184 112.157805 114.293053 113.917195 115.573647 116.948136
2.935000 113.065326 115.979177 117.642270 117.490276 119.062562 120.692606
3.010000 118.057922 119.485193 120.807963 120.846871 122.224622 123.573720
3.050000 119.638578 120.993878 122.376323 122.373592 123.712023 125.100717
3.100000 121.599373 122.983532 124.348670 124.297588 125.605865 127.081754
3.150000 123.782758 124.999923 126.491991 126.520881 128.133523 129.882046
3.210000 127.591124 128.994192 130.954297 131.013616 133.064602 134.684976
3.260000 131.105160 134.356684 136.728675 136.838967 139.540105 142.708183
3.300000 134.602684 137.530272 139.949094 139.947887 142.562313 144.698814
3.350000 137.751775 140.723942 143.094264 142.921719 145.235002 147.035103
3.410000 141.895274 143.943209 146.045463 145.900324 147.896405 150.068806
3.450000 143.430824 145.783231 147.864118 147.708463 149.770782 151.915006
3.510000 145.620868 148.001225 150.141255 149.991168 152.092237 153.959160
3.550000 146.952089 149.560086 151.633125 151.488466 153.574524 155.476999
3.610000 148.739312 151.655641 153.769578 153.598122 155.685806 157.672291
3.660000 150.420355 153.474894 155.388146 155.291403 157.333013 159.282034
3.710000 152.125181 155.131902 157.075066 156.955484 158.995112 160.995468
3.760000 153.667192 156.763134 158.705378 158.625246 160.734367 162.727695
3.800000 154.989427 158.069884 160.113881 160.045082 162.329249 164.558174
3.860000 157.220046 159.888965 162.143993 162.183175 164.554754 167.607320
3.910000 158.684736 161.607858 164.061901 164.177479 166.641034 170.692807
3.960000 160.746847 163.609326 166.283655 166.635474 169.463057 175.280785
4.020000 164.054860 166.877134 170.157881 170.773529 175.223404 179.780190
4.060000 166.265222 169.722723 173.474218 173.833019 178.607496 182.192844
4.110000 168.612757 173.220971 177.910639 177.573057 182.257532 184.830932
4.160000 170.706550 177.429276 181.723340 181.184783 185.242587 186.826085
4.210000 175.297518 180.837012 185.307257 184.404382 187.614627 189.018348
4.260000 180.294670 185.306568 188.305005 187.676696 189.988240 191.283636
4.310000 187.549975 189.909296 191.441986 191.430326 192.952468 195.267345
4.360000 191.047419 192.421934 194.072623 194.608382 196.260035 204.395644
4.400000 192.898728 194.672892 196.583815 197.647857 201.553130 207.162057
4.460000 196.095984 197.937441 201.841367 202.753267 208.204360 210.601639
4.510000 198.178560 201.128643 208.358727 206.945175 211.322431 212.845922
4.550000 200.044375 203.737820 211.626373 209.808332 213.440431 214.800450
4.610000 202.999466 211.241241 214.844148 213.559275 216.186680 217.333037
4.650000 205.287131 214.727330 216.860550 215.827460 218.098538 219.306981
4.710000 211.141186 217.814350 219.101662 218.871486 220.287172 222.051924
4.750000 218.348873 219.588454 220.697016 220.795523 222.039707 224.099690
4.800000 220.221667 221.410420 222.688928 222.871117 224.405631 226.501193
4.810000 220.725443 221.863295 223.150990 223.322399 224.841685 227.052980
4.850000 222.186377 223.403804 224.693354 224.903295 226.447357 228.764237
4.960000 225.625181 227.177827 228.664124 228.876264 230.480247 233.116827
5.010000 227.415880 228.953807 230.594479 230.917924 232.471024 240.439424
5.060000 229.137197 230.772138 232.781085 233.845907 236.676493 243.754411
5.110000 231.265879 232.786485 235.657321 237.759931 243.774785 245.719429
5.160000 233.525324 236.137090 243.437454 242.154665 245.797296 247.691786
5.200000 241.083033 244.369540 246.405384 246.137053 248.123212 250.081791
5.260000 246.371470 248.112954 250.056514 250.335258 252.558433 256.198003
5.310000 248.566504 250.242100 252.810270 253.110667 255.869157 260.448205
5.360000 250.506927 252.408770 255.421913 255.956957 259.558170 264.777202
5.410000 252.169156 254.272914 257.846655 258.705900 263.507486 268.293961
5.450000 253.675702 255.921290 260.189636 260.787293 265.983723 269.904378
5.500000 255.544914 258.269546 263.387109 263.475988 268.745035 272.003636
5.560000 257.690948 261.249904 267.747611 266.797301 271.489132 273.914937
5.610000 260.155593 263.905147 270.712140 269.417646 273.692277 275.490743
5.660000 262.342998 267.122419 273.423573 272.088999 275.886740 277.191557
5.710000 264.824295 270.924812 275.355870 274.395523 277.456436 278.686118
5.760000 269.314550 274.349729 277.230471 276.624319 279.017766 280.057022
5.810000 274.619480 277.080930 279.124702 278.789484 280.536468 281.494288
5.850000 276.597815 278.815797 280.455278 280.202477 281.589388 282.481022
5.910000 280.076647 281.386723 282.502996 282.414203 283.385862 284.388501
5.960000 282.007772 283.092670 284.068957 284.024433 284.867463 285.802134
6.000000 283.284193 284.190586 285.083606 285.089018 285.964660 286.936728
6.060000 284.626300 285.649886 286.541341 286.527964 287.398803 288.339298
6.110000 285.926811 286.811444 287.806657 287.768584 288.641971 289.649184
6.150000 286.890761 287.869486 288.844365 288.814211 289.717899 290.602124
6.210000 288.733224 289.621074 290.546664 290.566238 291.545419 292.525932
6.260000 289.909915 290.868117 291.857355 291.895965 292.937654 294.182115
6.310000 291.249409 292.058990 293.084358 293.141353 294.207788 295.498546
6.360000 292.315527 293.272066 294.326231 294.390646 295.471512 296.680135
6.410000 293.497907 294.488818 295.590913 295.608068 296.684991 297.842058
6.460000 294.724380 295.731677 296.819092 296.799639 297.877618 298.958647
6.510000 295.882277 296.960497 298.008684 297.992123 299.021182 299.996346
6.560000 297.221477 298.247722 299.235525 299.207445 300.117443 301.089811
6.610000 298.781434 299.637724 300.531974 300.508063 301.364952 302.184144
