depth(m) lower_95(kyr) lower_68(kyr) median(kyr) mean(kyr) upper_68(kyr) upper_95(kyr)
14.315000 1495.265004 1498.590842 1501.387881 1501.084103 1503.568944 1505.116000
14.340000 1497.381264 1500.479791 1503.017984 1502.753719 1504.944885 1506.451236
14.365000 1499.305133 1502.374660 1504.618379 1504.380527 1506.399349 1507.885618
14.390000 1501.297241 1504.154296 1506.141123 1505.990200 1507.843680 1509.682206
14.415000 1503.708474 1506.038211 1507.991201 1507.991867 1509.917034 1512.367636
14.440000 1505.732048 1507.695428 1509.517643 1509.759763 1511.970323 1514.724332
14.465000 1508.393471 1510.117382 1512.196943 1512.350510 1514.692367 1517.195369
14.490000 1510.511399 1512.549552 1514.852080 1515.041263 1517.464787 1520.218458
14.540000 1514.530674 1517.404906 1520.229382 1520.078733 1522.660903 1525.568535
14.565000 1516.224684 1519.792282 1522.779464 1522.605317 1525.490026 1528.256597
14.615000 1521.871325 1524.740313 1527.878605 1527.652910 1530.695309 1532.358236
14.640000 1527.330380 1529.835168 1531.810649 1531.564738 1533.255711 1534.378402
14.665000 1531.298671 1532.937403 1534.159388 1534.080518 1535.224692 1536.190477
14.690000 1533.948657 1534.942766 1535.865786 1535.857475 1536.797220 1537.628897
14.715000 1535.380327 1536.236686 1537.176848 1537.161736 1538.093306 1538.894638
14.740000 1536.571359 1537.438832 1538.370334 1538.363096 1539.326264 1540.065903
14.765000 1537.663334 1538.604613 1539.565610 1539.543180 1540.479698 1541.192435
14.790000 1538.887827 1539.803961 1540.781581 1540.735244 1541.594215 1542.347340
14.815000 1540.027208 1541.035681 1541.972109 1541.932665 1542.773340 1543.634603
14.840000 1541.270688 1542.218060 1543.100773 1543.092408 1543.951115 1544.918502
14.865000 1542.531735 1543.331010 1544.295606 1544.321398 1545.221094 1546.296722
14.890000 1543.666694 1544.443528 1545.425805 1545.466442 1546.444385 1547.657505
14.915000 1544.741330 1545.591841 1546.604958 1546.695590 1547.728264 1549.221368
14.940000 1545.708797 1546.642959 1547.843426 1547.919426 1549.097686 1550.697137
14.965000 1546.815293 1547.892890 1549.097934 1549.239712 1550.555730 1552.474705
14.990000 1548.081243 1549.133227 1550.477846 1550.612197 1552.011518 1553.958134
15.015000 1549.088253 1550.335677 1551.796838 1551.927277 1553.493378 1555.358751
15.040000 1550.089920 1551.486639 1553.121571 1553.254849 1555.006932 1556.997428
15.065000 1551.259017 1552.751999 1554.441411 1554.632752 1556.537176 1559.040141
15.090000 1552.411620 1554.106812 1555.809184 1556.143587 1558.203170 1562.660125
15.115000 1553.599200 1555.490132 1557.522113 1558.332391 1561.639779 1566.214628
15.140000 1554.642792 1556.734605 1559.180369 1560.429805 1565.666038 1568.999615
15.165000 1556.221925 1558.281574 1561.297316 1562.557784 1568.876341 1571.688424
15.215000 1561.224554 1564.019209 1566.781502 1567.445194 1571.424238 1576.183216
15.240000 1568.200846 1569.947917 1572.123797 1572.347232 1574.720030 1577.852941
15.265000 1570.974115 1572.581643 1574.873887 1575.059075 1577.573806 1579.835270
15.290000 1572.728097 1575.110434 1577.619799 1577.502955 1579.861745 1581.785491
15.315000 1574.555978 1577.559663 1579.886799 1579.799991 1581.933463 1583.912553
15.340000 1576.794765 1579.694689 1581.759090 1581.653893 1583.730901 1585.530442
15.365000 1579.879451 1581.817521 1583.863803 1583.824518 1585.804305 1587.823294
15.390000 1581.757251 1583.605557 1585.532467 1585.645961 1587.608696 1589.924173
15.415000 1584.025260 1585.867062 1587.771876 1587.848087 1590.012453 1591.992701
15.440000 1585.748271 1587.540847 1589.703739 1589.747635 1591.923331 1593.998029
15.465000 1587.699874 1589.556640 1591.812396 1591.660310 1593.575519 1595.609013
15.490000 1589.526009 1591.946696 1593.937281 1593.777197 1595.526789 1596.999027
15.515000 1591.359919 1594.009800 1596.037480 1595.811719 1597.531857 1599.159618
15.540000 1593.507579 1596.174012 1597.923672 1597.774087 1599.393612 1600.816955
15.565000 1595.951454 1598.105720 1599.774989 1599.640193 1601.201469 1602.513008
15.590000 1598.622992 1600.343988 1601.696462 1601.593182 1602.865794 1603.984075
15.615000 1600.661478 1602.123477 1603.356006 1603.247466 1604.410894 1605.285831
15.640000 1602.292716 1603.612692 1604.763784 1604.693485 1605.782710 1606.663521
15.665000 1604.132539 1605.192072 1606.255657 1606.212315 1607.286116 1608.117847
15.690000 1605.809023 1606.806141 1607.809860 1607.824517 1608.848691 1609.949521
15.715000 1607.339996 1608.199631 1609.216535 1609.307946 1610.319284 1611.917351
15.740000 1608.645256 1609.533895 1610.609220 1610.794623 1612.004936 1614.214331
15.765000 1609.900196 1610.988794 1612.206530 1612.427398 1613.962001 1615.755403
15.790000 1611.264792 1612.357634 1613.840804 1614.091494 1615.843216 1618.090290
15.815000 1612.484033 1613.830140 1615.567631 1615.701131 1617.542006 1619.673568
15.840000 1614.032879 1615.394660 1617.474375 1617.494499 1619.457839 1621.519203
15.865000 1615.377589 1616.987612 1619.121536 1619.216342 1621.423468 1623.323803
15.890000 1617.063763 1618.639958 1621.022759 1621.024190 1623.394226 1625.367113
15.915000 1618.726337 1620.549574 1623.022550 1622.918719 1625.180401 1627.005291
15.940000 1620.727217 1623.218162 1625.141508 1625.067187 1626.991957 1628.908383
15.965000 1622.559595 1625.125960 1626.938492 1626.917426 1628.847927 1630.691206
15.990000 1624.417015 1626.947457 1628.719985 1628.830759 1630.785004 1633.490194
16.015000 1626.128542 1628.641413 1630.822205 1631.056021 1633.553602 1636.689062
16.040000 1628.077214 1630.407357 1633.025366 1633.183184 1636.257088 1638.748507
16.065000 1629.586021 1632.222288 1635.459327 1635.360426 1638.593249 1640.614234
16.095000 1631.785955 1634.962969 1638.215723 1637.861012 1640.554994 1642.326306
16.115000 1633.489973 1637.034511 1640.038943 1639.575967 1641.976012 1643.479863
16.140000 1636.422285 1639.454273 1641.757936 1641.528757 1643.515022 1645.264525
16.165000 1639.677259 1642.016635 1643.763564 1643.681342 1645.393308 1647.057513
16.190000 1642.600640 1644.160576 1645.811107 1645.801634 1647.520182 1649.048316
16.215000 1644.548953 1645.976372 1647.521850 1647.574133 1649.166912 1650.872271
16.240000 1646.020984 1647.381781 1649.052266 1649.060850 1650.668312 1652.330262
16.265000 1647.370337 1648.781710 1650.432999 1650.418150 1652.006344 1653.635505
16.290000 1648.628559 1650.047660 1651.666688 1651.681172 1653.274147 1654.854935
16.315000 1649.609410 1651.238580 1652.854439 1652.848181 1654.421782 1656.038836
16.365000 1652.049185 1653.513523 1655.099407 1655.035585 1656.568629 1657.820593
16.390000 1653.171147 1654.762447 1656.275996 1656.227821 1657.694126 1659.149397
16.415000 1654.260218 1655.970129 1657.494236 1657.440739 1658.937991 1660.369685
16.440000 1655.511125 1657.273639 1658.793552 1658.742697 1660.204301 1661.688151
16.465000 1657.030529 1658.723706 1660.235974 1660.290449 1661.823673 1663.472050
16.490000 1658.888300 1660.491892 1662.100053 1662.308146 1663.971455 1667.084518
16.515000 1661.139170 1662.776053 1664.652142 1664.990709 1667.281310 1670.474605
16.540000 1662.823262 1664.618182 1666.832864 1667.165792 1669.848112 1672.980980
16.565000 1664.472756 1666.294565 1668.840339 1669.114355 1671.801583 1675.643289
16.590000 1666.184685 1667.945784 1670.591546 1670.970896 1673.748570 1677.811481
16.615000 1667.495561 1669.608652 1672.414948 1672.761034 1675.919197 1680.111396
16.640000 1669.033742 1671.351058 1674.319889 1674.737331 1678.297294 1682.209099
16.665000 1670.558913 1673.194287 1676.332693 1676.719967 1680.329666 1684.943819
16.690000 1671.816264 1674.936119 1678.554020 1678.753310 1682.614126 1687.035092
16.715000 1673.383696 1676.640383 1680.616342 1680.739878 1684.698008 1688.542391
16.740000 1675.281324 1678.751338 1682.861953 1682.808509 1686.837394 1690.198733
16.765000 1677.196065 1681.028156 1685.015564 1684.943904 1689.067310 1691.985164
16.790000 1679.528688 1683.114205 1687.305443 1687.034469 1690.888483 1694.121933
16.815000 1681.693873 1685.331960 1689.471110 1689.162335 1692.686013 1695.792579
16.840000 1683.932016 1687.794047 1691.858922 1691.526167 1694.837660 1698.225304
16.865000 1686.664549 1690.800377 1694.546651 1694.207800 1697.419439 1700.504583
16.890000 1689.691011 1693.402348 1696.961277 1696.917175 1700.266840 1704.194983
16.940000 1697.403757 1700.570224 1703.881564 1703.956929 1707.472374 1710.534083
16.965000 1700.313958 1703.711154 1706.914102 1706.954630 1710.282456 1713.187931
17.010000 1707.418284 1710.642516 1713.719653 1713.621157 1716.463565 1719.356357
17.035000 1710.400573 1713.361107 1716.167667 1716.006069 1718.611707 1721.008265
17.060000 1712.183476 1715.234015 1718.020435 1717.870092 1720.426700 1722.650779
17.087500 1713.950433 1717.268623 1719.871958 1719.706043 1722.370046 1724.572751
17.112500 1715.563118 1718.892094 1721.458437 1721.307431 1723.862963 1726.160658
17.137500 1717.093044 1720.516423 1722.957680 1722.858864 1725.351787 1727.468587
17.162500 1718.755719 1721.933310 1724.436696 1724.352393 1726.771101 1729.203815
17.187500 1720.174008 1723.420397 1725.815297 1725.734895 1727.992715 1730.518063
17.212500 1721.525736 1724.694994 1727.195813 1727.093771 1729.373538 1731.995522
17.237500 1722.999761 1725.903501 1728.465678 1728.380056 1730.655913 1733.586970
17.262500 1724.415380 1727.189443 1729.690185 1729.635695 1731.996809 1734.924129
17.287500 1725.813518 1728.458177 1730.915296 1730.927298 1733.402548 1736.507385
17.312500 1727.354442 1729.765194 1732.043158 1732.194149 1734.719678 1737.696977
17.337500 1728.648329 1731.105197 1733.325315 1733.488053 1735.964574 1739.332083
17.365000 1729.902574 1732.547250 1734.741004 1734.929031 1737.461829 1740.779476
17.387500 1730.890379 1733.593254 1735.936999 1736.131850 1738.753503 1742.186410
17.412500 1732.072184 1734.918584 1737.236783 1737.442130 1740.156732 1743.638916
17.437500 1733.385858 1736.020179 1738.581190 1738.824332 1741.713553 1745.672581
17.465000 1734.701765 1737.382902 1739.971877 1740.373281 1743.556731 1747.914167
17.490000 1735.817521 1738.603296 1741.244520 1741.785762 1745.105176 1750.346746
17.515000 1737.380792 1739.921409 1742.584839 1743.234583 1746.764767 1752.062867
17.540000 1738.710073 1741.325641 1744.043037 1744.753757 1748.576334 1753.654122
17.550000 1739.312009 1741.997008 1744.762684 1745.449214 1749.277558 1754.194499
17.585000 1742.006287 1744.592345 1747.854954 1748.134240 1751.754150 1755.919630
17.610000 1743.564837 1746.612344 1750.010024 1750.055051 1753.589479 1756.868861
17.635000 1745.617799 1748.667044 1752.022266 1752.037331 1755.428083 1758.176557
17.660000 1747.757657 1750.922320 1754.082116 1754.106760 1757.264952 1759.996607
17.685000 1750.239675 1753.600644 1756.570401 1756.508633 1759.511701 1762.119884
17.710000 1752.979718 1756.040053 1758.902860 1758.960615 1761.666824 1765.112460
17.735000 1755.278645 1758.899257 1761.867510 1761.911462 1765.062225 1768.140709
17.760000 1757.757426 1760.964102 1764.256939 1764.357678 1767.804138 1771.215559
17.785000 1760.619956 1763.225570 1766.777352 1766.808354 1770.342462 1773.939876
17.810000 1762.898569 1765.700199 1769.205428 1769.239451 1772.635105 1776.013970
17.835000 1765.035462 1768.597061 1771.951700 1771.882359 1775.146207 1778.366907
17.860000 1767.942159 1771.464828 1774.721809 1774.731942 1777.964372 1781.319523
17.885000 1771.481011 1774.435044 1777.589650 1777.649491 1781.030731 1784.290365
17.910000 1774.644237 1777.750099 1780.747931 1780.784648 1784.118586 1786.887915
17.935000 1778.869718 1781.756062 1784.567966 1784.600408 1787.655522 1790.284515
17.960000 1781.768195 1784.227102 1786.908212 1786.898453 1789.569623 1791.884082
17.985000 1783.739786 1786.293120 1788.917453 1788.800051 1791.179468 1793.422401
18.020000 1786.513817 1789.019186 1791.245804 1791.192454 1793.329857 1795.877026
18.035000 1787.584464 1790.108080 1792.233799 1792.180929 1794.230579 1796.669584
18.085000 1791.954636 1793.703109 1795.329643 1795.427504 1797.213498 1799.042081
18.110000 1793.641864 1795.543277 1797.153059 1797.222203 1799.053974 1800.762591
18.135000 1795.638448 1797.607926 1799.254980 1799.262621 1800.942328 1802.557529
18.160000 1797.477626 1799.439066 1801.110454 1801.056807 1802.696040 1804.049658
18.185000 1799.011689 1800.917279 1802.702268 1802.611829 1804.220505 1805.748501
18.210000 1800.321721 1802.394582 1803.914578 1803.874566 1805.498418 1806.839260
18.235000 1801.364009 1803.506262 1805.059785 1805.011056 1806.651242 1808.102503
18.260000 1802.404042 1804.521746 1806.138702 1806.092345 1807.743082 1809.274981
18.285000 1803.319296 1805.585433 1807.189062 1807.142694 1808.813901 1810.415209
18.310000 1804.188713 1806.562877 1808.182228 1808.153216 1809.852204 1811.445475
18.335000 1805.273592 1807.619940 1809.167587 1809.174681 1810.889287 1812.523880
18.360000 1806.347032 1808.675523 1810.169174 1810.210538 1811.933487 1813.339148
18.385000 1807.443763 1809.655467 1811.256851 1811.226512 1812.901460 1814.371824
18.410000 1808.667719 1810.773369 1812.268493 1812.240945 1813.881335 1815.517715
18.435000 1809.654039 1811.704079 1813.312309 1813.249794 1814.891093 1816.349348
18.460000 1810.821495 1812.738803 1814.274746 1814.269243 1815.964383 1817.450561
18.485000 1811.898016 1813.714184 1815.205848 1815.248470 1816.818974 1818.354395
18.510000 1812.761239 1814.686277 1816.231855 1816.228311 1817.802432 1819.426518
18.535000 1813.951862 1815.724533 1817.188365 1817.197195 1818.682883 1820.542931
18.560000 1815.092089 1816.684562 1818.158037 1818.157204 1819.630920 1821.401143
18.585000 1816.153374 1817.666756 1819.135416 1819.134824 1820.561537 1822.430850
18.610000 1817.176844 1818.633767 1820.064909 1820.101244 1821.502099 1823.501540
18.635000 1818.071045 1819.709163 1821.034503 1821.082496 1822.456547 1824.401498
18.660000 1818.786611 1820.700177 1821.982841 1822.041820 1823.415860 1825.624418
18.685000 1819.992465 1821.636549 1822.970657 1823.018093 1824.402478 1826.513836
18.710000 1820.934198 1822.560914 1823.964542 1824.010534 1825.459348 1827.449319
18.735000 1822.002479 1823.528582 1824.929031 1824.982226 1826.433447 1828.573720
18.760000 1823.036507 1824.505859 1825.897456 1825.964318 1827.417623 1829.589644
18.785000 1824.054128 1825.445812 1826.851493 1826.951784 1828.423508 1830.603442
18.810000 1825.197161 1826.405908 1827.861955 1827.946132 1829.436811 1831.453787
18.835000 1826.177278 1827.426324 1828.755260 1828.921480 1830.481182 1832.463618
18.860000 1827.121789 1828.512137 1829.818759 1829.923645 1831.423199 1833.271763
18.885000 1828.100835 1829.435542 1830.832008 1830.940066 1832.517868 1834.223786
18.910000 1829.030227 1830.463312 1831.889416 1831.997982 1833.604114 1835.285504
18.935000 1830.111529 1831.525387 1832.918664 1833.039618 1834.620680 1836.326913
18.985000 1832.036574 1833.452381 1834.989306 1835.050178 1836.701440 1838.407463
19.010000 1833.137879 1834.645831 1836.140816 1836.196500 1837.907957 1839.373821
19.035000 1834.394313 1835.722348 1837.366403 1837.360144 1839.011731 1840.636218
19.085000 1836.476055 1838.085252 1839.710792 1839.633986 1841.228189 1842.438869
19.110000 1837.871546 1839.568258 1841.123908 1841.011408 1842.455085 1843.549143
19.135000 1839.830512 1841.399084 1842.672149 1842.554796 1843.701163 1844.650623
19.160000 1842.518846 1843.380581 1844.257551 1844.251324 1845.163205 1846.080782
19.185000 1843.796556 1845.001209 1846.223892 1846.525796 1848.052851 1850.895274
19.210000 1845.020141 1846.510963 1848.318266 1848.586153 1850.695529 1853.613690
19.235000 1846.917921 1848.611012 1851.160020 1851.336114 1853.925063 1856.900679
19.260000 1848.611116 1850.777230 1853.249731 1853.500537 1856.257415 1859.641509
19.285000 1850.139361 1852.573270 1855.197274 1855.463715 1858.499939 1861.830024
19.310000 1851.971523 1854.267923 1857.203553 1857.380480 1860.466161 1863.761395
19.335000 1853.672917 1856.113806 1859.150839 1859.367649 1862.711876 1865.790677
19.360000 1855.432864 1858.127683 1861.113756 1861.333310 1864.708420 1867.955597
19.385000 1856.987756 1859.977034 1863.039489 1863.196775 1866.660432 1869.422124
19.410000 1858.782676 1861.573157 1864.905823 1864.965958 1868.434380 1871.149295
19.435000 1860.835097 1863.285489 1866.921938 1866.801080 1870.178145 1872.542034
19.460000 1862.365866 1865.255595 1868.985910 1868.715937 1871.943792 1874.313143
19.485000 1863.838528 1867.189330 1871.061332 1870.626350 1873.767844 1875.690205
19.510000 1865.684918 1869.509263 1873.066869 1872.512712 1875.264707 1877.290443
19.535000 1867.554858 1871.635854 1874.930756 1874.423616 1876.937202 1878.741982
19.560000 1869.339035 1874.016787 1876.828988 1876.383730 1878.898267 1881.074533
19.585000 1870.880553 1875.878412 1878.712747 1878.324512 1880.908754 1883.237388
19.610200 1872.850185 1877.551932 1880.422624 1880.102504 1882.824136 1884.828882
19.635000 1874.973612 1878.956101 1882.131123 1881.738997 1884.533008 1886.426149
19.660000 1877.465649 1880.784767 1883.871838 1883.572667 1886.280241 1888.150300
19.685000 1880.004953 1882.751651 1885.728315 1885.453775 1887.874768 1889.969457
19.710000 1881.825679 1884.743864 1887.447676 1887.238809 1889.511970 1891.303708
19.735000 1883.423034 1886.510187 1888.989483 1888.784380 1891.031398 1892.729312
19.760000 1885.320000 1888.111289 1890.371588 1890.204705 1892.342940 1894.150719
19.785000 1886.709996 1889.482715 1891.750363 1891.620681 1893.794009 1895.545787
19.810000 1888.450041 1891.080932 1893.191286 1893.084684 1895.197832 1897.242067
19.835000 1890.105692 1892.617730 1894.791077 1894.684999 1896.661453 1898.857681
19.860000 1892.050978 1894.425973 1896.381695 1896.446541 1898.496897 1900.830132
19.885000 1894.384518 1896.681849 1898.772120 1898.925857 1901.105753 1904.682246
19.910000 1898.443209 1900.118864 1902.711164 1903.011604 1906.026920 1909.020365
19.935000 1900.449719 1903.018099 1906.606777 1906.428043 1909.741613 1912.038797
19.960000 1902.974698 1906.346012 1909.788249 1909.526614 1912.765828 1915.172358
19.985000 1905.991845 1909.516396 1912.673862 1912.514523 1915.402847 1918.306915
20.010000 1909.235497 1912.624885 1915.547942 1915.411391 1918.195803 1920.815335
20.035000 1911.528930 1915.119217 1917.730251 1917.624423 1920.427920 1922.494078
20.060000 1913.940792 1916.952577 1919.473432 1919.407292 1922.018487 1923.881831
20.085000 1915.868875 1918.510094 1921.121179 1920.996275 1923.473987 1925.325462
20.110000 1917.556274 1920.102611 1922.815358 1922.613018 1925.061477 1926.875072
20.135000 1918.914386 1921.753697 1924.265230 1924.140111 1926.582618 1928.657717
20.160000 1920.343096 1923.149335 1925.547780 1925.497505 1927.856065 1930.250202
20.185000 1922.017216 1924.662920 1926.955880 1926.961730 1929.261557 1931.687944
20.210000 1923.431708 1926.146366 1928.399327 1928.357489 1930.637829 1933.032747
20.235000 1925.035831 1927.460958 1929.702065 1929.721128 1932.036889 1934.260124
20.260000 1926.686701 1928.780448 1931.080108 1931.109239 1933.367468 1935.701514
20.285000 1928.058333 1930.082061 1932.443480 1932.434440 1934.722436 1936.955741
20.310000 1929.649897 1931.482683 1933.823507 1933.776735 1935.903737 1937.981082
20.335000 1930.955000 1933.046945 1935.226582 1935.164367 1937.303867 1939.228394
20.360000 1932.311446 1934.541880 1936.523954 1936.499858 1938.567511 1940.298296
20.385000 1934.005483 1935.876793 1937.852877 1937.840790 1939.765860 1941.707526
20.411000 1935.492872 1937.220218 1939.075417 1939.080386 1940.880074 1943.111499
20.460000 1937.655763 1939.355265 1941.009723 1941.097138 1942.721072 1945.223968
20.485000 1938.970806 1940.472018 1941.985803 1942.139795 1943.776254 1946.514086
20.510000 1939.907086 1941.488825 1943.035706 1943.169724 1944.667298 1947.372179
20.535000 1941.134411 1942.529693 1944.034200 1944.197085 1945.740918 1948.615240
20.560000 1942.168822 1943.490664 1945.001420 1945.230071 1946.914084 1949.766743
20.585000 1943.143633 1944.461839 1945.975538 1946.208673 1947.848363 1950.855005
