depth(m) lower_95(kyr) lower_68(kyr) median(kyr) mean(kyr) upper_68(kyr) upper_95(kyr)
2.875000 97.549962 98.102275 98.619461 98.655321 99.252091 99.885000
2.885000 97.793904 98.337345 98.843520 98.882273 99.490513 100.142845
2.895000 98.004010 98.563659 99.051908 99.105046 99.690845 100.348509
2.905000 98.204364 98.802480 99.261399 99.323080 99.896441 100.564729
2.915000 98.414540 99.030462 99.461640 99.542396 100.109155 100.801507
2.925000 98.636823 99.277548 99.668504 99.764299 100.329999 100.979458
2.935000 98.922205 99.475515 99.870935 99.983552 100.554648 101.245939
2.945000 99.186927 99.693593 100.087443 100.205851 100.793290 101.486503
2.955000 99.396693 99.908619 100.333739 100.436634 101.011597 101.761595
2.965000 99.632431 100.117634 100.560529 100.667014 101.240958 102.040682
2.975000 99.903801 100.330570 100.848532 100.909419 101.516217 102.312158
2.985000 100.196174 100.541248 101.105528 101.159096 101.779655 102.676186
2.995000 100.408703 100.758973 101.360305 101.408044 102.042163 102.968692
3.005000 100.627729 100.983708 101.636084 101.663684 102.296244 103.256462
3.015000 100.847964 101.216424 101.900144 101.927628 102.593566 103.495562
3.025000 101.093050 101.450849 102.163229 102.195466 102.857319 103.829748
3.035000 101.347610 101.728099 102.445872 102.473615 103.118424 104.144857
3.045000 101.568151 102.041537 102.719017 102.756272 103.396430 104.422755
3.055000 101.815744 102.348986 102.996916 103.043088 103.735263 104.696099
3.065000 102.049183 102.651618 103.320923 103.360044 104.021925 105.087282
3.075000 102.311420 102.984546 103.644918 103.684841 104.362126 105.421988
3.085000 102.522821 103.301371 103.954940 104.019099 104.788950 105.802655
3.095000 102.885218 103.609783 104.268471 104.364480 105.159525 106.143376
3.105000 103.242690 103.916902 104.627454 104.732251 105.580778 106.543869
3.115000 103.559804 104.253207 104.992337 105.098680 106.006757 106.986415
3.125000 103.872548 104.586605 105.378660 105.467127 106.412091 107.420058
3.135000 104.106041 104.920410 105.790519 105.849638 106.801118 107.909794
3.145000 104.415162 105.265562 106.145235 106.219886 107.197289 108.295728
3.155000 104.702201 105.590212 106.542320 106.603621 107.644441 108.819307
3.165000 105.020601 105.921363 106.938173 106.975696 108.059826 109.258586
3.175000 105.203987 106.269124 107.322971 107.363148 108.458275 109.774394
3.185000 105.562733 106.630628 107.709201 107.759562 108.879134 110.164991
3.195000 105.915298 106.935616 108.142984 108.162310 109.363700 110.653149
3.205000 106.202531 107.291686 108.559637 108.582514 109.940405 110.986155
3.215000 106.473900 107.698263 108.997193 108.997498 110.418899 111.343412
3.225000 106.781313 108.132582 109.417885 109.410056 110.819561 111.635783
3.235000 107.052564 108.497735 109.883639 109.818758 111.203967 111.915237
3.245000 107.385488 109.005984 110.367477 110.236081 111.552557 112.202901
3.255000 107.759609 109.474936 110.793930 110.647164 111.852443 112.471426
3.265000 108.214832 109.989903 111.174058 111.028486 112.125339 112.697948
3.275000 108.783065 110.467168 111.519035 111.387107 112.391844 112.916430
3.285000 109.280574 110.903537 111.875679 111.732528 112.644233 113.129963
3.295000 109.785180 111.253197 112.202976 112.061991 112.871882 113.314244
3.305000 110.373820 111.657627 112.498221 112.368320 113.122232 113.532550
3.315000 110.831827 111.970334 112.761661 112.648122 113.346516 113.758005
3.325000 111.420556 112.313551 113.026541 112.943806 113.605268 114.020699
3.335000 111.926180 112.656317 113.302174 113.251032 113.870368 114.290212
3.345000 112.373591 113.055995 113.624700 113.584141 114.124837 114.573692
3.355000 112.802114 113.414690 113.958589 113.922544 114.429197 114.877683
3.365000 113.115921 113.740717 114.251160 114.236678 114.752248 115.203127
3.375000 113.493342 114.075475 114.603690 114.583504 115.082699 115.550306
3.385000 113.898384 114.454082 114.961628 114.937363 115.454901 115.894359
3.395000 114.271825 114.778731 115.298579 115.288481 115.792733 116.252681
3.405000 114.580049 115.139310 115.659611 115.661157 116.193081 116.731405
3.415000 115.013771 115.540136 116.059831 116.065551 116.598730 117.204031
3.425000 115.441897 115.961149 116.502584 116.506286 117.044389 117.623777
3.435000 115.742833 116.315871 116.879852 116.869973 117.432095 117.935813
3.445000 116.097258 116.628037 117.251066 117.228068 117.811871 118.315677
3.455000 116.399941 116.977033 117.602071 117.583656 118.161307 118.729034
3.465000 116.757350 117.337955 117.987262 117.955864 118.550117 119.133943
3.475000 117.110682 117.699520 118.369670 118.341213 118.934347 119.554963
3.485000 117.464072 118.038379 118.731916 118.707885 119.334409 119.935768
3.495000 117.840340 118.497133 119.126831 119.123717 119.749453 120.303988
3.505000 118.252419 118.898822 119.487142 119.493650 120.124955 120.674053
3.515000 118.717049 119.275466 119.851320 119.846957 120.445669 120.954441
3.525000 119.063664 119.623959 120.167622 120.181071 120.762727 121.304605
3.535000 119.463225 119.950019 120.487650 120.503864 121.067391 121.574590
3.545000 119.741443 120.218122 120.786437 120.791248 121.393914 121.823867
3.555000 120.010549 120.489383 121.070788 121.068601 121.661794 122.093943
3.565000 120.302696 120.732126 121.319878 121.325987 121.895868 122.326196
3.575000 120.590222 120.984746 121.593736 121.581382 122.149551 122.564159
3.585000 120.834996 121.238976 121.869173 121.831372 122.393662 122.771232
3.595000 121.074391 121.463928 122.111555 122.066458 122.611881 122.980046
3.605000 121.304420 121.698553 122.357704 122.298493 122.835477 123.219108
3.615000 121.521171 121.925512 122.581344 122.524096 123.049742 123.442229
3.625000 121.743182 122.170122 122.807628 122.752910 123.275371 123.649674
3.635000 121.932479 122.380945 123.014749 122.975353 123.489018 123.883029
3.645000 122.166680 122.632426 123.247378 123.195022 123.687486 124.121064
3.655000 122.409562 122.892654 123.452037 123.412548 123.909916 124.301328
3.665000 122.603553 123.126471 123.654371 123.626877 124.102887 124.511970
3.675000 122.809184 123.386716 123.874518 123.841112 124.292524 124.714855
3.685000 123.014751 123.616254 124.071699 124.050823 124.499755 124.913964
3.695000 123.204044 123.835793 124.268138 124.258302 124.712991 125.117275
3.705000 123.420292 124.043125 124.474996 124.462879 124.921918 125.351934
3.715000 123.607380 124.249195 124.657409 124.667521 125.126373 125.588582
3.725000 123.799188 124.481059 124.865228 124.876193 125.335695 125.789172
3.735000 124.006871 124.678309 125.068678 125.087498 125.544328 125.991977
3.745000 124.224235 124.895690 125.291546 125.294785 125.759673 126.220647
3.755000 124.418134 125.096250 125.505868 125.506279 125.958803 126.407267
3.765000 124.633831 125.313165 125.725801 125.725248 126.187163 126.609301
3.775000 124.878906 125.525977 125.951447 125.947235 126.397788 126.820863
3.785000 125.158183 125.751224 126.177462 126.175110 126.635565 127.050948
3.795000 125.454907 125.977746 126.417382 126.411068 126.856046 127.331194
3.805000 125.733422 126.208424 126.669610 126.660412 127.106262 127.553857
3.815000 125.910154 126.457641 126.908049 126.894515 127.337449 127.780523
3.825000 126.160406 126.658138 127.116126 127.112611 127.568529 128.013950
3.835000 126.406267 126.855411 127.332630 127.329445 127.803477 128.208283
3.845000 126.581604 127.088448 127.572883 127.556912 128.023840 128.432883
3.855000 126.793504 127.316778 127.794012 127.792383 128.260378 128.734202
3.865000 126.987367 127.549679 128.050591 128.034334 128.493297 129.010369
3.875000 127.247255 127.808808 128.296535 128.309022 128.779753 129.418496
3.885000 127.531312 128.058755 128.569191 128.606732 129.126112 129.997131
3.895000 127.797632 128.374957 128.881391 128.949702 129.514602 130.591388
3.905000 128.152212 128.695494 129.249177 129.342794 129.968790 131.188087
3.915000 128.470706 129.041335 129.686593 129.808726 130.633457 131.797599
3.925000 128.930363 129.464824 130.162751 130.334348 131.299512 132.340749
3.935000 129.385664 129.977438 130.847743 130.967991 132.004313 132.911596
3.945000 129.825950 130.534117 131.701803 131.640920 132.623933 133.476619
3.955000 130.322088 131.331889 132.322442 132.274745 133.230781 133.852281
3.965000 130.945834 131.989701 132.916190 132.851172 133.710738 134.220214
3.975000 131.683541 132.621278 133.553226 133.426475 134.152086 134.655395
3.985000 132.296540 133.307492 134.032707 133.947940 134.579590 135.088884
3.995000 133.104135 133.903196 134.513495 134.486538 135.081533 135.685906
4.005000 133.826951 134.505004 135.081493 135.068592 135.676552 136.148965
4.015000 134.391747 135.044111 135.660371 135.633277 136.228735 136.802275
4.025000 134.880083 135.551331 136.150339 136.129468 136.746090 137.204815
4.035000 135.271752 135.946552 136.586684 136.532256 137.124315 137.525281
4.045000 135.716819 136.265573 136.964516 136.886761 137.454828 137.779756
4.055000 136.016652 136.567268 137.298721 137.196008 137.726448 138.032064
4.065000 136.292738 136.854808 137.611945 137.479699 137.991015 138.246801
4.075000 136.515839 137.116101 137.868414 137.732946 138.211339 138.471792
4.085000 136.742101 137.342772 138.109956 137.971225 138.438597 138.688935
4.095000 136.963911 137.604719 138.349018 138.193384 138.633132 138.861388
4.105000 137.154077 137.832057 138.558224 138.403975 138.835424 139.048336
4.115000 137.358343 138.056166 138.763844 138.613862 139.027165 139.261335
4.125000 137.573002 138.303562 138.963019 138.823651 139.222600 139.440917
4.135000 137.788814 138.540178 139.167130 139.030455 139.410520 139.636790
4.145000 138.002631 138.755148 139.362837 139.226527 139.593689 139.825245
4.155000 138.198048 138.966028 139.565865 139.428648 139.792685 140.032685
4.165000 138.429436 139.197442 139.758295 139.632219 140.001925 140.204497
4.175000 138.609158 139.442441 139.960023 139.832573 140.195192 140.426935
4.185000 138.825820 139.672235 140.150341 140.034720 140.390634 140.621937
4.195000 139.027021 139.874335 140.354196 140.238317 140.589135 140.832354
4.205000 139.236188 140.092869 140.554423 140.443099 140.794552 141.037791
4.215000 139.452599 140.304007 140.747792 140.649844 140.992930 141.288992
4.225000 139.674588 140.529631 140.949396 140.858791 141.193489 141.550884
4.235000 139.923985 140.753877 141.147526 141.072947 141.422013 141.782699
4.245000 140.142642 140.971641 141.345382 141.292387 141.660743 142.055080
4.255000 140.365392 141.184542 141.564783 141.517061 141.900838 142.346454
4.265000 140.622809 141.404353 141.779029 141.755692 142.150719 142.596045
4.275000 140.908513 141.630034 142.005532 141.995834 142.398269 142.853606
4.285000 141.175625 141.861529 142.225281 142.236516 142.624905 143.162705
4.295000 141.442337 142.082102 142.450818 142.471844 142.864781 143.475602
4.305000 141.676527 142.318090 142.672704 142.706699 143.131391 143.737317
4.315000 141.941887 142.535198 142.895742 142.943700 143.389421 144.071161
4.325000 142.192636 142.770054 143.129647 143.181403 143.618079 144.389702
4.335000 142.417965 142.983986 143.359205 143.414573 143.833137 144.684719
4.345000 142.714395 143.194425 143.574924 143.652516 144.105673 145.049099
4.355000 142.930895 143.398653 143.789647 143.883839 144.337532 145.417312
4.365000 143.168245 143.619385 144.000447 144.123439 144.625012 145.770412
4.375000 143.347965 143.861010 144.214752 144.367686 144.905517 146.097260
4.385000 143.587745 144.059950 144.439050 144.611229 145.200046 146.387454
4.395000 143.769239 144.260890 144.678946 144.853876 145.477372 146.874995
4.405000 143.991707 144.472850 144.908676 145.100021 145.741272 147.129356
4.415000 144.219761 144.689074 145.154206 145.356449 146.069379 147.501969
4.425000 144.428791 144.902791 145.410223 145.611930 146.398204 147.694442
4.435000 144.612782 145.103103 145.672948 145.873866 146.675167 148.055079
4.445000 144.844143 145.327041 145.937233 146.149322 147.019211 148.463227
4.455000 145.053342 145.551109 146.233959 146.437219 147.366863 148.838090
4.465000 145.246962 145.770563 146.547502 146.729569 147.697641 149.130150
4.475000 145.483573 145.984160 146.888317 147.037454 148.081866 149.558667
4.485000 145.726996 146.202460 147.215899 147.362234 148.558973 149.927231
4.495000 145.943865 146.410402 147.560688 147.681808 148.908691 150.246469
4.505000 146.154499 146.638832 147.918246 148.006377 149.308757 150.554553
4.515000 146.356981 146.888485 148.307032 148.346220 149.757661 150.848874
4.525000 146.606831 147.118470 148.703087 148.694288 150.111023 151.165165
4.535000 146.811779 147.360017 149.126852 149.057011 150.463938 151.458320
4.545000 147.036140 147.695849 149.539951 149.408001 150.800132 151.773368
4.555000 147.317568 147.959393 149.965466 149.780749 151.164625 152.145064
4.565000 147.497618 148.318215 150.395104 150.160805 151.511260 152.475237
4.575000 147.718272 148.736356 150.772450 150.530684 151.853842 152.815033
4.585000 147.982417 149.108526 151.156861 150.895447 152.248359 153.213769
4.595000 148.286229 149.523865 151.542938 151.266427 152.587566 153.527203
4.605000 148.587638 149.950809 151.917550 151.644241 153.009896 153.896216
4.615000 148.898777 150.423264 152.287499 152.043076 153.347073 154.227178
4.625000 149.199944 150.883971 152.637742 152.410422 153.682989 154.690603
4.635000 149.667312 151.323986 153.003761 152.796233 154.055888 155.008427
4.645000 150.073893 151.729778 153.391249 153.178065 154.405265 155.414344
4.655000 150.502990 152.174494 153.768842 153.567151 154.789870 155.803690
4.665000 150.839505 152.731899 154.155256 153.960827 155.125900 156.248916
4.675000 151.236825 153.143823 154.523833 154.346652 155.502734 156.545653
4.685000 151.647730 153.535529 154.902656 154.736478 155.848074 156.939112
4.695000 152.190526 153.946130 155.245778 155.115109 156.203732 157.278705
4.705000 152.734736 154.432877 155.587549 155.476321 156.572662 157.601026
4.715000 153.196392 154.841490 155.897857 155.838641 156.932752 157.890093
4.725000 153.722919 155.231097 156.231578 156.189170 157.266272 158.132388
4.735000 154.177438 155.674155 156.587476 156.547714 157.550586 158.708021
4.745000 154.548097 156.031467 156.892677 156.882672 157.865599 159.061641
4.755000 155.035426 156.349656 157.160469 157.208205 158.160353 159.341165
4.765000 155.399825 156.718093 157.450851 157.538025 158.500760 159.692965
4.775000 155.723407 157.027258 157.759979 157.858882 158.820910 159.958461
4.785000 156.159379 157.362192 158.107229 158.184142 159.165788 160.290282
4.795000 156.586603 157.666258 158.445798 158.521009 159.502678 160.561810
4.805000 157.026120 157.961570 158.769120 158.855938 159.815980 160.776549
4.815000 157.430355 158.287718 159.114222 159.193313 160.137228 161.054738
4.825000 157.831486 158.619182 159.491141 159.552881 160.494790 161.392295
4.835000 158.311692 158.989614 159.885524 159.919066 160.916171 161.676288
4.845000 158.599843 159.335613 160.282229 160.278640 161.259131 162.002066
4.855000 158.950268 159.700395 160.638976 160.636592 161.596570 162.377443
4.865000 159.293603 160.038301 161.041589 161.003513 161.946591 162.676891
4.875000 159.662032 160.348316 161.449167 161.376470 162.292807 162.954229
4.885000 159.913859 160.677104 161.874571 161.731191 162.621570 163.239532
4.895000 160.259246 161.044948 162.235150 162.083229 162.923854 163.547937
4.905000 160.558966 161.350517 162.586236 162.416603 163.238137 163.860288
4.915000 160.803607 161.746491 162.932458 162.754781 163.555264 164.102591
4.925000 161.206415 162.125207 163.262794 163.091962 163.899073 164.420892
4.935000 161.554229 162.480344 163.565586 163.411173 164.210346 164.720763
4.945000 161.911086 162.824613 163.838001 163.708790 164.505812 165.009531
4.955000 162.121123 163.136932 164.118433 164.011636 164.811105 165.252502
4.965000 162.401371 163.531191 164.421987 164.312047 165.081855 165.578039
4.975000 162.727697 163.808249 164.723782 164.609904 165.353383 165.851824
4.985000 162.931384 164.146154 164.991220 164.892054 165.632839 166.116923
4.995000 163.265497 164.423356 165.289892 165.174082 165.928741 166.354356
5.005000 163.540985 164.741778 165.586659 165.471663 166.227167 166.692035
5.015000 163.907709 165.008040 165.886522 165.757852 166.506138 166.950381
5.025000 164.212529 165.308977 166.155016 166.035320 166.769747 167.243682
5.035000 164.468945 165.601002 166.444581 166.326533 167.055742 167.610144
5.045000 164.767760 165.890299 166.734340 166.615323 167.317547 167.859599
5.055000 165.022970 166.142255 167.052743 166.899239 167.589858 168.210631
5.065000 165.229385 166.436971 167.351552 167.196206 167.891068 168.436683
5.075000 165.450996 166.738988 167.613061 167.482636 168.205177 168.768977
5.085000 165.734816 166.989637 167.898478 167.774075 168.518697 169.071335
5.095000 165.928910 167.330954 168.156287 168.049457 168.796509 169.330545
5.105000 166.154392 167.613396 168.414616 168.317590 169.090564 169.571819
5.115000 166.472206 167.895199 168.662467 168.586901 169.338478 169.881697
5.125000 166.699957 168.173322 168.918093 168.848381 169.606229 170.093523
5.135000 166.978058 168.478169 169.182698 169.114561 169.901572 170.346780
5.145000 167.227512 168.769127 169.464120 169.379009 170.138641 170.619856
5.155000 167.508191 169.014814 169.717727 169.642815 170.396982 170.937577
5.165000 167.811095 169.270647 169.987709 169.916328 170.652495 171.204722
5.175000 168.239746 169.549777 170.259485 170.198917 170.922538 171.446327
5.185000 168.513666 169.846836 170.553046 170.492372 171.186699 171.704995
5.195000 168.908569 170.123964 170.884759 170.798038 171.490086 171.985423
5.205000 169.280379 170.430765 171.163214 171.090145 171.762297 172.379832
5.215000 169.670858 170.740508 171.456510 171.379983 172.028836 172.647206
5.225000 170.045860 171.049902 171.734090 171.670040 172.276680 173.011812
5.235000 170.411690 171.313256 172.016737 171.961601 172.556386 173.466515
5.245000 170.854359 171.577773 172.282041 172.247995 172.829287 173.811601
5.255000 171.159831 171.877330 172.559053 172.534744 173.107148 174.047216
5.265000 171.427077 172.165962 172.838843 172.817844 173.365922 174.333943
5.275000 171.807399 172.427775 173.096630 173.097500 173.652198 174.682162
5.285000 172.164141 172.719604 173.359675 173.373577 173.941216 175.045041
5.295000 172.441016 172.972747 173.600334 173.642213 174.213966 175.318759
5.305000 172.714744 173.265909 173.857313 173.923254 174.544702 175.639503
5.315000 172.977589 173.541055 174.120434 174.206326 174.837774 176.018732
5.325000 173.215477 173.814721 174.372533 174.486167 175.170237 176.320302
5.335000 173.530987 174.110721 174.626686 174.778679 175.557775 176.597726
5.345000 173.813403 174.399835 174.893355 175.072240 175.897646 176.893895
5.355000 174.145019 174.661266 175.201530 175.367168 176.227561 177.160152
5.365000 174.439289 174.912580 175.493791 175.667266 176.572411 177.477677
5.375000 174.749641 175.203996 175.784340 175.969480 176.913983 177.737040
5.385000 175.048520 175.483870 176.102082 176.283361 177.223349 178.053976
5.395000 175.316003 175.769725 176.411414 176.591795 177.545864 178.397989
5.405000 175.573367 176.051604 176.738311 176.891863 177.855559 178.728034
5.415000 175.834152 176.340666 177.048010 177.199707 178.130309 179.004302
5.425000 176.094523 176.653111 177.399436 177.505724 178.427972 179.424123
5.435000 176.394247 176.944571 177.755387 177.818180 178.717500 179.819413
5.445000 176.672810 177.239920 178.054301 178.124888 178.995794 180.136929
5.455000 176.916299 177.554519 178.354979 178.440523 179.281840 180.445400
5.465000 177.191841 177.883987 178.657477 178.753924 179.574203 180.737596
5.475000 177.474967 178.231442 179.053846 179.088554 179.853516 181.079813
5.485000 177.780740 178.568086 179.395238 179.408748 180.164664 181.362685
5.495000 178.155142 178.922842 179.712239 179.736277 180.506558 181.784338
5.505000 178.442099 179.223684 180.011655 180.053309 180.874617 182.053500
5.515000 178.746703 179.506183 180.367377 180.382774 181.204090 182.403392
5.525000 179.114029 179.851390 180.676544 180.701922 181.529593 182.724935
