depth(m) lower_95(kyr) lower_68(kyr) median(kyr) mean(kyr) upper_68(kyr) upper_95(kyr)
14.800000 130.992327 131.016254 131.042561 131.039056 131.059704 131.072655
14.820000 130.994530 131.019800 131.045357 131.041875 131.062455 131.074784
14.840000 130.997674 131.023397 131.048122 131.044644 131.064821 131.077024
14.860000 131.002069 131.026785 131.051265 131.047427 131.067147 131.079237
14.940000 131.017310 131.037279 131.061824 131.058286 131.076755 131.087054
14.980000 131.023892 131.043372 131.067409 131.063878 131.081967 131.091714
15.000000 131.026091 131.045982 131.070073 131.066722 131.084630 131.093909
15.020000 131.028867 131.048213 131.073221 131.069585 131.088032 131.095700
15.040000 131.031449 131.051221 131.076409 131.072405 131.090935 131.097865
15.060000 131.034016 131.054114 131.079821 131.075332 131.093751 131.100344
15.080000 131.037464 131.056772 131.082515 131.078116 131.096203 131.102914
15.100000 131.040369 131.059053 131.085259 131.081014 131.098681 131.105898
15.120000 131.043145 131.061109 131.087916 131.083795 131.100936 131.108453
15.140000 131.046261 131.063609 131.091429 131.086654 131.103905 131.110873
15.160000 131.048836 131.066269 131.094649 131.089618 131.106517 131.113549
15.180000 131.051432 131.068508 131.097711 131.092459 131.108879 131.117223
15.200000 131.054680 131.071802 131.100592 131.095370 131.111635 131.120402
15.220000 131.058108 131.074774 131.103222 131.098245 131.113858 131.125148
15.240000 131.060659 131.076811 131.106746 131.101129 131.116734 131.127648
15.260000 131.063569 131.079911 131.109529 131.104014 131.119722 131.130651
15.280000 131.067278 131.083250 131.112440 131.106968 131.122227 131.133647
15.300000 131.070158 131.086056 131.115659 131.109896 131.125171 131.136595
15.320000 131.072641 131.089091 131.118779 131.112837 131.127964 131.139888
15.340000 131.075403 131.091779 131.121476 131.115772 131.130908 131.142185
15.360000 131.079809 131.094925 131.123973 131.118668 131.134438 131.144645
15.380000 131.081786 131.098087 131.126606 131.121622 131.137657 131.147340
15.400000 131.084538 131.101204 131.129412 131.124580 131.140652 131.150201
15.420000 131.087408 131.104815 131.131933 131.127623 131.143928 131.153310
15.440000 131.090864 131.107923 131.134764 131.130589 131.146971 131.156764
15.460000 131.094378 131.110828 131.137996 131.133673 131.149793 131.160432
15.480000 131.097447 131.114915 131.140729 131.136795 131.152809 131.163546
15.500000 131.099458 131.118604 131.143410 131.139907 131.155773 131.166687
15.520000 131.102014 131.122233 131.146309 131.142921 131.159126 131.170792
15.540000 131.104544 131.125570 131.148794 131.145850 131.161915 131.173654
15.560000 131.108091 131.129845 131.151406 131.148938 131.164815 131.177560
15.580000 131.111113 131.133674 131.154664 131.151959 131.168165 131.180600
15.600000 131.113666 131.136792 131.157239 131.154904 131.170899 131.184573
15.620000 131.116883 131.139837 131.160297 131.157985 131.174646 131.188157
15.640000 131.120286 131.143059 131.163144 131.160927 131.177670 131.190868
15.660000 131.123166 131.146070 131.166325 131.163879 131.180872 131.194599
15.680000 131.125352 131.149409 131.169250 131.167012 131.183736 131.198738
15.700000 131.128916 131.153786 131.172371 131.170258 131.187697 131.201177
15.800000 131.147383 131.169884 131.188441 131.187693 131.205518 131.221433
15.900000 131.164956 131.185464 131.206822 131.205297 131.223801 131.239880
15.940000 131.172064 131.191895 131.213508 131.211831 131.230967 131.247347
15.980000 131.178177 131.198477 131.219981 131.218362 131.237082 131.254359
16.000000 131.182252 131.201491 131.222951 131.221455 131.240547 131.256576
16.060000 131.191197 131.210639 131.232370 131.231058 131.249853 131.264877
16.080000 131.194689 131.213725 131.235278 131.234168 131.252966 131.268704
16.100000 131.197696 131.217065 131.238834 131.237333 131.256118 131.271116
16.120000 131.200736 131.219897 131.242485 131.240542 131.259034 131.273241
16.140000 131.204344 131.222733 131.245515 131.243612 131.262594 131.276623
16.160000 131.207480 131.226098 131.248484 131.246644 131.265728 131.278659
16.180000 131.209311 131.228750 131.251582 131.249763 131.269683 131.282356
16.200000 131.212689 131.231844 131.255226 131.252872 131.272340 131.284959
16.280000 131.226043 131.247945 131.270187 131.267629 131.286362 131.299860
16.300000 131.228415 131.250857 131.272968 131.270958 131.289866 131.304438
16.320000 131.230835 131.254357 131.275983 131.274140 131.293256 131.308093
16.340000 131.233606 131.257664 131.279844 131.277372 131.295727 131.310678
16.360000 131.236194 131.260644 131.282760 131.280576 131.298766 131.312767
16.400000 131.243263 131.266311 131.288831 131.286917 131.305053 131.319768
16.420000 131.246673 131.269860 131.292349 131.290076 131.308355 131.323233
16.440000 131.249478 131.272759 131.295287 131.293191 131.311443 131.326597
16.460000 131.251837 131.275952 131.298723 131.296327 131.314625 131.329129
16.480000 131.255983 131.278977 131.302085 131.299324 131.318060 131.332723
16.500000 131.260047 131.281955 131.305360 131.302439 131.320829 131.335898
16.520000 131.262294 131.285813 131.308185 131.305452 131.324229 131.338901
16.540000 131.266114 131.288442 131.311524 131.308452 131.327180 131.341687
16.560000 131.271205 131.291773 131.314284 131.311640 131.330627 131.345824
16.580000 131.273074 131.294816 131.317022 131.314773 131.333734 131.348917
16.600000 131.277355 131.297932 131.319909 131.317908 131.336917 131.352092
16.620000 131.281060 131.300752 131.322256 131.320872 131.340716 131.354999
16.640000 131.284549 131.304369 131.324904 131.323943 131.343783 131.359068
16.660000 131.287800 131.307102 131.327484 131.326980 131.346639 131.361927
16.680000 131.290840 131.310836 131.330120 131.329883 131.350224 131.364356
16.700000 131.293011 131.313481 131.332624 131.332825 131.353454 131.366915
16.720000 131.295986 131.316052 131.336056 131.335892 131.356178 131.371110
16.740000 131.298483 131.318837 131.338939 131.338872 131.359376 131.373838
16.760000 131.301976 131.321206 131.342678 131.341898 131.362952 131.377007
16.780000 131.305118 131.324374 131.345582 131.344911 131.365581 131.380310
16.800000 131.308128 131.327641 131.348639 131.348027 131.368460 131.383919
16.820000 131.310848 131.330802 131.351536 131.351033 131.371870 131.388017
16.840000 131.313743 131.333407 131.355139 131.354127 131.374957 131.391378
16.860000 131.317045 131.336006 131.358135 131.357103 131.378024 131.393782
16.880000 131.320092 131.339540 131.361879 131.360194 131.381290 131.396670
16.900000 131.322954 131.342600 131.364499 131.363393 131.385256 131.399788
16.920000 131.324998 131.345467 131.367085 131.366333 131.389020 131.402512
16.940000 131.329170 131.347881 131.369570 131.369232 131.392118 131.407244
16.960000 131.332869 131.350780 131.373131 131.372231 131.394910 131.409419
16.980000 131.335561 131.353373 131.375228 131.375088 131.398023 131.413387
17.000000 131.339236 131.356034 131.378826 131.378155 131.401144 131.415941
17.020000 131.342158 131.358567 131.381421 131.381048 131.403822 131.418369
17.040000 131.345401 131.361241 131.384651 131.383931 131.406393 131.421922
17.060000 131.348974 131.363767 131.387394 131.386747 131.409333 131.424315
17.080000 131.352068 131.366896 131.389988 131.389722 131.413211 131.427210
17.100000 131.354854 131.369813 131.392874 131.392876 131.416724 131.430203
17.120000 131.357607 131.372665 131.395462 131.395899 131.420135 131.433730
17.140000 131.360470 131.375998 131.398180 131.398975 131.422995 131.436941
17.160000 131.364639 131.378429 131.400842 131.402051 131.426369 131.440100
17.180000 131.367655 131.382081 131.404098 131.405051 131.429066 131.443222
17.200000 131.371295 131.384692 131.407099 131.407962 131.431500 131.446040
17.220000 131.374181 131.387836 131.410270 131.410941 131.434154 131.449274
17.240000 131.377292 131.390778 131.413018 131.413863 131.437436 131.451413
17.260000 131.380190 131.393507 131.415752 131.416716 131.439626 131.454254
17.280000 131.383136 131.396376 131.418651 131.419585 131.442680 131.457723
17.300000 131.385778 131.399194 131.421832 131.422556 131.445526 131.460008
17.320000 131.389697 131.402316 131.424544 131.425563 131.448209 131.463905
17.340000 131.392835 131.405150 131.427612 131.428403 131.451279 131.468442
17.360000 131.396243 131.408416 131.430459 131.431337 131.454149 131.470542
17.380000 131.399088 131.411543 131.433157 131.434253 131.457351 131.473088
17.400000 131.402262 131.414683 131.436672 131.437200 131.460387 131.475433
17.420000 131.405810 131.417561 131.439678 131.440162 131.463207 131.478692
17.440000 131.408397 131.421081 131.442666 131.443094 131.466184 131.481509
17.460000 131.410997 131.423741 131.445192 131.445996 131.468798 131.485994
17.480000 131.413384 131.426847 131.448479 131.449014 131.471613 131.489621
17.500000 131.416344 131.430278 131.450840 131.451941 131.474672 131.491953
17.520000 131.418796 131.433762 131.453464 131.454839 131.477874 131.493909
17.540000 131.421185 131.436944 131.456919 131.457754 131.480841 131.496924
17.560000 131.424795 131.439895 131.460008 131.460651 131.483137 131.499469
17.580000 131.428608 131.443429 131.463326 131.463552 131.485694 131.502505
17.600000 131.431056 131.446896 131.466157 131.466361 131.488673 131.504732
17.620000 131.434134 131.449644 131.469132 131.469304 131.491655 131.508078
17.640000 131.437228 131.452481 131.471948 131.472252 131.494007 131.512056
17.660000 131.439297 131.455650 131.474986 131.475133 131.496743 131.515324
17.680000 131.441695 131.458604 131.477553 131.477997 131.499719 131.517504
17.700000 131.444651 131.461476 131.480790 131.481023 131.503059 131.520596
17.720000 131.447451 131.464038 131.483293 131.483877 131.505916 131.523424
17.740000 131.450011 131.466968 131.486195 131.486771 131.509268 131.526776
17.760000 131.453747 131.470011 131.488597 131.489667 131.511516 131.530272
17.780000 131.458006 131.473447 131.491258 131.492722 131.514701 131.532490
17.800000 131.461093 131.476296 131.493851 131.495740 131.517553 131.534973
17.820000 131.464508 131.479854 131.496471 131.498775 131.519932 131.537309
17.840000 131.468064 131.482660 131.499466 131.501757 131.523063 131.539126
17.860000 131.471626 131.486734 131.502993 131.504827 131.525773 131.542508
17.880000 131.473610 131.489389 131.506208 131.507919 131.529044 131.546148
17.900000 131.476052 131.492258 131.509423 131.510923 131.531723 131.549245
17.920000 131.479410 131.495260 131.512290 131.513943 131.534115 131.552378
17.940000 131.482523 131.498356 131.515225 131.516918 131.537050 131.554684
17.960000 131.487217 131.501553 131.517953 131.520056 131.540690 131.557459
17.980000 131.490425 131.504733 131.520907 131.523171 131.543229 131.559517
18.000000 131.493012 131.508606 131.524009 131.526238 131.546076 131.562109
18.020000 131.496730 131.511584 131.527108 131.529264 131.548703 131.564113
18.040000 131.500546 131.514496 131.530025 131.532280 131.551413 131.568244
18.060000 131.503282 131.517912 131.533156 131.535374 131.553863 131.570798
18.080000 131.505614 131.520601 131.536427 131.538405 131.556482 131.573983
18.100000 131.509183 131.524066 131.540033 131.541426 131.559939 131.577290
18.120000 131.512612 131.527087 131.543036 131.544518 131.562912 131.580042
18.140000 131.516210 131.529854 131.546539 131.547548 131.565431 131.583045
18.160000 131.520454 131.533278 131.549801 131.550719 131.569023 131.586056
18.180000 131.523383 131.536082 131.553266 131.553785 131.572266 131.588461
18.200000 131.526023 131.539451 131.556371 131.556695 131.574968 131.590740
18.220000 131.529418 131.542152 131.559710 131.559715 131.578037 131.593227
18.240000 131.532595 131.544951 131.562699 131.562684 131.581400 131.596074
18.260000 131.535686 131.548137 131.565908 131.565699 131.584275 131.599454
18.280000 131.538712 131.551149 131.568704 131.568706 131.586978 131.601760
18.300000 131.541701 131.554457 131.571601 131.571806 131.589726 131.603845
18.320000 131.545077 131.557425 131.574211 131.574818 131.592854 131.606674
18.340000 131.547000 131.560201 131.577123 131.577820 131.595952 131.609770
18.360000 131.550681 131.563341 131.580127 131.580999 131.599046 131.611610
18.380000 131.554420 131.566942 131.583254 131.584250 131.602100 131.615033
18.400000 131.557739 131.570596 131.586201 131.587433 131.605226 131.617913
18.420000 131.560713 131.573848 131.589730 131.590557 131.607832 131.620271
18.440000 131.563421 131.578053 131.593128 131.593722 131.610233 131.622795
18.460000 131.566643 131.581191 131.596347 131.596896 131.613349 131.625977
18.480000 131.570534 131.584431 131.599176 131.600067 131.616541 131.628141
18.500000 131.573509 131.587906 131.602206 131.603239 131.619847 131.630521
18.520000 131.576002 131.590762 131.605250 131.606264 131.623334 131.632753
18.540000 131.579464 131.593647 131.608029 131.609256 131.626339 131.635736
18.560000 131.582661 131.596620 131.611558 131.612308 131.629859 131.638736
18.580000 131.585211 131.599412 131.614925 131.615379 131.632994 131.642250
18.600000 131.588559 131.602542 131.618245 131.618451 131.635606 131.645276
18.620000 131.591631 131.605820 131.621782 131.621462 131.638169 131.647988
18.640000 131.595961 131.609136 131.625291 131.624439 131.640905 131.650780
18.660000 131.599488 131.611978 131.627883 131.627476 131.644211 131.654595
18.680000 131.602343 131.614374 131.631240 131.630456 131.646860 131.657694
18.700000 131.605184 131.617693 131.634140 131.633525 131.649246 131.660795
18.720000 131.608746 131.620266 131.637297 131.636625 131.652091 131.664081
18.740000 131.612103 131.623012 131.640305 131.639646 131.654874 131.666474
18.760000 131.614841 131.626003 131.643157 131.642608 131.657937 131.669071
18.780000 131.617369 131.628791 131.646151 131.645688 131.661173 131.671810
18.800000 131.622067 131.632166 131.648987 131.648730 131.664327 131.675287
18.820000 131.625543 131.635637 131.651579 131.651812 131.667040 131.677830
18.840000 131.628489 131.638406 131.655040 131.654891 131.670233 131.681118
18.860000 131.630709 131.640766 131.658542 131.657931 131.673469 131.685407
18.880000 131.632764 131.644152 131.661484 131.660950 131.676222 131.688341
18.900000 131.635688 131.646785 131.664498 131.663975 131.679458 131.692244
18.920000 131.639136 131.649623 131.667560 131.667058 131.682914 131.697239
18.940000 131.641117 131.653320 131.670477 131.670173 131.685930 131.700186
18.960000 131.643388 131.656546 131.673414 131.673315 131.689034 131.703351
18.980000 131.646921 131.660490 131.676419 131.676424 131.692382 131.706749
19.000000 131.649746 131.664104 131.679150 131.679486 131.695370 131.708941
19.020000 131.652700 131.666949 131.682723 131.682671 131.698991 131.712004
19.040000 131.655643 131.670215 131.686074 131.685753 131.702119 131.714789
19.060000 131.658182 131.673216 131.689156 131.688856 131.704978 131.717458
19.080000 131.660894 131.676551 131.692248 131.691764 131.708227 131.720300
19.100000 131.663508 131.679665 131.694712 131.694711 131.711471 131.724875
19.120000 131.667464 131.682308 131.697654 131.697689 131.714362 131.727522
19.140000 131.670576 131.684934 131.700610 131.700799 131.717309 131.731640
19.160000 131.672676 131.687735 131.703882 131.703831 131.720046 131.734666
19.180000 131.675939 131.690069 131.706971 131.706723 131.722808 131.737565
19.200000 131.678417 131.692726 131.709678 131.709634 131.726299 131.740253
19.220000 131.681882 131.696199 131.712653 131.712640 131.729107 131.744029
19.240000 131.684732 131.699059 131.715373 131.715536 131.732243 131.745968
19.260000 131.689176 131.702114 131.718241 131.718482 131.735293 131.749535
19.280000 131.692538 131.705285 131.721245 131.721517 131.737763 131.753090
19.300000 131.696122 131.708623 131.723959 131.724552 131.740761 131.755578
19.320000 131.700157 131.711937 131.726747 131.727589 131.743431 131.759580
19.340000 131.702947 131.715476 131.729999 131.730730 131.746351 131.762390
19.360000 131.705320 131.718411 131.733406 131.733909 131.749339 131.764951
19.400000 131.711518 131.724669 131.739869 131.740178 131.754647 131.771303
19.420000 131.714011 131.727953 131.743375 131.743238 131.757855 131.774432
19.440000 131.716683 131.731194 131.746400 131.746300 131.761031 131.777081
19.460000 131.719562 131.734029 131.749734 131.749505 131.764093 131.780663
19.480000 131.722985 131.737625 131.752885 131.752664 131.766723 131.783573
19.520000 131.730706 131.743648 131.759081 131.758934 131.773288 131.788579
19.540000 131.734967 131.746653 131.762107 131.762027 131.776609 131.792270
19.560000 131.736885 131.749825 131.764841 131.765102 131.779953 131.794567
19.580000 131.740819 131.753143 131.768313 131.768221 131.783344 131.796743
19.600000 131.744301 131.757028 131.770831 131.771142 131.786348 131.799069
19.620000 131.747758 131.759938 131.773592 131.774228 131.789010 131.801714
19.640000 131.750756 131.763160 131.776628 131.777251 131.792163 131.804369
19.660000 131.753810 131.766137 131.779420 131.780189 131.795393 131.807499
19.680000 131.755719 131.768775 131.783021 131.783159 131.797828 131.810727
19.700000 131.757649 131.771515 131.785997 131.786119 131.801038 131.813890
19.720000 131.760418 131.774268 131.789004 131.789028 131.803948 131.817478
19.740000 131.763108 131.777027 131.792508 131.792111 131.807004 131.819863
19.760000 131.766085 131.780028 131.795544 131.795169 131.810480 131.822417
19.780000 131.769480 131.782477 131.798836 131.798228 131.813916 131.825506
19.840000 131.780962 131.790956 131.808643 131.807404 131.822903 131.833918
19.880000 131.787453 131.796310 131.814612 131.813558 131.828375 131.838799
19.900000 131.789952 131.799056 131.817502 131.816622 131.831854 131.843008
19.920000 131.792394 131.802548 131.820514 131.819649 131.834654 131.846611
19.940000 131.794730 131.805914 131.823757 131.822710 131.837697 131.850260
19.960000 131.797528 131.808622 131.826772 131.825628 131.840384 131.853015
19.980000 131.799942 131.811748 131.830161 131.828613 131.843081 131.855512
20.000000 131.802521 131.814668 131.832650 131.831477 131.845620 131.859084
20.020000 131.805023 131.817711 131.835682 131.834397 131.848775 131.861154
20.040000 131.808309 131.820938 131.838787 131.837294 131.851643 131.864587
20.060000 131.811514 131.823582 131.841176 131.840266 131.854001 131.868571
20.080000 131.814406 131.827021 131.843772 131.843215 131.857105 131.871047
20.100000 131.817215 131.830068 131.846678 131.846029 131.859741 131.874353
20.120000 131.821100 131.833745 131.849003 131.848894 131.862307 131.877665
20.140000 131.824723 131.836569 131.851619 131.851790 131.865315 131.880971
20.160000 131.827746 131.839819 131.854620 131.854668 131.868036 131.883840
20.180000 131.829708 131.843292 131.857511 131.857620 131.871536 131.886927
20.200000 131.833688 131.846462 131.860230 131.860632 131.874390 131.891545
20.220000 131.836570 131.849340 131.863076 131.863380 131.877173 131.894208
20.240000 131.839640 131.852137 131.865773 131.866264 131.879486 131.897130
20.260000 131.843096 131.855125 131.868187 131.869021 131.882063 131.899697
20.280000 131.846490 131.858416 131.870938 131.871793 131.885281 131.901644
20.300000 131.850882 131.861240 131.873561 131.874578 131.888315 131.904262
20.320000 131.853384 131.864214 131.875947 131.877325 131.890661 131.907526
20.340000 131.856229 131.866899 131.879024 131.880160 131.893352 131.910182
20.360000 131.858397 131.869580 131.881966 131.882912 131.895831 131.912997
20.380000 131.861012 131.872438 131.884771 131.885766 131.898050 131.916626
20.400000 131.863782 131.875335 131.887488 131.888708 131.900887 131.920840
20.420000 131.866347 131.878740 131.890332 131.891627 131.903913 131.923224
20.440000 131.869225 131.881678 131.893804 131.894519 131.906488 131.926168
20.460000 131.872304 131.884423 131.896494 131.897295 131.909480 131.928655
20.480000 131.875194 131.887390 131.899538 131.900171 131.912423 131.931054
20.500000 131.879611 131.890175 131.902507 131.903164 131.915495 131.933841
20.520000 131.882302 131.893033 131.905223 131.906062 131.919118 131.937502
