depth(m) lower_95(kyr) lower_68(kyr) median(kyr) mean(kyr) upper_68(kyr) upper_95(kyr)
166.190000 1493.877372 1497.188092 1499.966438 1499.789291 1502.398856 1504.900443
166.290000 1496.148117 1498.874068 1501.328525 1501.214656 1503.640431 1505.959177
166.390000 1497.729875 1500.330441 1502.757474 1502.675083 1505.022449 1507.131777
166.490000 1499.150731 1501.605622 1504.158923 1504.042500 1506.472493 1508.441189
166.620000 1501.600150 1503.505840 1506.092669 1505.990650 1508.325668 1510.319954
166.690000 1502.769661 1504.802031 1507.352984 1507.287619 1509.639106 1511.566749
166.785000 1504.984015 1507.199775 1509.647978 1509.545848 1511.763363 1513.807448
166.885000 1508.132855 1510.771231 1512.993842 1512.874554 1514.962543 1517.025235
166.985000 1512.157489 1513.977420 1515.826743 1515.883858 1517.832837 1520.026539
167.085000 1514.377246 1516.318238 1518.065237 1518.142888 1520.016924 1522.074448
167.185000 1516.268733 1518.394873 1520.156457 1520.193487 1522.008867 1524.011995
167.285000 1518.609884 1520.561335 1522.403397 1522.300333 1524.039259 1525.519556
167.385000 1521.392870 1522.996661 1524.749203 1524.606562 1526.098527 1527.227776
167.485000 1523.455743 1525.066523 1526.453984 1526.328103 1527.598678 1528.447107
167.585000 1525.211865 1526.633611 1527.831111 1527.718200 1528.794194 1529.705341
167.685000 1526.668541 1527.828369 1528.938661 1528.845346 1529.843153 1530.652971
167.785000 1527.722793 1528.913454 1529.912585 1529.845802 1530.789092 1531.604853
167.885000 1528.992675 1529.945562 1530.876007 1530.849060 1531.761980 1532.479340
167.985000 1530.032421 1530.886112 1531.814139 1531.778178 1532.659316 1533.292838
168.085000 1530.984643 1531.816216 1532.696190 1532.679335 1533.557088 1534.267482
168.185000 1531.939433 1532.716756 1533.585915 1533.570799 1534.431839 1535.208710
168.285000 1532.720946 1533.602546 1534.459752 1534.438156 1535.277401 1536.060174
168.385000 1533.551993 1534.517623 1535.305208 1535.304081 1536.127442 1536.968289
168.485000 1534.555125 1535.367815 1536.168537 1536.175634 1536.962729 1537.792946
168.585000 1535.275970 1536.238453 1537.018480 1537.022925 1537.870795 1538.648518
168.685000 1536.216925 1537.118019 1537.870852 1537.882981 1538.693327 1539.371286
168.785000 1537.178342 1537.938402 1538.760818 1538.741851 1539.541403 1540.226050
168.885000 1538.139586 1538.871972 1539.660365 1539.648330 1540.408493 1541.125046
168.985000 1539.091200 1539.794134 1540.577683 1540.554390 1541.306379 1542.052598
169.085000 1540.124964 1540.708194 1541.495137 1541.492022 1542.219745 1542.938140
169.185000 1541.006375 1541.680664 1542.481886 1542.474578 1543.237078 1544.063682
169.285000 1541.997551 1542.655892 1543.448989 1543.509901 1544.308845 1545.374360
169.385000 1542.893282 1543.671246 1544.490431 1544.598452 1545.484572 1546.912636
169.485000 1543.824809 1544.720409 1545.544965 1545.762242 1546.772366 1548.591712
169.585000 1544.887153 1545.756014 1546.735718 1547.005408 1548.265077 1550.471323
169.685000 1545.977933 1546.857749 1548.079133 1548.368034 1549.929824 1552.253072
169.785000 1547.207980 1548.148402 1549.597599 1549.915474 1551.707812 1554.105286
169.885000 1548.315003 1549.405611 1551.286922 1551.535305 1553.610724 1556.013295
169.985000 1549.495860 1550.779451 1552.935806 1553.002707 1555.228608 1557.120908
170.085000 1550.436745 1552.155083 1554.438444 1554.452102 1556.839535 1558.525581
170.185000 1551.805542 1553.522382 1555.801365 1555.796745 1558.098871 1559.640235
170.285000 1552.681184 1554.830546 1557.246341 1557.085225 1559.213509 1560.840272
170.385000 1554.021923 1556.316724 1558.532174 1558.348711 1560.302319 1561.867099
170.485000 1555.506898 1557.742690 1559.800426 1559.620880 1561.395282 1563.082401
170.585000 1556.950126 1559.259508 1561.136453 1560.986254 1562.702633 1564.347031
170.685000 1558.403123 1560.591083 1562.394997 1562.302439 1564.021631 1565.565091
170.785000 1560.104118 1561.937067 1563.719218 1563.623361 1565.237581 1566.711799
170.885000 1561.533867 1563.376427 1565.056616 1564.996226 1566.561454 1567.992370
170.985000 1563.182258 1564.981717 1566.466083 1566.451223 1567.991289 1569.422152
171.085000 1564.907118 1566.460999 1568.049726 1568.063883 1569.650039 1571.362386
171.185000 1567.058287 1568.477522 1570.141479 1570.237604 1571.894549 1574.292405
171.285000 1569.168646 1570.670920 1572.396550 1572.586433 1574.358951 1577.111210
171.385000 1571.140177 1572.872433 1574.722155 1574.838481 1576.805906 1579.176829
171.485000 1573.311720 1574.985777 1576.987050 1577.050573 1579.047899 1581.332371
171.585000 1575.463142 1577.365896 1579.366899 1579.434838 1581.379928 1584.172415
171.685000 1577.906996 1579.913467 1581.917379 1582.187080 1584.483584 1587.719384
171.785000 1580.081943 1582.336460 1584.628068 1584.936629 1587.697052 1591.109114
171.885000 1583.042913 1585.169815 1587.797976 1587.979033 1590.913048 1593.954626
171.985000 1585.618034 1587.939635 1590.699507 1590.808211 1593.665258 1596.089623
172.085000 1588.105148 1590.425881 1593.266914 1593.191670 1595.892692 1598.128582
172.185000 1590.397260 1593.081375 1595.861736 1595.648571 1598.067905 1600.389727
172.285000 1593.420090 1595.730044 1598.242678 1598.098968 1600.228505 1602.362046
172.385000 1595.899469 1598.170665 1600.237013 1600.251761 1602.231078 1604.292690
172.485000 1598.181211 1600.116302 1602.124149 1602.192413 1604.330183 1606.338006
172.585000 1600.107369 1601.916019 1604.139765 1604.140231 1606.293776 1608.559253
172.685000 1601.926934 1604.054393 1606.210850 1606.201763 1608.279823 1610.529484
172.785000 1604.102909 1606.538042 1608.625323 1608.624096 1610.846679 1612.760532
172.885000 1606.555124 1608.680162 1610.727760 1610.756664 1612.895304 1614.755750
172.985000 1608.454969 1610.554764 1612.564077 1612.559070 1614.550829 1616.449108
173.085000 1610.208140 1612.289672 1614.282750 1614.286689 1616.293327 1618.292471
173.185000 1612.022790 1613.821473 1615.890587 1615.916811 1618.006490 1620.345084
173.285000 1613.464482 1615.330597 1617.273912 1617.404171 1619.465519 1622.056466
173.385000 1614.756397 1616.879295 1618.862826 1618.938127 1621.029702 1623.473140
173.485000 1616.368693 1618.285453 1620.269610 1620.464433 1622.598126 1625.216588
173.585000 1617.698701 1619.710709 1621.761216 1621.943007 1624.210444 1626.920593
173.685000 1619.130578 1621.084914 1623.247892 1623.418532 1625.798280 1628.574439
173.785000 1620.402065 1622.533556 1624.800982 1624.886645 1627.257794 1630.085678
173.885000 1621.805104 1624.034064 1626.310966 1626.425289 1628.769217 1631.497784
173.985000 1623.539581 1625.681245 1628.007164 1628.037555 1630.359969 1632.956352
174.085000 1625.153784 1627.504652 1629.746542 1629.753462 1632.013016 1634.386978
174.185000 1626.930514 1629.114064 1631.472653 1631.462545 1633.837258 1635.960406
174.285000 1628.898872 1630.861969 1633.210841 1633.167579 1635.368177 1637.342899
174.385000 1630.736912 1632.828320 1635.021280 1634.957114 1637.189734 1638.878857
174.485000 1632.230490 1634.718830 1636.924587 1636.863244 1639.004144 1640.925253
174.585000 1634.687247 1636.829133 1638.831889 1638.823744 1640.834780 1642.734524
174.685000 1636.464763 1638.480647 1640.598448 1640.586405 1642.694278 1644.626931
174.785000 1638.077129 1640.077353 1642.227632 1642.234829 1644.334306 1646.356959
174.885000 1639.742961 1641.934218 1644.113481 1644.025661 1646.077794 1648.100451
174.985000 1641.988549 1643.702091 1645.794391 1645.761281 1647.799847 1650.097911
175.085000 1643.719322 1645.381923 1647.322348 1647.347944 1649.294663 1651.566469
175.185000 1644.918324 1646.758042 1648.679600 1648.760699 1650.785674 1653.051729
175.285000 1646.414410 1648.090824 1650.096265 1650.118223 1652.147235 1654.469878
175.385000 1647.639749 1649.301396 1651.291685 1651.414278 1653.511341 1656.027090
175.485000 1648.691474 1650.533789 1652.569411 1652.666225 1654.783998 1657.081332
175.585000 1649.904068 1651.734448 1653.817449 1653.912857 1656.079885 1658.269865
175.685000 1651.011871 1653.045679 1655.109523 1655.221905 1657.474012 1659.538374
175.785000 1652.127076 1654.299379 1656.494096 1656.557059 1658.986202 1660.963148
175.885000 1653.542301 1655.552007 1657.911047 1657.901490 1660.398934 1662.108255
175.985000 1655.024855 1656.927603 1659.352847 1659.300970 1661.721923 1663.499233
176.085000 1656.449940 1658.354385 1660.761598 1660.724963 1663.176062 1664.750517
176.185000 1657.836170 1659.934191 1662.284943 1662.250398 1664.575140 1666.172317
176.285000 1659.320771 1661.588086 1663.928317 1663.840184 1665.971629 1667.829251
176.385000 1661.518843 1663.522951 1665.682116 1665.625938 1667.622764 1669.524859
176.485000 1663.946114 1665.907831 1667.758259 1667.791158 1669.689916 1671.745112
176.585000 1666.564908 1668.349672 1670.318332 1670.324178 1672.277288 1674.485102
176.685000 1668.672858 1670.434704 1672.303816 1672.397480 1674.362173 1676.652917
176.785000 1670.300749 1672.288880 1674.023206 1674.195418 1676.297057 1678.501202
176.885000 1672.001712 1673.795345 1675.683000 1675.887968 1678.051728 1680.326061
176.985000 1673.695480 1675.414585 1677.344128 1677.467461 1679.619520 1681.931109
177.085000 1674.847534 1676.820362 1678.873972 1678.940984 1681.032502 1683.642630
177.185000 1676.401208 1678.049214 1680.270166 1680.395573 1682.616984 1685.359636
177.285000 1677.734995 1679.460224 1681.670081 1681.889170 1684.159175 1687.127836
177.385000 1679.156273 1680.931141 1683.295007 1683.454737 1685.918683 1689.252347
177.485000 1680.642481 1682.707618 1685.092174 1685.252284 1687.824803 1690.995462
177.585000 1682.641285 1684.617408 1687.152510 1687.357308 1690.193678 1693.006596
177.685000 1684.403478 1686.668851 1689.229265 1689.399162 1692.218770 1695.004512
177.785000 1686.034176 1688.603180 1691.381321 1691.457917 1694.387842 1696.820904
177.885000 1688.128833 1691.054115 1694.051276 1693.819422 1696.471661 1698.933151
177.985000 1690.803257 1693.805345 1696.463662 1696.288757 1698.683619 1700.768423
178.085000 1694.039892 1697.026469 1699.345065 1699.138249 1701.300093 1702.903265
178.185000 1697.099638 1699.217782 1701.262696 1701.219343 1703.253229 1704.659978
178.285000 1699.459177 1701.186844 1703.078312 1702.989224 1704.792472 1706.364815
178.385000 1701.035163 1702.823019 1704.605663 1704.528018 1706.272846 1707.727027
178.485000 1702.463489 1704.441773 1706.244060 1706.129132 1707.794954 1709.205690
178.585000 1704.098362 1706.115375 1707.708725 1707.660637 1709.277050 1710.610031
178.685000 1706.013645 1707.705351 1709.159749 1709.140617 1710.663893 1712.017462
178.785000 1707.634544 1709.222427 1710.669108 1710.656808 1712.056074 1713.649050
178.885000 1709.212271 1710.552395 1712.065768 1712.070076 1713.445789 1715.168111
178.985000 1710.965821 1712.124303 1713.563520 1713.569870 1714.968603 1716.531865
179.085000 1712.451102 1713.550765 1715.047033 1715.088184 1716.595575 1718.088649
179.185000 1713.854487 1714.993941 1716.452472 1716.541748 1718.065882 1719.518801
179.285000 1715.135582 1716.355643 1717.869393 1717.910998 1719.429593 1721.191434
179.385000 1716.357305 1717.644679 1719.196644 1719.312084 1720.874791 1723.112918
179.485000 1717.576874 1718.962498 1720.656534 1720.801186 1722.531533 1725.170689
179.585000 1718.934272 1720.393868 1722.207592 1722.392102 1724.237528 1727.220912
179.685000 1720.394812 1722.007735 1723.948139 1724.144260 1726.398230 1729.046078
179.785000 1721.989775 1723.630342 1725.656220 1725.892240 1728.374597 1731.118433
179.885000 1723.388506 1725.207430 1727.398417 1727.637341 1730.091955 1732.815215
179.985000 1724.799522 1726.882704 1729.142522 1729.332831 1731.861669 1734.591345
180.085000 1726.476241 1728.377792 1730.931746 1731.070926 1733.786827 1736.547314
180.185000 1727.909774 1730.023311 1732.672234 1732.819338 1735.611623 1738.533006
180.285000 1729.605038 1731.841241 1734.428421 1734.543590 1737.377607 1740.373692
180.385000 1731.253957 1733.568226 1736.225113 1736.330254 1739.094304 1741.940507
180.485000 1733.119344 1735.540090 1738.122707 1738.166513 1740.817600 1743.480403
180.585000 1735.259515 1737.363714 1739.809827 1739.927538 1742.556260 1745.113790
180.685000 1737.024789 1739.043784 1741.591390 1741.704463 1744.359873 1747.170532
180.785000 1738.552669 1740.763292 1743.454582 1743.475308 1745.984754 1748.988557
180.885000 1740.317108 1742.741455 1745.421180 1745.423398 1747.982745 1750.613339
180.985000 1742.250534 1744.629188 1747.327155 1747.348932 1749.927237 1752.565103
181.085000 1744.009942 1746.512534 1749.090288 1749.127991 1751.773038 1754.178382
181.185000 1745.889895 1748.272829 1750.897483 1750.869989 1753.469241 1755.802552
181.285000 1747.643358 1750.124829 1752.746560 1752.682851 1755.298191 1757.377046
181.385000 1749.501079 1751.976268 1754.511146 1754.520474 1757.076532 1759.505347
181.485000 1751.271092 1753.794156 1756.416214 1756.379628 1759.010357 1761.535668
181.585000 1752.856922 1755.553282 1758.132927 1758.101674 1760.701470 1763.228527
181.685000 1754.438494 1757.243179 1759.741333 1759.706556 1762.211413 1764.561789
181.785000 1756.121980 1758.853860 1761.387603 1761.263316 1763.638899 1765.993357
181.885000 1758.295350 1760.579291 1762.983844 1762.962616 1765.259989 1767.479183
181.985000 1759.934159 1762.314036 1764.594664 1764.553472 1766.724243 1768.771478
182.085000 1761.505187 1763.872006 1766.021519 1766.021833 1768.205094 1770.054629
182.185000 1762.907681 1765.338766 1767.480694 1767.462626 1769.686197 1771.535835
182.285000 1764.567714 1766.759349 1768.964694 1768.874625 1771.063256 1772.885171
182.385000 1765.770367 1768.136456 1770.329279 1770.216783 1772.312473 1774.157237
182.485000 1767.364596 1769.440744 1771.661705 1771.585296 1773.723386 1775.419799
182.585000 1768.765452 1770.783545 1773.035171 1772.963425 1775.100639 1776.696720
182.685000 1770.216713 1772.280703 1774.478617 1774.363919 1776.321694 1778.127738
182.785000 1771.798134 1773.784392 1775.995957 1775.883031 1777.845340 1779.370889
182.885000 1773.519769 1775.472670 1777.651792 1777.509281 1779.404793 1781.255142
182.985000 1775.062916 1777.179580 1779.273660 1779.177108 1781.157725 1782.884432
183.085000 1777.119570 1779.116641 1781.163652 1781.042590 1782.898636 1784.593629
183.185000 1778.854293 1780.948293 1782.844884 1782.797860 1784.670789 1786.218364
183.285000 1780.737755 1782.787517 1784.604644 1784.518899 1786.203199 1787.758704
183.385000 1782.652475 1784.526292 1786.205399 1786.118617 1787.743098 1789.227489
183.485000 1784.412939 1786.247362 1787.824848 1787.794279 1789.328258 1790.939311
183.585000 1786.356777 1787.959781 1789.469511 1789.520609 1791.074962 1793.065532
183.685000 1788.278489 1789.634759 1791.126898 1791.221913 1792.799126 1794.693633
183.785000 1789.801743 1791.069188 1792.707027 1792.824360 1794.538978 1796.470333
183.885000 1790.983375 1792.474418 1794.277998 1794.357914 1796.279399 1798.369211
183.985000 1792.420948 1794.002019 1795.821619 1795.939008 1797.922788 1799.804416
184.085000 1794.143643 1795.790279 1797.760478 1797.711751 1799.691973 1801.431624
184.185000 1795.831594 1797.630415 1799.765888 1799.726706 1801.686334 1803.590514
184.285000 1798.381862 1800.167528 1802.289122 1802.354343 1804.379238 1807.143990
184.385000 1800.285503 1802.098760 1804.161593 1804.405096 1806.600567 1810.330402
184.485000 1802.062543 1804.037107 1806.205449 1806.617004 1809.118680 1813.611580
184.585000 1803.719985 1805.701066 1808.301080 1808.748053 1811.579850 1816.918406
184.685000 1805.275262 1807.442184 1810.061443 1810.768378 1814.096447 1819.924693
184.785000 1806.749099 1808.962197 1811.969154 1812.720979 1816.760546 1822.483555
184.885000 1808.147851 1810.492560 1813.763576 1814.642516 1819.114491 1825.489656
184.985000 1809.329701 1812.212616 1815.726199 1816.645459 1821.375074 1828.011679
185.126667 1811.061520 1814.342523 1818.680191 1819.464352 1824.788884 1831.697304
185.268333 1813.027787 1816.463848 1821.692129 1822.353185 1828.148898 1835.747938
185.410000 1815.224242 1818.694031 1824.745717 1825.211997 1831.557614 1838.638742
185.551667 1816.863800 1820.918882 1828.036153 1828.131223 1835.010710 1840.908454
185.693333 1818.919694 1823.173643 1831.212380 1831.057714 1838.363917 1844.175219
185.835000 1820.566682 1825.504231 1834.499223 1834.056500 1841.589494 1847.130136
185.976667 1822.332407 1827.717037 1837.850531 1836.936220 1844.704383 1849.874188
186.118333 1824.143901 1830.092048 1840.856202 1839.766879 1847.795694 1852.514282
186.260000 1825.868047 1832.076615 1844.192581 1842.631280 1850.482395 1855.917369
186.401667 1827.868099 1834.164292 1847.443970 1845.564739 1853.650267 1858.873364
186.543333 1829.565039 1835.963115 1850.719255 1848.413850 1856.751417 1861.429999
186.685000 1831.131957 1837.710462 1853.656805 1851.172357 1859.802009 1864.045299
186.826667 1832.737409 1839.685973 1856.761691 1853.879613 1862.722304 1866.464361
186.968333 1834.323999 1841.131086 1859.616194 1856.577904 1865.518983 1869.231098
187.110000 1835.704647 1843.160907 1862.907925 1859.323481 1868.314474 1871.501276
187.251667 1837.760112 1844.783049 1866.130324 1862.031844 1870.870337 1873.638106
187.393333 1839.979677 1846.482750 1869.055211 1864.689826 1873.021358 1875.570765
187.535000 1841.878847 1847.951180 1871.914021 1867.335370 1875.274694 1877.415773
187.635000 1843.386080 1849.275244 1873.937280 1869.176234 1877.028404 1878.867907
187.735000 1844.857637 1851.584779 1875.728159 1870.861478 1878.481154 1880.246543
187.835000 1846.144203 1853.179146 1877.243069 1872.384643 1879.789292 1881.438351
187.935000 1848.115259 1854.734535 1878.679734 1873.897215 1880.970944 1882.601597
188.035000 1849.647272 1856.549557 1879.956537 1875.303907 1882.188624 1883.760889
188.135000 1850.808016 1859.172675 1881.145707 1876.691902 1883.300289 1884.727541
188.235000 1853.334716 1861.344953 1882.371758 1878.092477 1884.349679 1885.698427
188.335000 1855.211150 1865.713638 1883.620458 1879.509128 1885.431260 1886.651233
188.475000 1858.768835 1871.926344 1885.070323 1881.665695 1886.875279 1888.089711
188.615000 1864.148452 1878.440728 1886.479278 1883.879057 1888.290230 1889.366371
188.755000 1868.938166 1882.182005 1887.988195 1885.973231 1889.639628 1890.721730
188.895000 1875.887593 1885.406544 1889.464148 1888.117296 1890.977671 1892.121861
189.035000 1881.011641 1888.333106 1890.940527 1890.184968 1892.347760 1893.528830
189.135000 1884.810252 1890.024241 1892.073831 1891.564942 1893.435578 1894.668303
189.235000 1887.794302 1891.397574 1893.228069 1892.896724 1894.564822 1895.706465
189.335000 1890.140856 1892.939873 1894.498555 1894.305821 1895.812857 1896.968520
189.435000 1892.891646 1894.655976 1896.032575 1895.937689 1897.260872 1898.381806
189.535000 1895.150819 1896.449033 1897.736513 1897.692191 1898.888634 1900.245527
189.635000 1897.099396 1898.206543 1899.448541 1899.551093 1900.932881 1902.268680
189.735000 1898.647206 1899.791849 1901.023712 1901.127108 1902.613516 1903.909100
189.835000 1900.028886 1901.238392 1902.522742 1902.608346 1904.086764 1905.444215
189.935000 1901.457876 1902.664736 1904.006471 1904.051120 1905.483174 1906.780861
190.035000 1902.769402 1904.094951 1905.506116 1905.568080 1907.068817 1908.597500
190.135000 1904.293062 1905.662042 1907.289869 1907.312119 1908.887059 1910.652879
190.235000 1905.803550 1907.368257 1909.085569 1909.139313 1910.811598 1912.606674
190.335000 1907.527572 1909.053793 1910.821480 1910.865147 1912.594618 1914.595686
190.435000 1909.175834 1910.787559 1912.562522 1912.648143 1914.479644 1916.545781
190.535000 1910.654387 1912.410862 1914.368387 1914.352558 1916.330382 1918.059036
190.635000 1911.921692 1913.946058 1915.917753 1915.884694 1917.886472 1919.289636
190.685000 1912.760719 1914.733231 1916.763613 1916.684064 1918.722973 1920.038408
190.785000 1914.286194 1916.398144 1918.410717 1918.277732 1920.156960 1921.576301
190.885000 1915.939362 1917.987771 1920.037550 1919.881003 1921.648773 1923.123447
