depth(m) lower_95(kyr) lower_68(kyr) median(kyr) mean(kyr) upper_68(kyr) upper_95(kyr)
88.017000 295.254441 299.627980 302.373998 302.147403 304.957693 306.995292
88.146667 295.583629 300.009997 302.690400 302.490950 305.290252 307.267905
88.276333 295.813802 300.326109 303.047373 302.827795 305.608756 307.560662
88.406000 296.199559 300.693325 303.347809 303.155848 305.865117 307.836327
88.542364 296.663170 301.013189 303.673602 303.511090 306.218557 308.184728
88.678727 297.087165 301.466628 304.025670 303.871361 306.557673 308.487009
88.815091 297.641322 301.961048 304.385432 304.235445 306.852355 308.810555
88.951455 298.126748 302.375005 304.705338 304.587269 307.152337 309.064008
89.087818 298.716796 302.836569 305.013877 304.938633 307.510968 309.288395
89.224182 299.153301 303.221490 305.389677 305.295958 307.821458 309.641082
89.360545 299.788357 303.651404 305.708385 305.643801 308.064881 309.922280
89.496909 300.045501 304.059917 306.026700 305.990787 308.317374 310.300461
89.633273 300.581009 304.440772 306.360688 306.321319 308.572228 310.589121
89.769636 301.059945 304.798993 306.693724 306.652969 308.844907 310.948711
89.906000 301.400161 305.254693 307.025877 306.989890 309.177341 311.188719
90.033714 301.715591 305.580091 307.310902 307.284525 309.468043 311.418628
90.161429 302.091827 305.965417 307.611128 307.578309 309.741057 311.820309
90.289143 302.847262 306.226996 307.873858 307.873591 309.960319 312.089158
90.416857 303.299925 306.551426 308.152958 308.154914 310.195583 312.370301
90.544571 303.581281 306.860473 308.422915 308.437488 310.438781 312.705008
90.672286 303.921987 307.149567 308.744791 308.718374 310.732198 312.868587
90.800000 304.269523 307.367204 309.024797 308.987729 310.959254 313.075783
90.940250 304.435822 307.676907 309.283147 309.282048 311.187783 313.451801
91.080500 304.828092 307.944826 309.578292 309.572868 311.445855 313.625630
91.220750 305.366775 308.229776 309.875928 309.857315 311.685040 313.892664
91.361000 305.830941 308.483642 310.161227 310.137862 311.934682 314.161790
91.501250 306.164068 308.806131 310.434462 310.421607 312.155471 314.450288
91.641500 306.649917 309.132471 310.687933 310.697849 312.396101 314.732340
91.781750 306.956453 309.453891 310.943988 310.975092 312.615449 314.935154
91.922000 307.303444 309.721823 311.209273 311.260640 312.862532 315.209094
92.062250 307.761050 310.007657 311.498135 311.542761 313.090851 315.474802
92.202500 308.006507 310.303159 311.761851 311.825163 313.361235 315.603926
92.342750 308.400318 310.625432 312.071401 312.115515 313.596537 315.872507
92.483000 308.787322 310.942157 312.335421 312.395570 313.838994 316.190174
92.623250 309.137875 311.286564 312.621440 312.674845 314.100677 316.512017
92.763500 309.538656 311.564223 312.907337 312.957185 314.341989 316.751151
92.903750 309.856466 311.870913 313.168477 313.242807 314.579878 316.942379
93.044000 310.346241 312.182339 313.444772 313.527980 314.831593 317.427922
93.184250 310.593258 312.477494 313.718384 313.821616 315.102638 317.774931
93.324500 310.900316 312.795086 313.997038 314.110421 315.410269 318.020883
93.464750 311.210647 313.145674 314.273604 314.415096 315.716184 318.328885
93.605000 311.594790 313.451910 314.579612 314.723392 316.051961 318.547567
93.697500 311.750915 313.689678 314.801090 314.947276 316.240801 318.727233
93.790000 311.980358 313.939211 315.064703 315.182696 316.466130 318.973047
93.922000 312.401177 314.236890 315.390307 315.524476 316.829077 319.467852
94.054000 312.742386 314.554234 315.736375 315.883150 317.271666 319.791938
94.186000 313.316339 314.855960 316.090059 316.245546 317.639400 320.011525
94.317286 313.746123 315.307854 316.492191 316.624961 318.027493 320.365399
94.448571 314.173625 315.602970 316.866996 317.026668 318.488826 320.830098
94.579857 314.568505 315.941851 317.205096 317.432074 319.043317 321.133597
94.711143 314.881863 316.353960 317.606797 317.868477 319.548832 321.664738
94.842429 315.260458 316.767783 318.015554 318.302733 320.111847 321.974379
94.973714 315.604606 317.191106 318.421412 318.749661 320.578631 322.341104
95.105000 315.980528 317.569575 318.877449 319.195139 321.061526 322.818685
95.207000 316.320481 317.894034 319.271904 319.583454 321.446908 323.341159
95.309000 316.608751 318.209426 319.585302 319.943912 321.921750 324.001239
95.411000 316.957552 318.541813 320.020255 320.320239 322.319322 324.397556
95.545200 317.360539 318.925693 320.568289 320.829995 322.881576 325.006393
95.679400 317.708383 319.397179 321.079322 321.356369 323.454454 325.682804
95.813600 318.084605 319.809428 321.584134 321.881976 324.049103 326.290383
95.947800 318.571110 320.254220 322.216215 322.415736 324.636676 326.894221
96.082000 319.024799 320.718962 322.778656 322.981709 325.220521 327.596370
96.216200 319.440475 321.200038 323.412471 323.574526 325.968824 328.361800
96.350400 319.892014 321.739924 324.044839 324.155091 326.638056 328.836744
96.484600 320.530940 322.219510 324.703765 324.768452 327.451943 329.353474
96.618800 320.959005 322.818532 325.393632 325.419521 328.108083 330.126761
96.753000 321.377450 323.346601 326.093317 326.071216 328.754375 330.670003
96.890667 322.120458 324.032370 326.968999 326.938013 329.570059 332.190543
97.028333 322.719653 324.901385 327.985614 327.833688 330.455628 333.119483
97.166000 323.541553 325.869386 328.975861 328.840164 331.636873 334.167782
97.303667 324.422350 327.124939 330.090368 329.888665 332.643266 334.882915
97.441333 325.270705 328.199047 331.036666 330.904746 333.540569 335.860610
97.579000 326.613823 329.224754 332.015905 331.972862 334.464508 336.896312
97.716667 328.207050 330.437089 333.171975 333.090805 335.527489 338.274500
97.854333 329.437773 331.739005 334.256170 334.212025 336.517672 339.611507
97.992000 330.447864 332.860506 335.369921 335.302094 337.448312 340.922901
98.129667 331.871586 333.851371 336.260859 336.297589 338.359197 342.160996
98.267333 332.783128 334.908593 337.106653 337.169784 339.145954 342.991540
98.405000 333.742455 335.733535 337.843310 337.979132 339.814532 344.249864
98.519333 334.165963 336.343371 338.469632 338.564697 340.464563 344.822331
98.633667 334.791075 336.984887 339.008018 339.146860 341.136662 345.243987
98.748000 335.262789 337.480981 339.498261 339.651259 341.604170 345.893076
98.870600 335.949761 338.032419 340.012320 340.162469 342.093815 346.240504
98.993200 336.368345 338.569188 340.482730 340.658496 342.664951 346.589204
99.115800 336.857756 338.949580 340.958483 341.127787 343.111081 346.860049
99.238400 337.291573 339.427399 341.425169 341.574298 343.631714 347.165243
99.361000 337.757889 339.872201 341.875140 342.033471 344.118227 347.658308
99.478250 338.284901 340.291457 342.277592 342.451628 344.705350 347.960859
99.595500 338.567288 340.660770 342.714839 342.851471 345.134553 348.241275
99.712750 339.135808 341.021173 343.102063 343.235269 345.505308 348.515133
99.830000 339.541706 341.386627 343.508530 343.616705 345.907164 348.928917
99.967273 340.009382 341.761998 343.953034 344.081442 346.357951 349.368945
100.104545 340.464522 342.178539 344.395325 344.545715 346.861469 349.767965
100.241818 340.932351 342.586437 344.828291 344.999392 347.326982 350.122798
100.379091 341.245848 343.028305 345.298136 345.456860 347.698189 350.538388
100.516364 341.581437 343.474142 345.754374 345.932195 348.263680 351.025502
100.653636 341.964399 343.942474 346.236830 346.387259 348.779584 351.407464
100.790909 342.329757 344.291552 346.732506 346.830727 349.317071 351.755980
100.928182 342.734002 344.720279 347.213754 347.275316 349.744535 352.134176
101.065455 343.142660 345.168034 347.670200 347.726214 350.218398 352.620550
101.202727 343.450144 345.624378 348.125496 348.158041 350.709087 353.161428
101.340000 343.702354 346.013246 348.571929 348.574270 351.121719 353.492772
101.484000 343.948853 346.457884 349.007402 349.006201 351.628222 353.922411
101.628000 344.236987 346.884327 349.454292 349.442193 352.166690 354.191238
101.772000 344.557821 347.344518 349.910637 349.882464 352.606809 354.515695
101.916000 344.885223 347.802988 350.351316 350.335325 353.092885 354.943937
102.060000 345.155853 348.332966 350.802980 350.768286 353.486381 355.387829
102.204000 345.412696 348.771989 351.177780 351.193879 353.968444 355.775776
102.348000 345.674489 349.192863 351.640352 351.626807 354.409903 356.079339
102.492000 345.996668 349.622472 352.060322 352.035857 354.811535 356.451291
102.636000 346.235863 350.081024 352.493676 352.452213 355.186713 356.769372
102.780000 346.480842 350.599264 352.964286 352.876946 355.661581 357.100130
102.890500 346.752404 350.846067 353.317685 353.184026 355.957293 357.421940
103.001000 347.043509 351.175469 353.697545 353.487074 356.219777 357.677603
103.111000 347.266765 351.476451 354.034438 353.810219 356.608856 357.964308
103.220667 347.580990 351.797313 354.409406 354.136632 356.910386 358.315725
103.330333 347.822224 352.086077 354.698526 354.463709 357.165718 358.552549
103.440000 348.110066 352.395891 355.035809 354.794807 357.501372 358.871720
103.545333 348.300390 352.693871 355.327644 355.099937 357.754753 359.252325
103.650667 348.697001 353.006373 355.656167 355.426715 358.027263 359.627173
103.756000 349.120348 353.281367 355.962162 355.746052 358.298827 359.919976
103.889545 349.517227 353.675357 356.361787 356.157256 358.611974 360.339696
104.023091 350.061699 354.122735 356.762289 356.562247 358.999868 360.824219
104.156636 350.415443 354.552783 357.242868 356.992763 359.401886 361.133918
104.290182 350.607801 354.918780 357.679261 357.419669 359.831676 361.578431
104.423727 351.322627 355.287434 358.060619 357.836439 360.291955 361.974650
104.557273 351.723084 355.802400 358.465894 358.250903 360.773208 362.395700
104.690818 352.075293 356.195385 358.840018 358.663168 361.262897 362.842731
104.824364 352.562149 356.686597 359.258854 359.070434 361.675683 363.317542
104.957909 352.835096 357.138978 359.637420 359.471224 362.098154 363.716798
105.091455 353.154906 357.546466 359.959196 359.865471 362.563822 364.155930
105.225000 353.495688 358.057100 360.260066 360.262762 363.009699 364.625876
105.256000 353.601551 358.158313 360.359875 360.354764 363.103055 364.705098
105.398000 354.115986 358.599651 360.755479 360.796500 363.586508 365.157739
105.540000 354.597869 359.021981 361.163830 361.206791 363.947056 365.435296
105.682000 355.144580 359.513599 361.578571 361.629028 364.338473 365.787698
105.824000 355.688317 359.898449 362.043821 362.038198 364.675462 366.104558
105.966000 356.157310 360.230852 362.516904 362.451258 365.092232 366.656330
106.108000 356.526884 360.559202 362.958574 362.855002 365.491974 367.008862
106.250000 356.873567 360.904593 363.346444 363.250894 365.847902 367.743418
106.392000 357.190740 361.299879 363.758108 363.634232 366.238003 368.251431
106.534000 357.458590 361.607596 364.191329 364.011383 366.550757 369.022794
106.676000 358.229451 361.916670 364.581148 364.389587 366.895618 369.443216
106.820833 358.613681 362.258694 364.955829 364.750536 367.195118 369.941471
106.965667 359.088030 362.562676 365.352125 365.098735 367.565258 370.451523
107.110500 359.408675 362.920114 365.729277 365.452060 367.964676 370.738828
107.255333 359.950651 363.262375 366.106438 365.816757 368.260425 371.047599
107.400167 360.316901 363.513147 366.480302 366.171416 368.633330 371.512457
107.545000 360.689158 363.790601 366.891138 366.531359 368.997196 371.906605
107.689833 360.899712 364.087215 367.258637 366.888210 369.336386 372.382829
107.834667 361.465446 364.347445 367.640566 367.248163 369.727850 372.763284
107.979500 361.967715 364.702855 367.975317 367.599859 370.085353 373.155614
108.124333 362.461086 364.974906 368.323052 367.941379 370.404826 373.472166
108.269167 362.784383 365.282808 368.663927 368.292589 370.766816 373.971547
108.414000 363.053549 365.616853 369.031957 368.642051 371.081902 374.346524
108.558833 363.304938 365.969405 369.385901 368.982444 371.441312 374.684252
108.703667 363.639463 366.342420 369.717037 369.317448 371.793017 375.015408
108.848500 364.169190 366.630665 370.033246 369.646783 372.173384 375.291369
108.993333 364.485067 366.946000 370.381891 369.996934 372.520493 375.608172
109.138167 364.812223 367.239982 370.695347 370.336594 372.829472 375.962787
109.283000 365.176775 367.586071 371.003174 370.666930 373.148921 376.351486
109.424421 365.502862 367.887817 371.337294 370.996819 373.468296 376.626030
109.565842 365.785165 368.242915 371.646197 371.314584 373.965789 376.998300
109.707263 366.124513 368.587795 372.011355 371.634077 374.317513 377.245412
109.848684 366.375706 368.895707 372.360555 371.955448 374.671173 377.540629
109.990105 366.688677 369.180982 372.657829 372.288552 375.040969 377.986983
110.131526 366.940030 369.517573 372.968792 372.617781 375.336499 378.241993
110.272947 367.293580 369.845551 373.281268 372.947163 375.655240 378.540683
110.414368 367.552629 370.195165 373.590694 373.267699 376.017925 378.825584
110.555789 367.956692 370.500258 373.915555 373.594770 376.346034 379.170258
110.697211 368.271224 370.815351 374.223772 373.926803 376.677441 379.502051
110.838632 368.495138 371.121401 374.531627 374.258208 376.960881 379.799388
110.980053 368.896125 371.465294 374.844305 374.592259 377.388288 380.145988
111.121474 369.208043 371.787739 375.183249 374.917927 377.765774 380.359954
111.262895 369.486574 372.102926 375.520499 375.239464 378.115697 380.675568
111.404316 369.741770 372.411241 375.847852 375.569855 378.441244 380.992327
111.545737 370.082898 372.720530 376.175551 375.894464 378.751618 381.323071
111.687158 370.359267 373.106400 376.523970 376.215191 379.131654 381.566117
111.828579 370.866919 373.438939 376.785859 376.549111 379.413178 381.891481
111.970000 371.194039 373.762517 377.132608 376.889376 379.771840 382.198152
112.115111 371.583914 374.092368 377.496110 377.245740 380.143405 382.464030
112.260222 371.979592 374.456170 377.816886 377.602321 380.436489 382.795221
112.405333 372.383442 374.895734 378.146707 377.950222 380.764366 383.137343
112.550444 372.607671 375.298180 378.562051 378.310102 381.065697 383.440407
112.695556 373.034297 375.630053 378.947439 378.683115 381.476531 383.753049
112.840667 373.316876 376.015323 379.319482 379.046740 381.847547 384.075934
112.985778 373.695113 376.357137 379.646449 379.415051 382.122611 384.435241
113.130889 373.937461 376.758834 379.977427 379.786087 382.463808 384.801714
113.276000 374.313375 377.144333 380.340516 380.154566 382.786004 385.111284
113.412364 374.660098 377.498628 380.787659 380.522188 383.123066 385.415265
113.548727 375.065706 377.856061 381.138218 380.887803 383.497647 385.811408
113.685091 375.474513 378.240095 381.569482 381.264958 383.882833 386.125416
113.821455 375.999784 378.617893 381.949707 381.638767 384.262854 386.511839
113.957818 376.409205 378.964550 382.337709 382.007068 384.645477 386.912312
114.094182 376.579887 379.335871 382.773195 382.416323 385.132190 387.339164
114.230545 376.975610 379.775042 383.161960 382.805117 385.493133 387.762623
114.366909 377.403982 380.213873 383.555312 383.184244 385.847572 388.057149
114.503273 377.878072 380.598460 383.914272 383.557616 386.229964 388.368735
114.639636 378.401023 381.031534 384.287896 383.952735 386.548349 388.719392
114.776000 378.905120 381.504657 384.635471 384.351617 386.883244 389.107649
114.918400 379.394454 381.868627 385.043929 384.730409 387.287310 389.445349
115.060800 379.735592 382.344192 385.484440 385.152274 387.735603 389.958728
115.203200 380.066683 382.886991 385.888501 385.572067 388.206036 390.276554
115.345600 380.454025 383.298860 386.305677 385.981567 388.627599 390.736048
115.488000 380.847701 383.793004 386.665576 386.420661 389.086329 391.133240
115.597333 381.116603 384.139855 386.946172 386.763502 389.338037 391.512858
115.706667 381.398024 384.436709 387.318144 387.120906 389.699951 391.876706
115.816000 381.854024 384.790089 387.621852 387.471416 390.071022 392.200770
115.932500 382.240412 385.147623 387.939724 387.838727 390.406634 392.591876
116.049000 382.839811 385.615612 388.273848 388.228301 390.755414 392.963690
116.165500 383.313921 385.978029 388.652992 388.615341 391.079686 393.508247
116.282000 383.693270 386.376103 389.005195 388.987643 391.463194 393.911950
116.417818 384.099580 386.831795 389.443112 389.464170 391.874451 394.554935
116.553636 384.522418 387.461376 389.847004 389.941222 392.358115 395.099495
116.689455 385.012272 387.975094 390.271189 390.451878 392.861102 395.925666
116.825273 385.435904 388.476451 390.688537 390.965992 393.467246 397.005865
116.961091 385.953068 388.947604 391.149429 391.489099 393.985218 398.412315
117.096909 386.455511 389.507490 391.640078 392.084254 394.687159 401.215795
117.232727 386.862899 389.958604 392.088554 392.598612 395.122028 402.400386
117.368545 387.295829 390.502108 392.548216 393.097619 395.667854 403.781956
117.504364 387.611511 390.929503 393.046008 393.603736 396.133701 404.253344
117.640182 388.342614 391.337133 393.498028 394.145377 396.568704 405.104052
117.776000 388.903277 391.793756 394.105753 394.679591 397.154871 405.714803
117.912364 389.239619 392.143527 394.679387 395.260690 397.882786 406.168088
118.048727 389.878846 392.681244 395.263269 395.902616 398.799027 407.102721
118.185091 390.276553 393.264163 395.840345 396.598812 399.853426 408.160961
118.321455 390.737222 393.721367 396.550408 397.284984 400.649439 408.929989
118.457818 391.368050 394.227717 397.249065 397.978974 401.770160 409.927338
118.594182 392.096589 394.799573 397.972736 398.767908 402.827440 410.639008
118.730545 392.722795 395.323347 398.635392 399.503783 403.935354 411.270428
118.866909 393.249484 395.756517 399.318820 400.245489 405.000506 412.889092
119.003273 393.760545 396.318037 399.847902 400.972872 406.060039 413.760120
119.139636 394.196186 396.778192 400.710073 401.676426 406.792100 414.551327
119.276000 394.709084 397.365629 401.430135 402.432906 407.654109 415.872042
119.356000 394.931081 397.666066 401.864939 402.794825 408.022777 416.183797
119.487111 395.683068 398.816559 403.943707 404.503204 410.087774 417.351736
119.618222 396.782518 400.426637 406.408610 406.571901 412.585324 418.513289
119.749333 398.664404 402.913876 409.176814 409.117635 414.906528 420.422429
119.880444 401.161447 406.627550 411.996067 411.837427 417.028399 421.678532
120.011556 404.458888 409.251753 414.645830 414.451900 419.569813 423.547260
120.142667 406.763947 411.549163 417.046183 416.779119 421.974099 424.780029
120.273778 409.217659 414.351764 419.813823 419.167622 423.832419 425.881123
120.404889 411.764654 417.283904 421.752889 421.088327 424.894420 426.749911
120.536000 413.555947 419.155624 423.051755 422.452377 425.594777 427.299735
120.659500 415.623212 421.064206 424.122988 423.611881 426.442155 428.286715
120.783000 416.872279 422.370523 424.961587 424.586468 427.050460 428.968680
120.906500 418.580057 423.301625 425.854208 425.399399 427.692589 429.523315
121.030000 419.698890 424.008976 426.455952 426.144750 428.285301 430.100667
121.164250 421.056212 424.987615 427.342976 427.096038 429.251951 430.955119
121.298500 423.338537 425.951622 428.184376 428.044142 430.118052 431.948018
121.432750 425.018659 426.994046 429.062697 428.986019 430.943570 432.646980
121.567000 425.699570 427.881332 429.823609 429.811135 431.678326 433.582180
121.704500 426.256494 428.424060 430.381367 430.416225 432.369677 434.605328
121.842000 426.798676 428.976248 431.001043 430.995236 433.063073 435.313193
121.981737 427.405007 429.442557 431.483571 431.537111 433.649619 435.750504
122.121474 428.011866 429.827297 432.088916 432.056817 434.189967 436.202275
122.261211 428.457404 430.243039 432.641620 432.543151 434.655037 436.856284
122.400947 428.892341 430.635782 433.139492 433.034507 435.297628 437.429000
122.540684 429.176213 431.023463 433.632985 433.516156 435.931457 438.104575
