depth(m) lower_95(kyr) lower_68(kyr) median(kyr) mean(kyr) upper_68(kyr) upper_95(kyr)
52.000000 699.035257 699.948815 700.841477 700.836799 701.726540 702.619130
52.100000 699.903848 700.869054 701.798398 701.841269 702.808583 703.832611
52.200000 700.772274 701.770169 702.773913 702.834444 703.864687 705.419016
52.300000 701.724382 702.660073 703.717735 703.825932 705.040631 706.672966
52.400000 702.647027 703.571874 704.719383 704.878233 706.261146 707.835593
52.500000 703.642959 704.536849 705.853057 705.983420 707.460778 709.056031
52.600000 704.613848 705.689743 707.114846 707.151505 708.635262 710.066042
52.700000 705.650295 706.827039 708.446108 708.388572 709.864762 711.161809
52.800000 706.643942 708.136252 709.727081 709.636604 711.059601 712.020402
52.900000 707.992007 709.561575 711.071038 710.902508 712.202492 713.047474
53.000000 709.319815 711.019130 712.304402 712.149424 713.253316 714.099121
53.100000 711.087347 712.479331 713.459581 713.398835 714.369108 715.116240
53.200000 712.594427 713.729165 714.569181 714.562232 715.443067 716.295110
53.300000 714.048947 714.847973 715.642463 715.654031 716.470600 717.216053
53.400000 714.883784 715.736323 716.588713 716.574059 717.413746 718.290122
53.500000 715.801026 716.584188 717.430500 717.444617 718.304334 719.201325
53.600000 716.630689 717.417254 718.270814 718.304641 719.151381 720.203563
53.700000 717.414946 718.223193 719.127526 719.133364 719.961249 721.010040
53.800000 718.273604 719.065746 719.968764 719.981868 720.852189 721.917446
53.900000 719.061783 719.912802 720.854376 720.869826 721.743500 722.813842
54.000000 719.980667 720.906500 721.828128 721.918148 722.868449 724.172514
54.100000 720.971143 721.968598 722.958113 723.066260 724.140956 725.550207
54.200000 722.063799 723.070798 724.230995 724.579863 726.024003 729.037344
54.300000 723.054434 724.212316 725.727910 726.222155 728.224490 732.786912
54.400000 724.263809 725.914515 728.158189 728.695860 731.648643 735.239859
54.500000 725.899494 727.959222 731.180429 731.346794 734.970223 737.518688
54.600000 727.640083 730.509054 734.161296 733.950114 737.233061 739.648781
54.700000 729.721354 733.679680 736.851492 736.543966 739.490344 741.390760
54.800000 732.085356 736.078694 739.058946 738.689956 741.477382 742.932552
54.900000 735.506549 738.349328 741.172483 740.877413 743.152900 744.482575
55.000000 738.140908 741.162801 743.266751 742.973662 744.760534 746.102890
55.100000 740.806761 743.495940 744.954088 744.813884 746.216214 747.607626
55.200000 742.152029 744.496758 746.064300 745.945577 747.487684 749.006893
55.300000 743.384033 745.412500 746.962676 746.959539 748.645314 750.453634
55.400000 744.379218 746.247310 747.884448 747.925820 749.723542 751.631743
55.500000 745.232948 747.113618 748.841878 748.845392 750.631915 752.571775
55.600000 746.082636 747.935152 749.714861 749.752566 751.604481 753.683082
55.700000 746.970636 748.804577 750.560716 750.644340 752.574519 754.663855
55.800000 747.979942 749.618522 751.478324 751.566081 753.573847 755.666274
55.900000 749.114142 750.514737 752.437406 752.488737 754.449596 756.429708
56.000000 750.093423 751.478636 753.301179 753.405442 755.375869 757.237379
56.100000 750.883430 752.437460 754.225565 754.357764 756.361525 758.030033
56.200000 751.944992 753.467083 755.207452 755.323413 757.287610 758.879127
56.300000 753.166829 754.680301 756.380710 756.441547 758.317153 759.738299
56.400000 754.676735 756.147429 757.836578 757.882938 759.600447 761.260569
56.500000 755.940593 757.747390 759.456731 759.408155 760.997248 763.025099
56.600000 757.399220 759.091683 760.662213 760.710873 762.382301 764.261916
56.700000 758.679658 760.292087 761.785959 761.915137 763.605100 765.513220
56.800000 759.678379 761.297418 762.845215 763.005667 764.707481 766.891567
56.900000 760.872727 762.343320 763.938151 764.065104 765.858302 768.016568
57.000000 761.894087 763.317618 764.898474 765.067514 766.791808 768.962154
57.100000 763.011220 764.335289 765.914081 766.048243 767.722635 769.759424
57.200000 763.792026 765.227119 766.876115 766.961823 768.693989 770.839634
57.300000 764.657961 766.129725 767.821030 767.872316 769.599670 771.625446
57.400000 765.561302 767.034242 768.755983 768.781697 770.487275 772.350571
57.500000 766.505699 767.932544 769.725416 769.690968 771.389274 773.275206
57.600000 767.429900 768.790596 770.584891 770.586957 772.361269 774.162833
57.700000 768.278249 769.667365 771.439735 771.512624 773.345307 775.264409
57.800000 769.124426 770.605727 772.382534 772.479529 774.287591 776.501487
57.900000 770.411713 771.745757 773.505516 773.667538 775.572961 777.908440
58.000000 771.493214 773.019498 774.842775 774.938757 776.846919 779.145677
58.100000 772.820373 774.334605 776.235773 776.289965 778.249753 780.347717
58.200000 773.866285 775.556876 777.558177 777.604658 779.737750 781.465363
58.300000 775.025655 776.800544 778.752044 778.827546 780.902704 782.694629
58.400000 776.319821 778.043681 779.989057 779.997032 781.970498 783.509895
58.500000 777.425646 779.291621 781.220367 781.144506 783.009335 784.387809
58.600000 778.441402 780.388331 782.327807 782.209345 783.997451 785.226778
58.700000 779.696123 781.567921 783.427359 783.264313 784.988995 786.109776
58.800000 780.850088 782.609652 784.483632 784.346992 786.012356 787.072509
58.900000 782.096800 783.904227 785.674497 785.476191 787.065653 788.136266
59.000000 783.266303 785.150072 786.831806 786.633624 788.084347 789.032494
59.100000 784.694668 786.478092 787.982927 787.852463 789.226666 790.262512
59.200000 786.287441 787.974657 789.219764 789.140013 790.333230 791.406603
59.300000 787.879144 789.451787 790.586051 790.534385 791.700562 792.689295
59.400000 789.701827 790.860072 791.910332 791.875065 792.907809 793.910688
59.500000 790.928157 791.922212 792.975503 792.947130 793.938316 795.021564
59.600000 792.058789 793.003691 793.903403 793.942501 794.920787 796.027522
59.700000 792.745459 793.911356 794.818116 794.826655 795.780753 796.946188
59.800000 793.869709 794.757490 795.598982 795.689964 796.621286 797.905566
59.900000 794.677516 795.570130 796.477634 796.549158 797.508314 798.727488
60.000000 795.547989 796.399136 797.374647 797.402303 798.385764 799.492335
60.100000 796.312199 797.259014 798.221915 798.288153 799.336056 800.472976
60.200000 797.154084 798.091057 799.098243 799.177898 800.267359 801.508782
60.300000 798.024136 798.948726 799.968692 800.054072 801.199086 802.544785
60.400000 798.851230 799.767700 800.844939 800.929521 802.134391 803.607375
60.500000 799.670452 800.590850 801.665146 801.790026 803.001655 804.456202
60.600000 800.439272 801.376995 802.499607 802.676856 803.983182 805.477157
60.700000 801.293397 802.216470 803.429679 803.577100 804.959129 806.680614
60.800000 802.017292 803.120120 804.333598 804.513804 805.955841 807.881424
60.900000 802.963522 804.036767 805.393921 805.548918 807.029372 809.097429
61.000000 803.818940 805.049717 806.510436 806.666884 808.336587 810.213563
61.100000 805.079577 806.310059 807.945200 808.061105 809.886829 811.781198
61.200000 806.424086 807.766390 809.374314 809.513766 811.279216 813.363603
61.300000 807.837467 809.354561 811.165379 811.215782 813.021720 815.079216
61.400000 809.388658 811.157564 812.907772 812.952432 814.751739 816.961979
61.500000 810.848014 812.889109 814.705154 814.749189 816.693227 818.560251
61.600000 812.893546 814.764086 816.520647 816.614360 818.612548 820.099456
61.700000 814.689088 816.390313 818.186603 818.225252 820.151495 821.652169
61.800000 816.183846 817.769106 819.715837 819.682223 821.482094 823.217248
61.900000 817.281438 819.211436 821.054101 821.020776 822.688247 825.052831
62.000000 818.422609 820.574063 822.421140 822.358938 823.957132 826.605760
62.100000 819.432952 821.842597 823.794083 823.809502 825.643832 828.498145
62.200000 820.338456 823.010159 825.140797 825.273657 827.394458 830.676821
62.300000 821.617253 824.399019 826.621226 826.724143 829.086491 832.310454
62.400000 822.940217 825.736785 828.207327 828.214440 830.549086 833.700043
62.500000 823.856102 827.210362 829.743884 829.630260 832.139107 834.844440
62.600000 825.170273 828.595441 831.175725 831.064431 833.675387 836.101660
62.700000 826.153734 829.911283 832.561745 832.433493 835.016143 837.204308
62.800000 827.762376 831.284857 833.831177 833.697516 836.160384 838.201238
62.900000 829.313364 832.672284 835.226937 834.965520 837.297639 839.196463
63.000000 830.785792 834.024383 836.477525 836.214437 838.539399 840.286568
63.100000 832.189333 835.302840 837.812545 837.488814 839.657511 841.312436
63.200000 833.764926 836.678425 839.068094 838.765480 840.727663 842.257492
63.300000 835.460676 838.189726 840.303694 840.038554 841.905864 843.381262
63.400000 836.957215 839.669988 841.515705 841.279340 842.909034 844.268374
63.500000 838.766062 841.026347 842.653465 842.477761 843.916192 845.222432
63.600000 840.618479 842.249710 843.756959 843.668265 844.984990 846.209197
63.700000 842.145943 843.600539 844.877088 844.852115 846.107680 847.442769
63.800000 843.594256 844.801963 846.019091 846.024847 847.206292 848.432984
63.900000 844.753214 845.887293 847.160943 847.126615 848.291711 849.678050
64.000000 845.854023 847.067721 848.229245 848.203004 849.262056 850.640136
64.100000 846.738363 848.081613 849.271621 849.290933 850.353659 852.035133
64.200000 847.776998 849.264413 850.443496 850.468038 851.712995 853.317546
64.300000 849.082272 850.443635 851.625234 851.725514 853.054035 854.572709
64.400000 850.224114 851.617820 852.972291 853.023657 854.485932 855.964719
64.500000 851.474582 852.884604 854.335652 854.312568 855.725451 857.010471
64.600000 852.991977 854.306049 855.659881 855.662938 857.038475 858.430078
64.700000 854.221324 855.649962 856.858696 856.841533 858.123429 859.479502
64.800000 855.500985 856.799294 857.996987 858.000420 859.224932 860.438093
64.900000 856.737289 857.888556 859.028883 859.067021 860.267338 861.526764
65.000000 857.866081 858.973270 860.062171 860.117063 861.287380 862.461036
65.100000 858.922630 860.004285 861.179436 861.206628 862.475709 863.546703
65.200000 859.902531 861.136098 862.441012 862.425032 863.657647 864.826990
65.300000 861.316949 862.548115 863.977183 863.876932 865.191919 866.209276
65.400000 863.046702 864.618640 866.042558 865.935935 867.209654 868.277540
65.500000 866.647083 867.518757 868.563273 868.519026 869.520549 870.443128
65.600000 868.084890 868.999852 869.946275 869.973880 870.917514 871.986602
65.700000 869.255272 870.248716 871.124109 871.179656 872.163072 873.291338
65.800000 870.257055 871.168592 872.113087 872.163860 873.139142 874.228483
65.900000 871.282331 872.107922 873.050045 873.112118 874.137677 875.256995
66.000000 872.125337 873.048740 873.965114 874.038957 875.082582 876.192314
66.100000 873.089975 873.964665 874.900921 874.956069 875.998579 877.265695
66.200000 874.037472 874.803407 875.814566 875.874661 876.895165 878.428885
66.300000 874.911875 875.697574 876.710688 876.802341 877.865260 879.396439
66.400000 875.718884 876.609278 877.572431 877.752629 878.874354 880.732781
66.500000 876.576312 877.513074 878.474024 878.660369 879.817865 882.104875
66.600000 877.489682 878.352017 879.409072 879.638035 880.846454 883.393369
66.700000 878.331675 879.231217 880.361930 880.665999 882.122241 884.768295
66.800000 879.235962 880.162855 881.473354 881.805168 883.524827 886.343479
66.900000 880.138008 881.205237 882.807142 883.090969 885.054816 887.636299
67.000000 881.016893 882.391571 884.227658 884.595018 886.975302 889.562674
67.100000 882.274086 883.656856 885.910727 886.257145 889.022551 891.608308
67.200000 883.187434 885.060300 887.776001 888.008753 891.038494 894.103264
67.300000 884.510068 886.713288 889.788490 890.010596 893.324165 896.932752
67.400000 885.804672 888.276616 891.768964 891.983029 895.522748 899.326935
67.500000 887.130494 890.022609 893.504648 893.780260 897.259969 902.509723
67.600000 888.637172 891.797785 895.210041 895.596066 899.198124 904.876417
67.700000 890.489760 893.764216 897.185287 897.792474 902.379250 907.582329
67.800000 892.117645 895.672407 899.288850 900.114857 905.245548 910.022526
67.900000 894.018895 897.846174 902.315947 902.737325 908.091277 911.880799
68.000000 895.797432 900.114113 905.426455 905.264878 910.659169 913.698681
68.100000 897.856161 902.919580 908.500315 907.917516 912.829015 915.197835
68.200000 899.812400 906.008184 911.424682 910.557508 914.801330 916.404587
68.300000 903.350902 909.446898 914.119423 913.089899 916.312884 917.505346
68.400000 906.439246 913.017539 916.190481 915.318139 917.642756 918.589174
68.500000 909.656628 915.283664 917.457612 916.889204 918.698498 919.622834
68.600000 913.773601 917.113115 918.582345 918.271276 919.685301 920.684722
68.700000 915.823600 918.202408 919.543276 919.313127 920.588159 921.595737
68.800000 917.289330 919.246174 920.470532 920.313564 921.452036 922.553644
68.900000 918.327858 920.104975 921.346130 921.252135 922.462024 923.575061
69.000000 919.174148 921.014291 922.279669 922.190604 923.468938 924.661450
69.100000 920.252875 921.956183 923.168125 923.121500 924.358504 925.693888
69.200000 921.187224 922.804957 924.129396 924.056263 925.314272 926.634807
69.300000 922.292506 923.711613 925.064240 925.040014 926.379055 927.618146
69.400000 923.322581 924.667422 925.984302 926.000919 927.369466 928.633376
69.500000 924.323286 925.696283 927.018942 927.037940 928.395059 929.876398
69.600000 925.243377 926.740699 928.046948 928.083730 929.471392 930.924175
69.700000 926.433431 927.782796 929.150189 929.188653 930.597124 932.141942
69.800000 927.548985 928.833920 930.292042 930.328096 931.770815 933.393046
69.900000 928.647707 929.874085 931.498691 931.455592 932.971442 934.629749
70.000000 929.679557 931.024818 932.634633 932.642135 934.198833 935.792822
70.100000 930.945016 932.237566 933.937046 933.970980 935.641479 937.379905
70.200000 932.108225 933.617359 935.221435 935.283133 937.007016 939.054059
70.300000 933.033293 934.773776 936.477487 936.580086 938.416642 940.420312
70.400000 934.253915 935.972811 937.774645 937.842391 939.711339 941.683222
70.500000 935.527201 937.215747 939.045251 939.083679 941.003135 942.808858
70.600000 936.736565 938.391898 940.253230 940.295948 942.202815 944.220526
70.700000 937.926683 939.495401 941.476012 941.484940 943.387222 945.376273
70.800000 939.259241 940.717833 942.696347 942.723374 944.709517 946.719698
70.900000 940.636906 942.207718 943.956712 944.063415 945.969155 947.943869
71.000000 942.189563 943.649871 945.405697 945.486233 947.267219 949.279960
71.100000 943.294772 945.016960 947.007852 946.976329 948.867545 950.811438
71.200000 944.821071 946.585185 948.549853 948.510031 950.372467 952.231730
71.300000 946.210249 947.976472 949.950122 949.910614 951.858520 953.497257
71.400000 947.722340 949.431726 951.258224 951.274688 953.186002 954.646775
71.500000 948.829192 950.755208 952.523693 952.534812 954.456627 955.859571
71.600000 950.056346 952.056115 953.744648 953.750023 955.525866 956.855007
71.700000 951.358446 953.412916 955.103530 955.008504 956.667099 957.863318
71.800000 952.779499 954.775409 956.398523 956.246958 957.748523 959.057673
71.900000 954.510465 956.283691 957.807627 957.783773 959.286415 960.700038
72.000000 956.563227 958.134183 959.401874 959.455881 960.796457 962.794329
72.100000 958.112284 959.785742 961.300186 961.391961 963.099726 965.060391
72.200000 960.198666 961.530285 963.280979 963.356207 965.260980 966.873986
72.300000 961.554670 962.953964 965.058790 964.992295 966.842370 968.385085
72.400000 962.861049 964.659005 966.663601 966.513985 968.250565 969.742968
72.500000 964.443601 966.404165 968.168680 968.038314 969.584961 971.138846
72.600000 966.139767 968.109410 969.650058 969.539275 970.940836 972.301724
72.700000 967.952958 969.549771 971.125810 971.111413 972.670256 973.989056
72.800000 969.450251 971.160429 972.617467 972.626087 974.204960 975.611742
72.900000 970.857379 972.417510 973.991935 974.011564 975.538756 977.373041
73.000000 971.953650 973.781825 975.361320 975.383668 976.970700 978.732668
73.100000 973.389061 975.076179 976.695800 976.734108 978.343395 980.340368
73.200000 974.882099 976.499419 978.081567 978.116870 979.661223 981.823770
73.300000 976.252582 977.860750 979.370099 979.511710 981.102189 983.451138
73.400000 977.516726 979.200350 980.760834 980.925494 982.683726 985.069095
73.500000 979.321312 980.836889 982.596750 982.773417 984.789216 987.018272
73.600000 981.378326 982.769373 984.780200 984.813127 986.706498 988.845404
73.700000 982.875761 984.404851 986.727134 986.578680 988.560431 990.476180
73.800000 984.192274 986.359230 988.497723 988.350307 990.265487 991.764807
73.900000 986.225898 988.315780 990.253203 990.079419 991.787434 993.227820
74.000000 988.655213 990.251704 991.884941 991.763304 993.178828 994.714070
74.100000 990.164859 991.573705 993.238249 993.133090 994.567969 995.923429
74.200000 991.626743 993.062768 994.511189 994.431269 995.768510 996.920705
74.300000 992.817009 994.306472 995.710388 995.641564 996.962547 998.048316
74.400000 994.152266 995.555747 996.852699 996.780223 998.006554 998.999731
74.500000 995.151408 996.598365 997.930056 997.826298 999.032855 999.943902
74.600000 996.324903 997.780115 998.999713 998.924124 1000.063936 1000.957843
74.700000 997.480105 998.994876 1000.184182 1000.116818 1001.125853 1002.405938
74.800000 999.089099 1000.350240 1001.463264 1001.426811 1002.289607 1003.810720
74.900000 1000.696783 1001.919864 1003.017809 1003.266200 1004.599008 1007.085174
75.000000 1002.711040 1003.456085 1004.888832 1005.195759 1007.032028 1009.361225
75.100000 1003.911760 1005.123050 1006.939270 1007.157439 1009.294942 1011.388941
75.200000 1005.244781 1007.055620 1009.017776 1009.134360 1011.273560 1013.512619
75.300000 1006.959228 1008.963860 1011.146482 1011.224252 1013.457816 1016.147860
75.400000 1008.777598 1011.276990 1013.182649 1013.359120 1015.590743 1018.683774
75.500000 1010.972809 1013.085450 1014.853639 1015.210948 1017.648735 1020.501732
75.600000 1013.257635 1014.911460 1016.591663 1017.032722 1019.688003 1022.105030
75.700000 1014.501680 1016.212047 1018.131210 1018.465384 1021.073821 1023.245829
75.800000 1015.759133 1017.686422 1019.625652 1019.853525 1022.322287 1024.339977
75.900000 1017.140528 1019.159563 1021.480450 1021.394373 1023.703035 1025.316034
76.000000 1018.798652 1020.611184 1023.117900 1022.922315 1025.072958 1026.486918
76.100000 1020.116323 1022.130970 1024.565530 1024.313101 1026.325273 1027.426468
76.200000 1021.677653 1023.671269 1025.902933 1025.671842 1027.545867 1028.392319
76.300000 1023.075379 1025.399340 1027.270583 1027.025969 1028.608952 1029.487008
76.400000 1024.991602 1027.074261 1028.650702 1028.389801 1029.694237 1030.460525
76.500000 1027.199402 1028.788851 1029.970041 1029.792540 1030.776342 1031.492748
76.600000 1029.704203 1030.596860 1031.388610 1031.340608 1032.037002 1032.808780
76.700000 1031.031722 1031.781393 1032.566507 1032.639894 1033.483455 1034.823355
76.800000 1032.080130 1032.836847 1033.701548 1033.911364 1034.978966 1036.847530
76.900000 1032.990126 1033.901779 1034.807789 1035.098815 1036.403357 1038.524187
77.000000 1033.933557 1034.824264 1035.869626 1036.243772 1037.815231 1039.964437
77.100000 1034.908197 1035.868801 1037.059825 1037.396961 1039.114262 1041.181642
77.200000 1035.708022 1036.847006 1038.300699 1038.569389 1040.390164 1042.426571
77.300000 1036.787307 1037.867073 1039.542070 1039.720017 1041.626002 1043.457929
77.400000 1037.706821 1038.859914 1040.727178 1040.855064 1042.808284 1044.428533
77.500000 1038.672946 1039.996310 1041.967307 1042.010438 1043.927603 1045.427069
77.600000 1039.635707 1041.120558 1043.267717 1043.164244 1045.081182 1046.633013
77.700000 1040.684396 1042.212920 1044.355101 1044.314897 1046.204856 1047.872302
77.800000 1041.796073 1043.465124 1045.581056 1045.479373 1047.339406 1048.963321
