depth(m) lower_95(kyr) lower_68(kyr) median(kyr) mean(kyr) upper_68(kyr) upper_95(kyr)
72.600000 700.913133 701.763348 702.672076 702.636282 703.474201 704.288751
72.725000 701.835752 702.787234 703.769321 703.849450 704.875536 706.280273
72.850000 702.680185 703.843595 704.921964 705.061554 706.385083 708.033391
72.975000 703.700356 704.860301 706.303644 706.330684 707.847451 709.369467
73.100000 704.706518 705.859450 707.543601 707.538750 709.180315 710.475063
73.225000 705.900690 707.103615 708.794977 708.762650 710.332650 711.505700
73.350000 707.021993 708.326736 710.008602 709.900813 711.367054 712.409335
73.475000 708.199369 709.613110 711.119754 711.007947 712.393311 713.369343
73.600000 709.477963 710.922260 712.243956 712.116360 713.367619 714.180524
73.725000 710.677325 712.074654 713.312112 713.218413 714.357446 715.172767
73.850000 711.959242 713.193538 714.296880 714.250607 715.228606 716.297270
73.975000 712.978762 714.154303 715.169810 715.119196 716.052405 717.077027
74.100000 713.892409 714.995684 715.969452 715.942357 716.860308 717.856836
74.225000 714.682038 715.734259 716.719847 716.706188 717.620520 718.610599
74.350000 715.571190 716.490574 717.512903 717.480701 718.384961 719.414649
74.475000 716.335015 717.303471 718.263166 718.252929 719.144600 720.233605
74.600000 717.222377 718.027398 719.022466 719.020266 719.941478 721.003322
74.725000 717.930509 718.815387 719.772837 719.797812 720.751344 721.925607
74.850000 718.659192 719.569314 720.523155 720.571864 721.548296 722.707912
74.970000 719.423512 720.350506 721.282835 721.344302 722.312282 723.760330
75.090000 720.112374 721.091257 722.075848 722.129693 723.124085 724.645904
75.210000 720.893610 721.871494 722.873187 722.934698 723.950093 725.479138
75.335000 721.745610 722.672785 723.786203 723.885010 724.977962 726.892386
75.460000 722.687295 723.548824 724.692640 724.878455 726.138420 728.120377
75.585000 723.550483 724.467398 725.757011 726.048025 727.601066 730.402889
75.710000 724.444297 725.588397 726.996217 727.325399 729.198552 732.258492
75.835000 725.336499 726.610507 728.354328 728.649204 730.763237 733.546064
75.960000 726.211403 727.710278 729.761761 729.986647 732.293384 734.948722
76.085000 727.212731 728.766472 731.244177 731.394717 734.126238 736.429387
76.210000 728.166634 730.047432 732.664120 732.763965 735.609039 737.996021
76.335000 729.070372 731.292649 734.182678 734.141318 736.976824 739.203418
76.460000 730.010616 732.398964 735.698215 735.482514 738.347627 740.353246
76.555000 730.812490 733.340601 736.951129 736.454221 739.293593 741.152755
76.650000 731.636236 734.185104 738.025571 737.428489 740.248650 741.971514
76.670000 731.778509 734.360066 738.206147 737.618678 740.412185 742.081553
76.795000 733.070152 735.701260 739.333846 738.735190 741.300348 742.840484
76.920000 734.467501 737.196142 740.380006 739.869364 742.093894 743.756637
77.045000 735.750357 738.696689 741.515418 741.064192 743.077750 744.658994
77.170000 737.374581 740.223300 742.575694 742.202222 744.027114 745.554471
77.295000 738.850377 741.637962 743.549428 743.307882 744.859734 746.349991
77.420000 740.826818 742.974372 744.513116 744.416659 745.860238 747.356151
77.545000 741.888794 744.073560 745.430095 745.399571 746.791225 748.217505
77.670000 743.492350 745.119854 746.321139 746.361617 747.752434 749.134120
77.795000 744.208017 745.998281 747.202059 747.255112 748.649851 750.272431
77.920000 745.156900 746.835498 748.046049 748.111115 749.447825 751.186650
78.045000 746.270493 747.668371 748.884484 748.963790 750.322487 752.144198
78.170000 747.062263 748.498495 749.687970 749.794627 751.260851 753.044193
78.295000 748.074462 749.345689 750.566418 750.696529 752.195068 754.073540
78.420000 748.977903 750.221943 751.429166 751.578893 753.051583 754.995989
78.545000 749.812688 751.025419 752.243580 752.428793 753.938720 755.901821
78.670000 750.604752 751.805827 753.124841 753.305994 754.785471 757.125048
78.795000 751.557286 752.650829 754.023631 754.225191 755.751512 758.171445
78.920000 752.341985 753.528573 754.963511 755.159198 756.920048 759.206330
79.045000 753.162695 754.422566 755.881345 756.115756 757.877702 760.381242
79.170000 754.215676 755.353259 756.860062 757.120218 758.892642 761.860842
79.295000 754.926384 756.262599 757.848526 758.118965 759.953887 762.974860
79.420000 755.802045 757.080240 758.858947 759.125174 761.157347 764.176312
79.545000 756.586171 758.037374 759.930703 760.143931 762.230467 765.310887
79.670000 757.470490 758.882100 760.949074 761.205486 763.415508 766.642890
79.795000 758.291526 759.846501 762.024298 762.277687 764.668120 767.793157
79.920000 759.054252 760.846506 763.159598 763.335987 765.759416 768.849117
80.045000 760.010743 761.835293 764.247778 764.470675 767.046927 770.334407
80.170000 760.922392 762.852455 765.450868 765.603195 768.273888 771.419602
80.295000 762.028352 763.975771 766.649982 766.845475 769.641644 773.095048
80.420000 763.004637 765.198372 767.887068 768.130639 770.997596 774.989155
80.545000 764.102788 766.500667 769.231467 769.420930 772.450620 776.340747
80.670000 765.365813 767.774851 770.416725 770.798428 773.902817 777.852685
80.795000 766.719908 769.187844 771.871160 772.244397 775.317342 779.685328
80.920000 768.692966 770.687564 773.319005 773.802361 777.101782 781.200198
81.045000 770.614229 772.884662 775.694758 775.932354 779.001578 782.686175
81.170000 773.356023 775.323041 777.889920 778.084791 781.054436 784.109223
81.295000 774.686168 777.039529 779.762880 779.883212 782.691377 785.366622
81.420000 776.518014 779.115155 781.846402 781.733486 784.376268 786.791072
81.545000 778.512090 781.077739 783.663386 783.535813 786.028837 788.119089
81.670000 780.656316 783.318545 785.619859 785.509038 787.585191 789.541123
81.795000 783.360999 786.032584 788.261733 788.055962 790.023880 791.552180
81.920000 787.202253 789.091415 790.579786 790.481831 791.909114 793.176099
82.045000 789.354560 790.856034 792.069605 792.046050 793.278518 794.624792
82.170000 791.041441 792.321130 793.433835 793.505789 794.768686 796.228347
82.295000 792.399520 793.569635 794.756352 794.898690 796.352889 797.845201
82.420000 793.649391 794.807017 796.103435 796.225196 797.729932 799.302263
82.545000 794.648067 795.936111 797.368580 797.463679 799.024572 800.678655
82.670000 795.677972 797.100876 798.602118 798.709195 800.289941 802.033102
82.795000 797.118138 798.407063 800.001448 800.025229 801.632809 803.181464
82.920000 798.283693 799.718441 801.380544 801.330486 802.916551 804.257355
83.045000 799.539186 801.046422 802.707475 802.636982 804.235080 805.577811
83.170000 800.852334 802.402843 803.957302 803.937491 805.535036 806.915540
83.295000 801.942574 803.739745 805.214037 805.190276 806.684476 808.029831
83.420000 803.643452 805.028627 806.402514 806.419686 807.827697 809.203095
83.545000 804.956492 806.212556 807.611282 807.614561 808.974701 810.408407
83.670000 806.242900 807.486367 808.724469 808.759188 810.113045 811.563354
83.720000 806.579490 807.990991 809.225999 809.262780 810.621370 811.999219
83.820000 807.642735 808.922047 810.144131 810.242538 811.669250 813.105554
83.920000 808.797361 809.848584 811.137460 811.201468 812.604186 813.956776
83.970000 809.251167 810.266020 811.591217 811.649414 813.012381 814.637336
84.095000 810.313188 811.297503 812.639720 812.738981 814.196134 815.836937
84.220000 811.106705 812.279769 813.684928 813.796802 815.277210 817.411559
84.345000 811.912694 813.235403 814.742981 814.905373 816.479217 818.863173
84.470000 812.835508 814.312923 815.796172 816.029484 817.637420 820.486824
84.595000 813.813523 815.225070 816.832374 817.084332 818.821617 821.747329
84.720000 814.770214 816.199092 817.940896 818.183749 820.030019 822.961453
84.815000 815.634131 817.103059 818.820457 819.093072 820.966309 824.026796
84.910000 816.530457 818.062100 819.756946 820.000612 821.984299 824.938480
85.000000 817.394253 818.900262 820.697508 820.934888 822.920556 825.875040
85.110000 818.488779 820.041886 821.967547 822.076766 823.924824 827.224458
85.220000 819.700379 821.227113 823.092096 823.254958 824.967109 828.543853
85.345000 821.014306 822.652226 824.659250 824.780548 826.585502 830.529445
85.470000 822.271100 824.338511 826.222944 826.376180 828.305053 832.227903
85.595000 823.426189 825.583712 827.736755 827.920431 830.131470 833.867311
85.720000 824.643624 826.845933 829.240811 829.378569 831.851705 835.269519
85.845000 825.823046 828.231263 830.610113 830.858951 833.751495 836.592111
85.970000 827.297398 829.542178 832.226290 832.461669 835.758456 837.900373
86.095000 828.844948 831.093450 834.029918 834.058294 837.180609 839.127633
86.220000 830.296048 832.777492 835.748723 835.649831 838.546452 840.229646
86.360000 831.883641 834.927415 837.633658 837.416462 840.107311 841.570410
86.410000 832.251051 835.625238 838.208801 837.998147 840.575384 842.090524
86.485000 833.200553 836.775507 839.184695 838.990598 841.420648 843.011862
86.560000 834.048863 837.801762 840.277070 839.959814 842.201859 843.979540
86.670000 835.670929 839.416125 841.717077 841.301934 843.180865 845.291909
86.765000 836.712911 840.545204 842.816751 842.447197 844.103285 846.306236
86.860000 838.073115 841.940519 843.773229 843.599448 844.952532 847.860796
86.870000 838.131108 842.056523 843.889730 843.707214 845.028809 848.063777
86.965000 839.577384 843.207194 844.766403 844.723717 846.085256 850.648165
87.060000 841.012277 844.228325 845.528520 845.711530 847.384886 852.097750
87.070000 841.107073 844.353370 845.616220 845.803117 847.517987 852.214824
87.165000 842.634874 845.274933 846.360348 846.791956 849.154048 852.900848
87.260000 843.553470 846.082662 847.127980 847.790289 850.751775 853.530835
87.270000 843.631353 846.213378 847.214740 847.887210 850.831172 853.605074
87.365000 844.341218 847.122873 848.094526 848.926103 852.018593 854.324505
87.460000 844.983997 847.900653 849.106954 849.980366 853.625036 855.079428
87.470000 845.039604 847.971210 849.234925 850.081548 853.721259 855.159124
87.565000 845.853830 848.647958 850.645890 851.158029 854.813142 855.873030
87.660000 846.742090 849.358141 852.207562 852.289585 855.829197 856.564564
87.670000 846.854015 849.443137 852.301877 852.393438 855.911672 856.653792
87.765000 847.586751 850.199967 853.766971 853.451956 856.613047 857.675998
87.860000 848.524329 850.996843 855.302857 854.538386 857.390835 858.743060
87.870000 848.672861 851.084044 855.407199 854.649526 857.487983 858.838153
87.965000 850.192873 852.714404 856.533994 855.827770 858.241390 859.736210
88.060000 851.783297 854.770174 857.552443 857.032380 859.077233 860.628212
88.130000 852.631794 855.929663 858.266506 857.853472 859.802818 861.383336
88.245000 854.908582 857.263330 859.295448 859.109152 860.881100 862.415563
88.360000 856.606170 858.822884 860.454711 860.348971 861.919542 863.349576
88.460000 857.984066 859.967767 861.435549 861.382455 862.872659 864.230026
88.560000 859.357940 861.127229 862.504738 862.492640 863.939656 865.228402
88.660000 860.971671 862.480189 863.876261 863.773182 865.079192 866.162956
88.760000 862.432148 863.913889 865.204871 865.126170 866.365503 867.464806
88.830000 863.680354 865.151687 866.463599 866.381150 867.547948 868.829111
88.960000 866.594832 867.964450 869.191429 869.234836 870.580913 872.029411
89.045000 868.023283 869.325035 870.697945 870.722230 872.140996 873.776111
89.130000 869.487735 870.712619 871.992231 872.089993 873.497265 875.165020
89.160000 869.900122 871.076695 872.374448 872.480819 873.866413 875.523014
89.245000 870.895737 872.066659 873.485112 873.521765 875.018608 876.372572
89.330000 871.773616 873.054782 874.493226 874.495212 875.914945 877.110571
89.360000 872.067961 873.328342 874.800432 874.811239 876.259433 877.401953
89.460000 872.996077 874.324648 875.810516 875.763727 877.140604 878.627772
89.560000 873.695804 875.175688 876.670171 876.665529 878.058537 879.584247
89.660000 874.562605 876.098290 877.593050 877.562633 879.005455 880.609069
89.760000 875.286698 876.903235 878.491573 878.429403 879.865605 881.591039
89.860000 875.978782 877.827862 879.267165 879.261006 880.707391 882.422504
89.960000 876.631308 878.650342 880.028798 880.062571 881.574256 883.406126
90.060000 877.351937 879.379931 880.801092 880.876400 882.376982 884.519960
90.160000 878.349282 880.138807 881.608620 881.707352 883.250694 885.402702
90.260000 878.842835 880.889109 882.451663 882.531537 884.204355 886.422598
90.360000 879.956378 881.703590 883.251670 883.370512 885.153922 887.267988
90.460000 880.795508 882.485632 884.038308 884.196589 886.055723 888.146577
90.560000 881.334604 883.278243 884.906548 885.053571 886.985784 889.116642
90.660000 882.115101 884.105580 885.842159 885.977213 888.017811 890.288817
90.760000 883.101671 884.962811 886.745845 886.913307 889.045328 891.168259
90.860000 884.224505 885.847250 887.745749 887.880911 890.056991 892.226436
90.960000 884.989137 886.753451 888.715149 888.858225 891.139110 893.152353
91.060000 885.942993 887.711735 889.683908 889.845213 892.115479 894.110452
91.160000 886.968775 888.722735 890.761836 890.914683 893.189242 895.443870
91.260000 888.067451 889.809082 891.949707 892.047696 894.184495 896.713222
91.360000 889.151731 890.938588 893.389063 893.288157 895.434162 897.984424
91.460000 890.513496 892.501762 894.782280 894.804710 896.989455 899.870433
91.560000 891.675707 893.966434 896.341067 896.421972 898.777163 901.983977
91.660000 892.928914 895.431291 897.867827 898.056632 900.752525 904.086357
91.760000 894.531245 896.973484 899.484365 899.762028 902.691165 905.864385
91.840000 895.718130 898.069887 900.795878 901.035419 904.261098 907.102399
91.960000 897.766533 899.773865 903.119148 903.240847 906.491789 909.445346
92.060000 899.078973 901.559262 905.073686 905.016127 908.280595 911.145253
92.160000 900.693115 903.533188 906.940560 906.822184 910.175889 912.521967
92.260000 902.182677 905.303216 908.792628 908.527280 911.663480 913.609783
92.360000 904.256855 907.290784 910.678211 910.353982 913.312051 914.820440
92.440000 905.598343 908.748588 912.218908 911.685762 914.429017 915.621323
92.540000 907.696215 911.018317 913.846265 913.344899 915.611350 916.539207
92.640000 909.933055 913.186878 915.492048 915.008018 916.712922 917.390861
92.740000 912.789764 915.203782 916.812744 916.460178 917.620818 918.280454
92.840000 915.965513 917.187634 917.896069 917.815178 918.470671 919.107754
92.860000 916.284093 917.393755 918.068259 918.014775 918.643700 919.307730
92.950000 917.282558 918.186929 918.789988 918.748075 919.323381 920.047951
93.040000 918.121588 918.904258 919.435425 919.423464 919.946210 920.684406
93.060000 918.297474 919.056962 919.599824 919.583010 920.089739 920.814585
93.150000 919.043719 919.680769 920.219202 920.195671 920.689268 921.427170
93.240000 919.730522 920.264068 920.782963 920.800097 921.314347 922.074088
93.260000 919.892013 920.413178 920.948410 920.953994 921.452468 922.231219
93.360000 920.481222 921.069454 921.628788 921.640089 922.190147 922.998623
93.460000 921.076413 921.733036 922.280248 922.314145 922.895096 923.741990
93.540000 921.688987 922.278056 922.843151 922.873410 923.468901 924.317238
93.660000 922.414918 923.027735 923.650014 923.689666 924.368219 925.260696
93.740000 922.977542 923.558654 924.202329 924.259637 924.966170 925.844477
93.860000 923.759953 924.460953 925.078949 925.133941 925.821617 926.674028
93.940000 924.335645 925.035021 925.714411 925.744236 926.507110 927.311981
94.060000 925.250210 925.885440 926.614648 926.658023 927.386061 928.450694
94.190000 926.084557 926.832021 927.541532 927.604018 928.303490 929.656664
94.320000 927.051996 927.811986 928.491009 928.559562 929.216719 930.722490
94.360000 927.371196 928.143435 928.793971 928.872408 929.529878 931.050314
94.450000 928.069086 928.842475 929.434289 929.527435 930.156105 931.859971
94.540000 928.861647 929.491191 930.089495 930.182763 930.803077 932.548302
94.560000 928.995379 929.656355 930.238684 930.345248 930.958829 932.734110
94.650000 929.644189 930.238003 930.866247 930.985978 931.627473 933.344063
94.740000 930.221155 930.862967 931.504633 931.627980 932.357254 934.044249
94.850000 930.864490 931.583965 932.259737 932.410365 933.209243 934.998463
94.960000 931.640744 932.286158 933.015443 933.180416 934.024288 935.688312
95.040000 932.168106 932.837429 933.587527 933.753886 934.684800 936.387910
95.160000 932.830741 933.641907 934.421256 934.586266 935.553609 937.236992
95.280000 933.687814 934.419722 935.249884 935.409290 936.422033 938.017950
95.400000 934.489729 935.232656 936.124272 936.253545 937.319903 938.825197
95.520000 935.293009 936.013987 936.952285 937.098719 938.176871 939.612563
95.640000 936.052381 936.903535 937.836851 937.969998 939.054677 940.498427
95.760000 936.829082 937.740359 938.754711 938.840498 939.968132 941.204710
95.880000 937.718961 938.599076 939.643636 939.720491 940.825308 942.149487
95.960000 938.280793 939.202841 940.358660 940.376163 941.469920 942.837604
96.040000 938.944249 939.821017 941.054056 941.061290 942.219641 943.568992
96.140000 939.812842 940.701916 941.953088 941.979004 943.180234 944.462663
96.240000 940.568577 941.607042 942.840370 942.887956 944.148148 945.504889
96.375000 941.465314 942.654032 944.019694 944.003468 945.271554 946.741446
96.510000 942.537289 943.738268 945.129072 945.105883 946.442024 947.821272
96.645000 943.576802 944.879588 946.191414 946.195960 947.549936 948.902397
96.780000 944.733694 946.062055 947.275446 947.331553 948.739601 949.869381
96.860000 945.457810 946.732462 947.988421 948.022759 949.420307 950.486853
96.940000 946.275969 947.438736 948.680234 948.737190 950.113819 951.165578
97.030000 947.243874 948.292741 949.493540 949.564726 950.961825 951.960207
97.120000 948.041231 949.126398 950.325210 950.403132 951.738604 952.895008
97.140000 948.192856 949.338533 950.519187 950.600774 951.947777 953.033773
97.230000 948.984148 950.171455 951.458848 951.452070 952.760673 953.939592
97.320000 949.861634 950.946587 952.279122 952.281791 953.547908 954.817001
97.380000 950.433697 951.464102 952.808490 952.806534 954.077092 955.284160
97.520000 951.428300 952.518148 953.930189 953.894100 955.190670 956.289662
97.630000 952.343817 953.504016 954.846133 954.782803 956.021113 957.116865
97.740000 953.187199 954.496787 955.761705 955.706890 956.959304 957.909799
97.820000 954.216212 955.293158 956.491586 956.468291 957.634871 958.515355
97.920000 955.098625 956.343148 957.486980 957.511388 958.639259 959.930131
98.020000 956.293962 957.600197 958.658031 958.708280 959.849705 961.427291
98.120000 957.608155 958.906935 960.018805 960.183515 961.546017 963.436338
98.220000 959.129536 960.195730 961.533125 961.734706 963.405058 965.108749
98.320000 960.177526 961.371752 962.946250 963.036210 964.741724 966.437547
98.420000 960.904695 962.492594 964.386315 964.371490 966.242584 968.014731
98.520000 961.880767 963.624384 965.659632 965.620487 967.504766 969.185980
98.620000 962.784188 964.769303 966.960492 966.823218 968.739185 970.232062
98.720000 963.788958 966.223728 968.156704 968.019333 969.895291 971.425309
98.820000 964.782654 967.427506 969.260211 969.173807 971.022559 972.456465
98.945000 966.257436 968.756488 970.744498 970.599077 972.506243 974.106837
99.070000 967.679177 970.200054 972.101495 972.064619 973.965291 975.734957
99.195000 969.498963 971.632022 973.480641 973.438001 975.343660 976.876838
99.320000 971.380044 973.133734 974.948365 974.848182 976.576799 977.921781
99.420000 972.667067 974.324213 976.064901 975.986577 977.558309 978.805018
99.520000 973.761233 975.491035 977.206663 977.063650 978.469412 979.656797
99.620000 974.878037 976.593758 978.211664 978.073167 979.397673 980.620977
99.720000 976.192034 977.797254 979.165683 979.075041 980.347902 981.493462
99.820000 977.098263 978.873818 980.118397 980.105338 981.392565 982.806049
99.920000 978.201766 979.903063 981.135056 981.172499 982.525800 984.081854
