depth(m) lower_95(kyr) lower_68(kyr) median(kyr) mean(kyr) upper_68(kyr) upper_95(kyr)
38.740000 700.001280 700.826258 701.845967 701.831939 702.768957 703.610292
38.840000 701.417972 702.490179 703.600673 703.692255 704.850688 706.401539
38.940000 702.892094 704.124968 705.503206 705.578483 707.045484 708.739554
39.040000 704.585293 705.965838 707.568211 707.584506 709.272370 710.771842
39.140000 706.401631 707.872816 709.671395 709.597826 711.237940 712.691039
39.240000 708.042963 709.770058 711.586699 711.447139 713.036561 714.353667
39.340000 709.775990 711.504597 713.257465 713.187356 714.744002 716.387774
39.440000 711.330476 713.207616 714.874614 714.837336 716.427127 718.072140
39.540000 712.847391 714.575817 716.310326 716.308941 717.980478 719.792455
39.640000 714.260788 715.979740 717.773404 717.777727 719.593931 721.295124
39.740000 715.489175 717.363163 719.136841 719.203511 721.032546 723.044956
39.840000 716.996771 718.831510 720.636488 720.684035 722.489115 724.730137
39.940000 718.554700 720.283784 722.095727 722.153582 723.878440 726.438533
40.040000 720.253718 721.847856 723.532233 723.889259 725.522746 730.470133
40.140000 722.006380 723.603035 725.343997 726.013305 727.899527 735.787900
40.240000 724.143574 725.832183 727.945324 728.845211 731.733149 738.710244
40.340000 726.204320 728.614170 731.628553 732.220303 735.855199 741.352825
40.440000 728.021484 731.599703 735.648985 735.982269 740.859552 744.666808
40.540000 730.156478 734.773808 738.881590 739.296876 744.536837 747.834719
40.640000 732.210039 736.976135 741.213942 741.719942 747.361762 750.207123
40.740000 734.358061 739.073939 743.607362 743.978809 749.691645 752.002147
40.840000 736.507656 741.113831 745.764090 746.038230 751.615337 753.656749
40.940000 737.974081 743.396308 748.927199 748.301508 753.183363 755.184510
41.040000 739.585964 745.582459 751.307647 750.368027 754.739024 756.792653
41.140000 741.078068 747.907224 753.609817 752.371163 756.466872 758.415443
41.240000 742.736190 750.135613 755.344575 754.137263 758.009285 759.921550
41.340000 744.757286 752.089550 756.761376 755.851580 759.504972 761.395863
41.473333 748.376967 754.231692 758.948325 758.022473 761.444819 763.090654
41.606667 752.199909 756.739791 761.027897 760.282577 763.485672 765.237506
41.740000 755.347745 759.139896 763.112069 762.528899 765.573662 767.127766
41.840000 758.021893 761.432829 764.930144 764.402922 767.089742 768.635463
41.940000 760.066520 763.497448 766.688739 766.254472 768.747552 770.228286
42.040000 762.823960 765.861723 768.698630 768.304954 770.445233 772.044175
42.140000 765.788294 768.832881 770.810279 770.675772 772.508876 774.514763
42.240000 769.482259 771.611478 773.393101 773.425398 775.330521 777.492624
42.340000 772.344291 773.749663 775.685357 775.825102 777.980984 780.314171
42.440000 774.304987 775.727676 777.957094 778.038931 780.345069 782.203471
42.540000 775.824190 777.486329 779.970795 779.936456 782.363073 783.951048
42.640000 777.505475 779.306926 781.805450 781.731313 784.007694 785.511661
42.740000 779.495981 781.385048 783.738237 783.606951 785.697951 787.188279
42.840000 781.642284 783.846763 785.901883 785.751980 787.563793 788.931199
42.940000 784.734333 787.242490 788.864414 788.729484 790.243304 791.491059
43.040000 789.925643 791.340084 792.765255 792.888453 794.366281 797.013667
43.140000 793.102375 794.530312 796.267328 796.353677 798.117269 800.168852
43.240000 794.999232 796.976546 799.199649 799.121931 801.196222 802.870476
43.340000 796.950324 799.210794 801.444344 801.274794 803.329645 804.898560
43.440000 798.823067 801.303125 803.295101 803.198399 805.143244 806.660802
43.540000 801.388623 803.523694 805.351804 805.228164 806.904147 808.514825
43.640000 803.844851 805.821904 807.568665 807.505787 809.154625 811.003096
43.740000 805.979493 807.738690 809.303445 809.395739 811.148445 812.990207
43.840000 808.025089 809.623413 811.430861 811.580899 813.375118 815.847173
43.940000 810.058873 811.698876 813.832443 814.239252 816.729297 821.297471
44.040000 812.229082 814.642412 818.710830 818.853421 823.114253 825.769176
44.140000 813.734157 817.083645 824.861381 823.198700 827.424745 829.510839
44.240000 815.489923 819.638229 827.966202 826.285455 830.378770 832.892689
44.340000 818.009310 822.395703 831.021024 829.195215 833.107771 835.637930
44.440000 821.102663 826.277910 833.262604 831.877025 835.664347 838.087925
44.540000 824.571126 830.228492 835.449675 834.388019 837.838653 840.203625
44.640000 827.979233 833.554215 837.614641 837.022286 840.087498 842.692878
44.740000 831.555140 837.234732 840.041208 839.850644 842.351434 846.395538
44.840000 837.192688 840.737734 843.183095 843.428325 845.725228 852.925433
44.940000 841.752727 844.377081 846.400295 847.034985 849.533855 855.679530
45.040000 844.360085 847.268391 849.250274 850.212356 854.961672 857.896186
45.140000 846.555196 849.710987 852.483000 853.076716 857.377076 859.878098
45.240000 848.515332 852.278355 856.102592 855.850537 859.558159 861.470823
45.340000 849.926356 855.196808 859.072553 858.406256 861.583832 863.103285
45.440000 852.270449 857.903529 861.436351 860.715005 863.529114 864.813098
45.540000 855.559047 860.607961 863.533745 862.849781 865.117640 866.330769
45.640000 858.711736 863.381230 865.491031 865.029280 866.966636 868.217954
45.773333 862.147501 865.625575 867.515379 867.294414 869.107098 870.567183
45.906667 865.638326 867.831268 869.525012 869.450709 871.143512 872.539489
46.040000 868.485926 869.983774 871.547966 871.601767 873.148891 874.884277
46.140000 870.004286 871.534838 873.078828 873.116486 874.677791 876.397180
46.240000 871.718835 873.238477 874.682799 874.686001 876.164040 877.817663
46.340000 873.306408 874.787609 876.332074 876.354315 877.914581 879.728001
46.440000 874.940960 876.442194 877.910575 877.990988 879.515781 881.576492
46.540000 876.641565 878.065678 879.608863 879.672978 881.296276 883.249977
46.640000 878.297241 879.674194 881.284484 881.357374 883.064425 884.840365
46.740000 879.800286 881.297119 882.993527 883.094177 884.850404 886.781471
46.860000 881.675021 883.213472 884.978774 885.063779 886.877231 889.021766
46.960000 883.125882 884.843269 886.639045 886.715790 888.577243 890.807716
47.060000 884.491189 886.492322 888.275380 888.354367 890.293884 892.292285
47.160000 886.090226 888.153699 889.911140 890.027845 891.983633 894.250692
47.260000 887.847513 889.988196 891.749606 891.891775 894.009071 896.408815
47.360000 889.842651 891.765126 893.662834 893.794702 895.847642 898.924819
47.460000 892.343477 893.710246 895.499782 895.767958 897.842217 901.465894
47.560000 894.364230 895.939345 897.804270 898.239141 900.564603 904.955272
47.660000 896.281178 898.146254 900.298847 900.801693 903.767669 907.886555
47.760000 898.425608 900.315411 902.992871 903.364131 906.921911 909.996597
47.860000 899.999484 902.525693 905.661796 905.891582 909.630734 911.915481
47.960000 901.997107 905.248943 908.749518 908.559456 911.996835 914.074320
48.060000 904.739340 907.849908 911.678870 911.281893 914.235428 916.037346
48.160000 908.216145 911.616186 914.552601 914.224657 916.546725 919.146450
48.260000 911.781522 915.327258 917.303551 917.456383 919.621409 923.771215
48.360000 914.879740 917.827147 920.066668 920.332077 923.046077 926.993590
48.460000 918.280595 920.667393 923.232431 923.391223 926.365281 929.606952
48.560000 920.964690 924.138878 927.234070 927.259548 930.498554 933.184427
48.660000 925.246215 928.147247 930.943207 930.905616 933.648303 936.249720
48.760000 928.362926 930.976827 933.648076 933.520588 936.046966 938.222168
48.860000 931.024171 933.690459 936.205940 936.043770 938.388285 940.291207
48.960000 933.613321 936.245370 938.540774 938.372664 940.602706 942.143359
49.060000 935.961339 938.661823 940.735884 940.617084 942.688081 944.458911
49.160000 938.720792 940.913518 942.870129 942.764304 944.670726 946.669624
49.260000 940.833008 943.109240 944.842378 944.854979 946.688249 948.620865
49.360000 943.183892 945.061132 946.790518 946.839880 948.691222 950.532893
49.460000 945.735527 947.124333 948.821408 948.926018 950.806481 952.531995
49.560000 947.788564 949.101046 950.913448 950.943143 952.904489 954.393948
49.660000 949.710955 951.212532 952.985335 952.936416 954.640601 956.079325
49.760000 951.613352 953.370151 955.119285 954.992283 956.557995 957.791345
49.860000 953.892708 955.853360 957.509439 957.394713 958.865827 960.257582
49.960000 958.035130 959.565371 961.146483 961.623223 963.899449 967.897632
50.060000 960.406479 962.604236 964.990680 965.185213 967.889102 970.259929
50.160000 963.662635 966.409398 968.991944 968.746676 970.972597 972.821691
50.260000 967.815905 970.461833 972.268054 972.188122 974.085379 975.476083
50.360000 971.370627 973.031873 974.719604 974.718555 976.442740 978.221312
50.460000 973.447936 975.066959 976.689927 976.747958 978.413914 980.160311
50.560000 975.369673 976.862851 978.476730 978.634512 980.443269 982.629808
50.660000 977.346418 978.711988 980.254628 980.545427 982.384675 985.201164
50.760000 979.168946 980.807768 982.683687 982.981464 985.288504 988.325958
50.860000 980.904509 982.614624 984.993547 985.266985 988.147151 990.827387
50.960000 982.772835 984.610023 987.464071 987.531747 990.423832 992.709883
51.060000 984.653287 987.028752 989.674581 989.694041 992.360153 994.644413
51.160000 987.041380 989.752626 992.086899 992.103814 994.622788 996.862803
51.260000 989.406596 991.884916 994.161190 994.319331 996.980206 999.249774
51.360000 991.541676 993.934016 996.316770 996.417092 999.050671 1001.249096
51.460000 994.431548 996.736908 998.881400 998.884231 1000.990954 1002.940169
51.560000 997.489334 999.674704 1001.890653 1001.831412 1003.802867 1006.529078
51.660000 1001.539317 1003.119405 1004.585121 1004.857797 1006.796507 1008.946255
51.760000 1003.941304 1005.475183 1007.337036 1007.559261 1009.824950 1012.040190
51.860000 1006.078404 1008.039352 1010.337740 1010.523306 1012.968885 1015.875153
51.960000 1008.463834 1010.771865 1013.467709 1013.540601 1016.393442 1019.000427
52.060000 1011.020915 1013.279127 1016.451108 1016.306469 1019.291655 1021.705317
52.160000 1013.335927 1015.926769 1019.316346 1019.050479 1021.725087 1023.996706
52.260000 1015.894663 1019.286101 1022.366783 1021.971136 1024.518773 1026.173190
52.360000 1018.363708 1022.122407 1024.919292 1024.567936 1027.026401 1028.474749
52.460000 1021.482390 1024.949175 1027.398845 1027.000406 1029.059394 1030.345053
52.560000 1024.995891 1028.109960 1029.815950 1029.563229 1031.179456 1032.709751
52.660000 1030.246437 1031.612899 1033.086669 1033.261899 1034.975895 1037.680457
52.760000 1032.393982 1033.693387 1035.689195 1035.798712 1037.809084 1040.131443
52.860000 1034.177504 1035.600078 1038.058563 1038.033156 1040.438478 1042.682921
52.960000 1035.788006 1037.412379 1040.112800 1040.081691 1042.490441 1044.702251
53.060000 1037.446552 1039.508043 1042.165664 1042.026244 1044.374553 1046.511360
53.160000 1039.319156 1041.499030 1043.890168 1043.829017 1046.177958 1048.102214
53.260000 1041.253580 1043.292336 1045.674571 1045.584618 1047.842837 1049.483469
53.360000 1043.049617 1045.138413 1047.286312 1047.263244 1049.520138 1051.077312
53.460000 1045.033650 1046.896434 1048.963203 1048.994637 1051.195694 1052.964653
53.560000 1046.599928 1048.618214 1050.632130 1050.694291 1052.930344 1054.956099
53.660000 1048.286506 1050.198136 1052.276572 1052.375009 1054.508932 1056.687270
53.760000 1050.242851 1052.022723 1054.132605 1054.224428 1056.438741 1058.940290
53.860000 1052.191497 1054.106217 1056.457913 1056.515844 1058.887750 1061.693890
53.960000 1054.368549 1056.715029 1059.055823 1059.348400 1062.089569 1065.035238
54.060000 1057.177093 1059.921117 1062.878740 1062.869382 1065.781046 1068.476965
54.160000 1060.514228 1063.035516 1066.143845 1066.000824 1068.871259 1071.111893
54.260000 1063.485755 1066.220531 1068.986554 1068.989525 1071.663907 1074.523249
54.360000 1066.828477 1069.389567 1072.164209 1072.234286 1075.117070 1078.074437
54.460000 1070.250834 1073.288361 1076.821124 1077.082813 1081.024258 1085.298562
54.560000 1074.236089 1078.184891 1081.935073 1081.835887 1085.751761 1089.021183
54.660000 1077.874764 1081.958767 1085.743343 1085.531060 1089.136354 1091.769150
54.760000 1081.993385 1085.778700 1089.044252 1088.870430 1091.967052 1094.611943
54.860000 1085.197305 1088.925203 1091.640593 1091.475396 1094.180737 1096.592950
54.960000 1087.556061 1091.166303 1093.889675 1093.755165 1096.365850 1098.533911
55.060000 1089.898399 1093.202036 1095.866070 1095.724286 1098.272476 1100.414983
55.160000 1092.060807 1095.173585 1097.674296 1097.603473 1100.113372 1102.304978
55.260000 1094.926007 1097.367622 1099.802289 1099.677477 1101.868986 1104.345700
55.360000 1097.569421 1099.884497 1101.911596 1101.883084 1103.811658 1106.264794
55.460000 1099.811082 1102.149078 1103.986164 1104.068739 1106.058957 1108.934399
55.560000 1102.245671 1104.320195 1106.233262 1106.525790 1108.891182 1111.962994
55.660000 1104.899503 1106.679695 1108.771427 1109.083526 1111.716138 1114.672631
55.760000 1107.211870 1109.209525 1111.844461 1111.943945 1114.730129 1117.154625
55.860000 1109.383938 1111.612313 1114.774395 1114.660408 1117.528203 1119.489043
55.960000 1111.809263 1114.825361 1117.549433 1117.279402 1119.771955 1121.409768
56.060000 1115.264140 1118.099395 1120.458438 1120.179280 1122.219879 1123.858541
56.160000 1117.957922 1120.594703 1122.623754 1122.454305 1124.288020 1125.969053
56.260000 1120.424058 1122.756435 1124.612519 1124.512578 1126.333122 1127.854283
56.360000 1122.807682 1124.771465 1126.577030 1126.493612 1128.170656 1129.726150
56.460000 1124.550001 1126.516227 1128.376313 1128.258726 1129.996962 1131.577737
56.560000 1126.309841 1128.212644 1130.149331 1130.038291 1131.831897 1133.509748
56.660000 1128.169799 1130.035519 1131.897330 1131.851319 1133.606200 1135.285189
56.760000 1130.061691 1132.075513 1133.781372 1133.797151 1135.508819 1137.610209
56.860000 1132.096068 1134.051305 1135.944452 1135.952800 1137.715553 1139.939753
56.960000 1133.897803 1135.700349 1137.689743 1137.805098 1139.771608 1142.632337
57.060000 1135.321479 1137.305030 1139.506226 1139.574477 1141.821897 1144.414839
57.160000 1137.121709 1138.978726 1141.205206 1141.316478 1143.759878 1146.362712
57.260000 1138.612875 1140.733924 1143.060264 1143.213263 1145.745926 1148.921422
57.360000 1140.407435 1142.493594 1144.889967 1145.037088 1147.494513 1151.003042
57.460000 1142.221300 1144.201678 1146.892456 1146.954747 1149.489128 1152.841372
57.560000 1143.935837 1146.207241 1148.891224 1149.053346 1151.640665 1155.114595
57.660000 1145.909638 1148.494319 1151.321248 1151.590409 1154.703687 1158.475748
57.760000 1148.380113 1150.767014 1153.928729 1154.225943 1157.574598 1162.155335
57.860000 1150.978585 1153.510373 1156.925866 1157.068933 1160.485242 1164.662453
57.960000 1153.309678 1156.067729 1159.774275 1159.918831 1163.532893 1168.171542
58.060000 1155.895314 1158.693835 1162.682010 1162.716200 1166.342194 1171.331093
58.160000 1158.709484 1161.711921 1165.284408 1165.516645 1169.279229 1174.145020
58.260000 1160.975457 1164.610542 1168.077744 1168.302322 1172.521743 1176.686682
58.360000 1163.543445 1167.622819 1171.230139 1171.353956 1175.585620 1178.878320
58.460000 1166.064747 1170.111288 1173.837051 1173.904549 1178.003110 1180.763118
58.560000 1168.136859 1172.596626 1176.133957 1176.090180 1180.086272 1182.475466
58.685000 1170.800161 1174.967834 1178.830540 1178.555109 1182.138242 1184.325021
58.810000 1173.296139 1177.399877 1181.581413 1180.988280 1184.349824 1186.118192
58.935000 1176.187382 1180.365472 1183.943876 1183.431996 1186.310839 1187.905100
59.060000 1179.693123 1183.532640 1186.526803 1186.025356 1188.379956 1189.773530
59.160000 1182.377876 1186.236687 1188.715602 1188.374066 1190.395062 1192.295198
59.260000 1186.193810 1189.095645 1190.838438 1190.787546 1192.546383 1194.587337
59.360000 1190.456664 1191.693112 1192.989467 1193.206022 1194.781713 1196.884559
59.460000 1192.706884 1193.623420 1195.195184 1195.423439 1197.220030 1200.042560
59.560000 1194.258211 1195.287755 1197.051787 1197.379719 1199.527986 1202.368041
59.660000 1195.862937 1197.043834 1199.058348 1199.421788 1201.884431 1204.698940
59.760000 1197.504527 1198.943024 1201.330103 1201.490698 1204.003613 1207.095169
59.860000 1199.222178 1201.116400 1203.639158 1203.712460 1206.251201 1209.027682
59.960000 1201.286146 1203.511272 1206.116285 1206.210428 1208.687339 1211.885148
60.060000 1203.755921 1206.583518 1209.056358 1209.419331 1212.494550 1216.254412
60.160000 1207.079606 1209.729366 1212.683132 1213.101839 1216.870736 1220.024982
60.260000 1210.709170 1213.441512 1217.307057 1217.164952 1220.810965 1223.162234
60.360000 1213.693999 1217.042221 1221.141287 1220.664491 1223.895416 1225.723442
60.460000 1217.696333 1221.006543 1224.140069 1223.776404 1226.308665 1228.492415
60.560000 1222.410664 1224.790698 1226.893186 1226.820907 1228.774311 1230.886331
60.660000 1225.249753 1227.145548 1229.071666 1229.048058 1230.936428 1232.685937
60.760000 1226.802258 1228.985209 1230.874718 1230.874243 1232.880173 1234.614335
60.860000 1228.469538 1230.618224 1232.606427 1232.584757 1234.598811 1236.348834
60.960000 1230.397273 1232.292886 1234.332174 1234.284367 1236.276130 1237.958100
61.060000 1232.234153 1234.066326 1236.079677 1236.001237 1238.004180 1239.457487
61.160000 1233.859905 1235.954465 1237.852192 1237.785234 1239.650110 1241.117217
61.260000 1235.742133 1237.923442 1239.786244 1239.651305 1241.323276 1242.776624
61.360000 1237.928137 1240.145001 1241.917274 1241.816365 1243.522049 1245.518821
61.460000 1240.585849 1242.415384 1243.980353 1244.072860 1245.766597 1248.364675
61.560000 1243.596374 1244.847624 1246.059808 1246.315687 1247.924399 1250.330428
61.660000 1245.465121 1246.601358 1248.109738 1248.324019 1250.106141 1252.507372
61.760000 1246.743300 1248.020657 1249.799494 1250.029502 1252.070343 1254.382128
61.860000 1248.159130 1249.485532 1251.414721 1251.697906 1254.026934 1256.291702
61.960000 1249.375512 1250.947408 1252.999211 1253.215977 1255.730135 1258.012440
62.060000 1250.841516 1252.451483 1254.496469 1254.711846 1257.157871 1259.373499
62.160000 1252.559784 1254.052050 1256.144888 1256.313306 1258.733941 1260.992656
62.260000 1254.447838 1255.753723 1257.935634 1258.057646 1260.412659 1262.510915
62.360000 1256.134584 1257.474969 1259.894580 1259.895471 1262.094785 1264.119641
62.460000 1257.809053 1259.717423 1262.030986 1261.945479 1264.054453 1265.945213
62.560000 1260.168203 1262.559262 1264.653710 1264.580772 1266.501164 1268.684435
62.660000 1263.080377 1265.321818 1267.449297 1267.426717 1269.527729 1272.043497
62.760000 1265.968521 1268.112750 1270.339943 1270.340049 1272.551922 1274.878593
62.860000 1268.407132 1270.521990 1272.762735 1272.672396 1274.936681 1276.864400
62.960000 1270.896962 1272.710203 1274.839376 1274.811556 1276.819331 1278.612259
63.060000 1273.224936 1274.845455 1276.881516 1276.818429 1278.722706 1280.373305
63.160000 1275.154118 1276.869541 1278.927423 1278.794508 1280.580896 1282.187163
63.260000 1277.245872 1279.275254 1281.037360 1280.971190 1282.711814 1284.380411
63.360000 1279.999262 1282.081445 1283.589673 1283.690304 1285.353397 1287.224510
63.460000 1283.045020 1284.707720 1286.631531 1286.875460 1288.922033 1291.918383
63.560000 1284.894159 1286.736322 1289.258433 1289.454576 1292.201532 1295.617430
63.660000 1286.326676 1288.503955 1291.802936 1291.842570 1294.957632 1298.632337
63.760000 1287.981086 1290.646371 1293.840432 1293.927951 1297.309313 1300.485662
63.860000 1290.006385 1292.838183 1296.111191 1296.141907 1299.535696 1302.941669
63.960000 1292.004124 1294.928228 1298.267660 1298.401151 1301.810342 1305.480878
64.060000 1293.844549 1296.997689 1300.410983 1300.608161 1304.270965 1307.663993
64.160000 1296.759255 1299.670315 1303.278257 1303.472555 1307.597918 1311.707891
