depth(m) lower_95(kyr) lower_68(kyr) median(kyr) mean(kyr) upper_68(kyr) upper_95(kyr)
13.060000 698.893320 699.884028 700.934487 700.921713 701.972142 702.802339
13.130000 700.779762 702.053346 703.410825 703.509461 704.812089 706.989248
13.260000 703.938487 705.980290 708.194338 708.449811 710.773843 713.605253
13.350000 707.081330 709.604723 714.057481 714.701897 721.036254 725.005866
13.460000 710.144529 712.935795 723.103438 721.187513 726.699061 729.719641
13.560000 713.533004 722.386808 727.034711 726.012106 730.060392 732.777354
13.660000 722.272663 726.945941 730.366422 730.045926 733.229150 735.646505
13.750000 727.105675 729.843082 733.110127 732.877014 735.740355 738.272210
13.860000 730.332579 732.960768 736.352318 736.092055 739.061020 741.099224
13.950000 732.834299 735.889947 739.347296 738.920928 741.768204 743.398283
14.050000 736.278765 739.740571 742.584241 742.292689 744.660243 746.836907
14.150000 740.642302 743.761239 745.903773 745.792560 747.910770 749.996192
14.260000 744.732308 747.326118 749.435743 749.352935 751.462299 753.324682
14.330000 747.608094 750.056978 752.133466 752.068681 754.085113 756.333196
14.460000 754.279276 756.798021 759.875751 760.258387 764.057053 767.077058
14.550000 760.524549 763.205259 766.948798 766.490161 769.567139 771.144093
14.660000 767.395554 770.658144 772.452842 772.240298 773.953801 775.758090
14.750000 771.410236 773.534099 775.196443 775.183996 776.911414 779.084510
14.820000 773.478471 775.553910 777.209448 777.246498 778.946460 781.543387
14.920000 775.891085 777.957111 779.709667 779.925936 781.635009 784.643624
15.020000 778.621383 780.474892 782.202019 782.568188 784.251556 787.216482
15.120000 781.347808 783.114419 784.860065 785.243028 786.685628 789.252456
15.220000 784.295589 785.928704 787.462937 787.885962 789.183442 791.696520
15.320000 788.375082 789.919711 791.284353 791.656241 792.660644 795.104080
15.390000 793.348141 794.701845 796.318511 796.864120 798.348529 802.203783
15.520000 804.608571 808.854249 812.626370 813.847389 818.324721 829.655454
15.630000 812.613419 816.689183 822.400063 822.786443 829.292491 834.994458
15.720000 817.219749 825.407484 828.724984 829.295531 835.294953 838.962073
15.810000 824.120455 831.269409 835.875133 835.649780 840.491148 843.400327
15.920000 833.177358 839.316158 844.061979 843.600355 847.822175 851.496738
16.010000 840.019400 844.784896 849.319165 848.894210 853.091982 855.803500
16.120000 845.784513 850.430609 855.167617 854.447512 857.867354 860.343860
16.150000 846.965687 852.666408 856.713284 856.111004 859.487711 861.920206
16.220000 849.506179 857.372044 860.056149 859.792617 862.792008 865.210990
16.342500 856.519532 862.509501 866.419568 866.673353 871.105693 876.594945
16.465000 863.762884 868.054025 873.412651 873.395472 878.690511 883.331588
16.587500 869.587184 874.827986 880.428399 879.831514 884.335709 887.980263
16.710000 878.053996 882.679074 886.635548 886.164212 889.443412 891.779567
16.750000 880.246519 885.049183 888.496554 888.038114 890.972324 893.428891
16.830000 884.854381 888.565636 891.411865 891.063416 893.641138 895.696369
16.940000 889.736094 892.592219 894.873881 894.668822 896.731514 898.771242
17.010000 891.989717 895.024980 897.120274 896.942286 898.839714 900.926450
17.090000 894.771106 897.448791 899.478443 899.337815 901.245980 903.027486
17.215000 898.256093 900.834623 902.838533 902.771412 904.802014 906.565153
17.340000 901.352223 904.207682 906.335671 906.179666 908.172033 910.076905
17.450000 904.705240 907.207472 909.446566 909.268439 911.234399 912.998727
17.560000 908.213712 910.510426 912.576585 912.472639 914.265740 916.133127
17.650000 911.741056 913.706679 915.507540 915.538475 917.158600 920.167988
17.740000 915.991049 917.937170 919.830033 919.971264 922.001767 925.206156
17.850000 922.101972 924.104721 926.387427 926.526154 929.035591 931.892388
17.940000 929.138874 931.734011 934.783608 934.851545 938.071879 940.624495
18.050000 937.387942 940.145313 942.789878 942.898514 945.648037 948.935655
18.140000 943.668111 946.503522 948.775142 948.751960 951.096321 953.044265
18.250000 948.118933 951.037909 953.392784 953.167797 955.316120 956.723140
18.320000 950.740755 953.644704 956.058937 955.740859 957.768503 959.181142
18.420000 955.102039 957.994535 960.388068 960.356730 962.603396 965.352508
18.520000 961.389511 963.281246 965.617514 965.812279 968.279850 970.907944
18.650000 967.955941 972.336719 975.942928 975.467665 978.461027 980.621590
18.740000 971.992000 977.508326 980.750977 980.260464 983.024643 985.680352
18.830000 974.675561 982.711097 985.298161 984.910829 987.783763 990.476163
18.965000 979.016908 987.480309 990.617546 990.142355 993.354823 996.285211
19.100000 986.120783 992.673260 995.464817 995.033910 997.939567 1000.535014
19.235000 991.794118 997.825125 999.997883 999.688277 1002.132164 1004.289609
19.370000 1000.389417 1003.140444 1004.442168 1004.358095 1006.185321 1008.308741
19.470000 1003.848692 1005.866734 1007.559526 1007.487829 1009.681567 1011.570101
19.560000 1006.149368 1008.503427 1010.555256 1010.479285 1012.916627 1014.912819
19.670000 1008.935257 1011.392511 1013.966754 1013.915098 1016.664718 1018.714895
19.760000 1011.757811 1014.391887 1017.353186 1017.152964 1019.801530 1021.622404
19.870000 1016.174150 1018.547308 1021.773074 1021.370779 1023.877725 1025.687673
19.960000 1019.331345 1022.403600 1025.055820 1024.760630 1027.014247 1028.682947
20.070000 1024.142260 1027.250555 1029.199645 1028.942829 1030.678513 1031.989233
20.160000 1029.313396 1030.934434 1032.394857 1032.395351 1033.811773 1035.542548
20.270000 1033.318307 1034.582040 1036.183596 1036.328558 1037.943607 1040.602623
20.360000 1035.800087 1037.456740 1039.135651 1039.439523 1041.412367 1044.674482
20.470000 1039.534896 1041.083738 1043.424688 1043.677059 1046.207869 1049.878507
20.560000 1042.815184 1045.241658 1048.237850 1048.466411 1051.474657 1056.223006
20.670000 1049.269739 1052.684460 1055.900026 1056.777848 1060.595315 1071.014823
20.740000 1053.374033 1056.563022 1060.478899 1061.383701 1065.896956 1074.681994
20.855000 1058.084094 1063.038572 1068.915609 1068.809321 1074.338223 1078.828328
20.970000 1063.510916 1071.190976 1076.632705 1075.762047 1080.492693 1083.835766
21.110000 1074.906853 1079.242425 1083.031545 1082.765527 1086.245496 1089.322575
21.150000 1077.852881 1081.362331 1084.889809 1084.704864 1088.077156 1090.719648
21.280000 1083.857965 1086.891137 1090.219309 1090.134566 1093.171112 1095.974887
21.350000 1087.683793 1090.474267 1093.412305 1093.482159 1096.493975 1099.091647
21.480000 1094.062810 1096.319583 1099.044360 1099.193490 1102.032961 1105.565079
21.550000 1098.135965 1100.495156 1103.011037 1103.103255 1105.513202 1108.648153
21.680000 1105.882554 1109.066615 1112.073538 1112.094261 1115.177792 1117.903220
21.750000 1109.101260 1113.059997 1116.349128 1116.320519 1119.369298 1123.263989
21.880000 1117.530681 1120.270209 1122.875552 1124.354719 1130.026391 1136.839484
21.930000 1120.456493 1123.054062 1125.812668 1127.406178 1133.584638 1139.580899
22.073333 1126.069057 1129.454174 1135.059566 1135.708959 1142.100369 1147.441487
22.216667 1131.862671 1137.361688 1143.925134 1143.825655 1149.880486 1154.289769
22.360000 1140.389584 1146.543696 1151.528203 1151.420681 1156.280692 1161.427596
22.460000 1146.163892 1151.350312 1155.696558 1155.853754 1160.595998 1166.491636
22.550000 1150.762404 1154.722769 1159.137480 1159.590847 1164.910421 1169.898915
22.660000 1154.863107 1158.723724 1163.294521 1163.725555 1169.133362 1173.951103
22.750000 1158.563745 1162.205551 1166.691575 1167.178996 1172.617400 1177.294437
22.850000 1161.776887 1165.901633 1170.522238 1171.060152 1176.552246 1180.570289
22.950000 1165.539789 1170.105087 1175.301674 1175.247179 1180.628743 1183.935746
23.050000 1170.168659 1175.160628 1180.844489 1180.186048 1184.988271 1187.088005
23.120000 1174.376187 1179.645083 1185.141820 1184.120990 1187.821638 1189.477161
23.260000 1189.837948 1191.130998 1192.611542 1192.761348 1194.372515 1196.858685
23.350000 1193.779875 1195.419582 1197.408402 1197.567595 1199.715033 1202.145009
23.460000 1197.576005 1199.631108 1202.328674 1202.232079 1204.781850 1206.727726
23.530000 1200.642400 1202.650420 1205.420898 1205.332384 1207.758302 1209.979046
23.650000 1204.898868 1207.287639 1209.832416 1209.638594 1211.852390 1213.770089
23.730000 1207.511793 1209.942227 1212.372065 1212.258154 1214.463068 1216.278852
23.810000 1210.289623 1212.696830 1215.003448 1214.855187 1217.023145 1218.667372
23.910000 1213.456566 1215.800645 1218.203964 1217.901359 1219.823627 1221.442390
23.980000 1215.934995 1218.226614 1220.540430 1220.251855 1222.130150 1223.462864
24.050000 1218.831087 1221.086031 1223.230456 1223.118909 1224.975551 1226.885821
24.130000 1221.543857 1223.792234 1225.711712 1225.686973 1227.565133 1229.796778
24.230000 1224.755955 1226.845774 1228.726509 1228.849058 1230.933802 1233.101132
24.330000 1228.016741 1229.945924 1231.774956 1231.919608 1234.069228 1236.146360
24.440000 1230.967017 1233.062159 1235.079389 1235.174154 1237.470074 1239.380117
24.530000 1233.659598 1235.896984 1237.905571 1237.963431 1240.204338 1242.035322
24.630000 1237.382361 1239.733875 1241.694676 1241.692663 1243.563596 1245.525116
24.730000 1245.281762 1246.935145 1250.113164 1250.946246 1255.397580 1259.078642
24.830000 1249.836304 1253.179142 1258.275871 1258.045002 1262.673099 1265.359666
24.930000 1256.406986 1260.693591 1264.526965 1264.017447 1267.186112 1269.216380
25.040000 1262.131113 1265.787539 1268.528733 1268.328645 1270.867729 1272.708793
25.185000 1267.866985 1271.071181 1273.491596 1273.313286 1275.647832 1277.625358
25.330000 1273.766609 1276.302517 1278.466523 1278.244297 1280.089415 1281.714229
25.440000 1278.804248 1281.089142 1282.969997 1282.894225 1284.561523 1286.755852
25.540000 1283.724950 1285.435961 1287.320974 1287.614292 1289.681353 1293.503665
25.640000 1287.711444 1289.304547 1291.950230 1292.331374 1295.538999 1299.094945
25.730000 1291.412379 1294.118837 1298.545005 1298.515728 1302.724972 1306.260228
25.840000 1301.748917 1306.725854 1311.113116 1310.909781 1315.319070 1318.292346
25.930000 1309.376769 1313.812691 1317.702320 1317.592631 1321.412546 1324.773975
26.040000 1321.334765 1324.840163 1328.395180 1328.465596 1332.136141 1335.350598
26.130000 1327.916432 1331.180913 1334.290419 1334.130926 1337.153674 1339.313495
26.240000 1334.248014 1337.636378 1339.984481 1339.656370 1341.642687 1343.164668
26.330000 1341.742680 1342.863272 1343.956640 1344.029605 1345.314366 1346.533078
26.440000 1345.128875 1346.356155 1347.835892 1347.911163 1349.417959 1351.552881
26.530000 1348.436722 1349.570290 1351.226429 1351.298404 1353.019602 1354.978099
26.640000 1352.065905 1353.759463 1355.467487 1355.353503 1356.920978 1358.075020
26.730000 1355.562986 1357.724141 1359.178155 1359.086922 1360.482722 1361.828508
26.840000 1360.815483 1362.179059 1363.511237 1363.573889 1365.023543 1366.464755
26.910000 1363.470415 1364.749404 1366.121511 1366.186170 1367.652626 1369.056122
27.010000 1366.647242 1368.222746 1369.687458 1369.727745 1371.285836 1373.034040
27.050000 1368.242854 1369.597819 1371.174946 1371.208770 1372.824483 1374.545845
27.150000 1371.387053 1372.951448 1374.764187 1374.721265 1376.377985 1378.149987
27.240000 1374.783084 1376.551438 1378.107334 1378.111013 1379.566333 1381.614111
27.350000 1380.412891 1381.941374 1384.065224 1384.228164 1386.562323 1388.221821
27.440000 1384.040295 1385.858105 1387.955623 1387.921984 1389.960501 1391.657752
27.550000 1388.433844 1390.539001 1392.171161 1392.061092 1393.528385 1394.969359
27.640000 1394.031717 1395.152198 1396.058424 1396.140940 1397.199605 1398.241551
