depth(m) lower_95(kyr) lower_68(kyr) median(kyr) mean(kyr) upper_68(kyr) upper_95(kyr)
27.100000 698.458119 699.428901 700.401051 700.421638 701.458263 702.582509
27.200000 700.581757 702.050001 703.853345 704.066187 706.224674 708.647317
27.300000 702.835516 704.933228 707.307939 707.167830 709.386887 710.837648
27.400000 705.324198 707.755377 710.049175 709.691684 711.431290 712.574500
27.500000 708.660721 710.706169 712.160524 711.975090 713.233101 714.229091
27.600000 711.797531 713.234867 714.257236 714.213735 715.206046 716.333476
27.700000 714.204435 715.010930 716.042088 716.061984 717.088852 718.214653
27.800000 715.804212 716.653911 717.732615 717.736320 718.798551 719.897771
27.900000 717.354589 718.165212 719.301218 719.308028 720.380791 721.598780
28.000000 718.873653 719.894160 721.010955 721.050124 722.187077 723.551561
28.100000 720.745327 721.905566 723.048236 723.147465 724.371836 726.037533
28.140000 721.654459 722.788287 723.988046 724.144073 725.428915 727.444753
28.200000 722.832869 724.092815 725.410525 725.634671 727.112527 729.946992
28.240000 723.805060 724.904419 726.366275 726.651360 728.382521 731.465279
28.300000 724.787020 725.983128 727.745880 728.167988 730.381551 733.992370
28.340000 725.549402 726.761652 728.815960 729.229097 731.915449 735.036594
28.400000 726.601566 727.944029 730.471067 730.796513 733.988653 736.455672
28.410000 726.750074 728.140404 730.725546 731.047422 734.251655 736.797085
28.530000 728.867374 730.684750 733.791822 733.781302 736.977179 739.009471
28.650000 731.168605 733.568609 736.679077 736.582913 739.485525 741.063981
28.770000 733.952475 736.755637 739.703871 739.295861 741.677293 743.133953
28.850000 736.374914 739.077505 741.694261 741.216168 743.192527 744.469964
28.950000 739.103359 742.142775 743.895295 743.609733 745.117168 746.318997
29.050000 742.825550 744.329820 745.694086 745.629283 746.968618 748.115020
29.120000 744.194867 745.523299 746.885876 746.876954 748.202762 749.398077
29.250000 746.036329 747.508322 748.914563 748.883301 750.178445 751.561344
29.350000 747.655197 749.051649 750.439376 750.441666 751.808545 753.301230
29.460000 749.281198 750.750435 752.188097 752.203698 753.628838 755.121196
29.550000 750.759018 752.272669 753.710701 753.743329 755.245418 756.929351
29.650000 752.523890 753.973719 755.470709 755.562679 757.118366 759.438707
29.750000 753.969976 755.573783 757.151067 757.412255 759.165705 762.420455
29.850000 755.602912 757.215251 759.058421 759.458302 761.764934 765.112674
29.940000 757.402920 759.148115 761.441539 761.933152 764.996517 768.030506
30.050000 760.121177 762.658628 766.294995 766.010628 769.115761 771.505769
30.160000 764.876755 768.940865 771.504886 771.386027 773.780630 776.761314
30.240000 770.048302 772.581809 774.679520 774.840349 777.215439 780.453793
30.310000 772.654017 774.840517 777.112146 777.207997 779.607150 782.239723
30.430000 775.785258 777.900295 780.426409 780.451661 783.017474 784.904286
30.550000 778.472857 781.088412 783.689141 783.494448 785.769930 787.188586
30.650000 781.227557 784.425915 786.632325 786.268199 788.123098 789.216636
30.740000 784.660196 787.572374 789.069525 788.942189 790.384954 791.612442
30.850000 789.784370 791.113892 792.314985 792.360404 793.638483 795.074037
30.950000 792.060151 792.989491 794.159704 794.337382 795.708874 797.480146
31.050000 793.611632 794.718885 796.037301 796.155227 797.570615 799.323074
31.150000 795.259190 796.358413 797.841440 797.887079 799.336157 800.916751
31.250000 796.856820 797.943930 799.485137 799.536513 800.995097 802.555747
31.350000 798.246867 799.726009 801.189452 801.256521 802.800539 804.667944
31.450000 799.884348 801.450189 802.984126 803.056599 804.603669 806.858710
31.520000 801.325341 802.908757 804.668239 804.689495 806.401438 808.347922
31.620000 803.693769 805.824724 807.813540 807.909244 810.023353 812.358990
31.740000 808.615683 811.021898 813.238707 813.579329 816.128168 819.701626
31.840000 811.798009 814.027378 816.238300 816.699817 819.291544 825.092581
31.930000 814.623083 816.645005 819.249984 819.489580 821.992775 827.685024
32.040000 816.687014 819.257390 822.260622 822.440083 825.084955 830.492893
32.150000 818.749995 821.733312 825.308308 825.374313 828.967178 833.305407
32.250000 821.054558 824.101236 827.795786 827.935165 832.002416 835.228317
32.350000 823.191015 826.620511 829.986601 830.283155 834.318892 836.960775
32.450000 825.295060 829.132348 832.584960 832.665327 836.271073 839.276964
32.550000 828.250481 831.687631 835.283677 835.008932 838.189621 840.928290
32.650000 831.004289 834.193536 837.557207 837.257191 840.148059 842.659051
32.750000 833.412173 836.887646 839.766049 839.545420 841.966150 844.345525
32.850000 836.500074 839.590536 842.036152 841.878461 844.080446 846.607839
32.950000 839.284749 841.979658 844.057736 844.120765 846.107973 849.188100
33.050000 841.934781 844.089882 846.027237 846.219443 848.426665 851.518784
33.150000 844.268771 846.126417 848.000732 848.246384 850.411488 853.481389
33.250000 846.397779 848.294404 849.927442 850.321982 852.613861 855.300107
33.340000 848.464018 850.410679 852.232342 852.403644 854.509189 857.142916
33.430000 850.698685 852.451824 854.418484 854.541983 856.640946 858.884815
33.550000 853.483475 855.535667 857.381676 857.408814 859.377747 861.152341
33.650000 856.211831 857.848288 859.818729 859.757314 861.560432 863.198827
33.750000 858.178007 860.160959 862.195960 861.944196 863.666138 864.841100
33.850000 860.350826 862.526114 864.265383 864.006951 865.406647 866.425189
33.950000 863.545235 865.348150 866.418862 866.313657 867.357607 868.449649
34.050000 866.346469 867.505456 868.427203 868.438212 869.421141 870.430512
34.150000 868.331361 869.254682 870.153142 870.231762 871.193891 872.261277
34.250000 869.985155 870.875715 871.862313 871.917642 872.947562 874.023891
34.350000 871.545973 872.475314 873.454884 873.519370 874.521796 875.706179
34.450000 873.222688 874.074693 875.046944 875.101391 876.151999 877.323711
34.550000 874.726250 875.683243 876.795892 876.813520 877.824179 879.417367
34.670000 876.664743 877.728645 878.903235 879.019277 880.257906 882.422739
34.700000 877.275114 878.361343 879.493942 879.654157 880.918966 883.019885
34.750000 878.105705 879.263245 880.465437 880.669642 882.041201 884.416311
34.800000 878.936234 880.145159 881.434067 881.679840 883.253717 885.816811
34.850000 879.793893 881.033851 882.454966 882.746547 884.577102 886.812796
34.900000 880.838341 882.039097 883.595060 883.863394 885.831839 888.154737
34.930000 881.518417 882.725055 884.292526 884.600234 886.665605 889.122497
35.030000 883.495519 884.963862 886.722362 886.979972 889.114305 891.347746
35.050000 883.915754 885.505968 887.343489 887.522756 889.652244 891.842359
35.100000 885.126608 886.867228 888.931788 888.953265 891.079967 893.072188
35.150000 886.419685 888.428217 890.553315 890.547040 892.665515 894.288758
35.200000 887.963710 890.330171 892.362573 892.330383 894.376274 896.010256
35.250000 890.296764 892.309866 894.248799 894.191081 896.059156 897.684555
35.300000 892.089097 894.172290 895.929553 895.929473 897.671113 900.072713
35.350000 894.232217 895.974792 897.710474 897.867263 899.734553 902.215503
35.360000 894.478747 896.264142 897.998653 898.171169 900.080858 902.593328
35.450000 897.070799 898.611805 900.833460 901.137143 903.747707 906.470665
35.500000 898.224890 899.878708 902.536856 902.786037 905.590345 908.226361
35.550000 899.523294 901.249583 904.159170 904.325642 907.528760 909.775537
35.600000 900.640781 902.675971 905.939414 905.880053 909.141600 911.439772
35.650000 901.864891 904.231145 907.608521 907.478967 910.713322 912.543503
35.730000 903.703254 906.866704 910.650584 910.096757 913.031069 914.478531
35.750000 904.355635 907.517498 911.331597 910.726202 913.633370 915.118293
35.800000 905.727972 909.496530 913.135603 912.429853 915.005746 916.109749
35.850000 907.132325 911.788672 914.787288 914.162746 916.392123 917.377158
35.880000 908.314115 912.921270 915.618748 915.072410 917.094661 918.241085
36.000000 915.622925 917.063809 918.572479 918.510619 919.912721 921.274850
36.050000 917.188494 918.300387 919.785187 919.734762 921.141230 922.380712
36.100000 918.149375 919.456954 920.937339 920.895367 922.298143 923.585577
36.150000 919.331117 920.712742 922.098950 922.055907 923.309689 924.510583
36.200000 920.330424 921.911830 923.265215 923.221283 924.577042 925.908085
36.250000 921.671448 923.056056 924.370580 924.357691 925.723169 926.859671
36.300000 922.689898 924.132745 925.435943 925.456421 926.837497 928.129543
36.350000 923.859732 925.264198 926.617812 926.642328 928.080227 929.307366
36.410000 925.346742 926.729551 928.100503 928.128846 929.557321 930.879249
36.430000 925.837400 927.187070 928.613446 928.597835 929.963710 931.349502
36.500000 927.389739 928.625938 930.049467 930.021666 931.381615 932.756538
36.550000 928.246907 929.621737 931.052408 931.042938 932.371173 933.891184
36.600000 929.301565 930.681829 932.129752 932.127829 933.552444 935.242556
36.650000 930.479031 931.743389 933.178667 933.229561 934.652092 936.456966
36.700000 931.456543 932.840017 934.352455 934.369513 935.826080 937.600816
36.750000 932.493662 933.955502 935.566696 935.539870 937.150528 938.847135
36.800000 933.540039 934.986320 936.748763 936.755081 938.510384 940.259322
36.850000 934.683848 936.171302 937.911419 937.937133 939.776101 941.436345
36.920000 936.513167 937.894237 939.673243 939.703987 941.459822 942.975281
37.000000 938.283663 939.983776 941.790640 941.747831 943.423890 944.926499
37.050000 939.481242 941.317968 943.105803 943.043020 944.642440 946.165020
37.100000 941.426105 942.999664 944.572257 944.576713 946.145463 947.773805
37.150000 942.952083 944.449916 945.993251 945.993232 947.473731 949.229103
37.230000 944.797615 946.390011 947.955718 947.949897 949.508973 951.184056
37.250000 945.602449 946.902381 948.461286 948.480121 950.093900 951.519965
37.300000 946.632072 948.009125 949.778993 949.686540 951.294803 952.531520
37.360000 947.785084 949.176987 950.936254 950.889052 952.508977 953.837746
37.410000 948.730148 950.197521 951.960156 951.899287 953.597131 954.890245
37.450000 949.452911 951.049658 952.783679 952.718292 954.399828 955.718234
37.500000 950.439180 952.130617 953.758023 953.722365 955.319751 956.458477
37.550000 951.388983 953.352203 954.950956 954.831316 956.357431 957.329751
37.600000 952.708578 954.713916 956.271894 956.073827 957.436279 958.338352
37.650000 954.439839 956.354124 957.716196 957.529062 958.647957 959.665271
37.750000 958.624638 959.455285 960.428793 960.585338 961.684193 963.813113
37.850000 960.915489 961.967375 963.423633 963.545190 965.168904 966.992058
37.950000 962.864697 964.435253 966.108690 966.053694 967.624777 969.061371
38.020000 964.355848 966.057375 967.908552 967.830032 969.505041 971.063209
38.150000 967.059719 968.818516 970.599230 970.822535 972.548489 976.077502
38.250000 969.112626 970.717234 972.628747 973.109345 975.196418 981.307022
38.330000 970.739860 972.474846 974.535911 975.132879 977.551408 983.654102
38.430000 972.486862 974.590037 977.083623 977.836280 981.073462 987.795046
38.550000 974.709999 977.137799 981.088412 981.429340 985.787028 990.339835
38.650000 976.432863 979.608128 984.237053 984.386978 988.936633 992.650565
38.750000 979.061552 982.085747 987.222782 987.028256 991.471244 994.964128
38.860000 982.250553 986.439207 990.225177 990.104145 993.600230 997.181588
38.950000 985.628374 989.766015 992.761133 992.648956 995.509409 998.749958
39.050000 990.380965 993.053622 995.344220 995.468390 997.874855 1000.960612
39.150000 993.551541 996.204680 998.153246 998.281517 1000.469766 1002.551760
39.250000 996.673154 999.050042 1001.423593 1001.784458 1004.692909 1008.850746
39.350000 999.340827 1002.439882 1005.200192 1005.401503 1008.688599 1011.702888
39.460000 1001.468696 1005.424521 1008.720504 1008.616344 1012.014763 1015.598999
39.570000 1005.136960 1008.398851 1011.242722 1011.401185 1014.619917 1018.075247
39.650000 1008.524561 1010.760932 1013.364603 1013.709266 1016.876614 1019.864138
39.750000 1011.447237 1013.635106 1016.409116 1016.583919 1019.730403 1022.226238
39.830000 1013.714553 1015.655966 1018.714582 1018.711930 1021.844684 1024.013654
39.920000 1015.718718 1018.007099 1021.124792 1020.929050 1023.724943 1025.926714
40.050000 1018.081178 1021.491360 1024.187416 1023.900454 1026.306453 1027.748816
40.150000 1020.991769 1023.853411 1026.459406 1026.062259 1028.073785 1029.248267
40.250000 1024.006276 1026.483911 1028.545210 1028.242355 1029.838898 1031.009234
40.350000 1027.232533 1029.228576 1030.572601 1030.470024 1031.738469 1033.026841
40.450000 1030.761455 1031.798518 1032.889213 1033.040066 1034.151907 1036.516873
40.550000 1032.888719 1033.741629 1035.065032 1035.330164 1037.055413 1039.289012
40.630000 1034.187786 1035.164007 1036.807767 1037.005167 1038.959156 1040.782444
40.750000 1035.911929 1037.205004 1039.246401 1039.369506 1041.603646 1043.279943
40.850000 1037.491427 1039.040819 1041.236234 1041.264743 1043.547405 1045.255507
40.950000 1039.119228 1040.836184 1043.227243 1043.205071 1045.474543 1047.518267
41.010000 1040.093013 1041.844236 1044.237745 1044.287074 1046.632456 1048.603462
41.150000 1042.275197 1044.087157 1046.466078 1046.533878 1048.841690 1051.014144
41.250000 1043.852023 1045.790703 1048.175333 1048.153807 1050.485825 1052.657229
41.330000 1045.176444 1047.340333 1049.642979 1049.645794 1051.948351 1054.697562
41.420000 1046.699843 1049.104013 1051.467657 1051.545068 1054.003635 1056.728853
41.550000 1049.794372 1052.154605 1054.945731 1055.108365 1057.917303 1061.076336
41.650000 1053.637037 1056.092321 1059.180813 1059.177375 1062.278930 1064.891790
41.750000 1057.060998 1059.718292 1062.694864 1062.565889 1065.385202 1067.359415
41.850000 1059.684511 1062.468094 1065.284543 1065.114633 1067.733679 1069.797545
41.950000 1062.253157 1064.991867 1067.567065 1067.431106 1069.834045 1071.693414
42.050000 1064.828767 1067.224341 1069.670619 1069.562280 1071.844528 1073.925745
42.150000 1067.155163 1069.469173 1071.869636 1071.815421 1073.999622 1076.097736
42.250000 1069.808243 1072.098742 1074.419539 1074.432950 1076.724412 1078.952475
42.350000 1072.627184 1074.907638 1077.373567 1077.406104 1079.855005 1083.145924
42.450000 1075.488822 1078.097553 1080.892800 1080.925306 1083.875664 1086.393867
42.520000 1077.801945 1080.518002 1083.449646 1083.497181 1086.509802 1089.172429
42.650000 1081.708421 1084.689658 1087.456348 1087.619668 1090.711141 1093.439806
42.750000 1084.610413 1087.656767 1090.599872 1090.569478 1093.631757 1096.228507
42.830000 1087.125378 1089.860254 1092.983552 1092.917719 1096.069578 1098.535858
42.920000 1089.368918 1092.077055 1095.021810 1095.033190 1098.015745 1100.818219
43.050000 1092.118904 1095.188944 1098.053164 1097.972449 1100.758173 1103.716846
43.150000 1094.728479 1097.610089 1100.338614 1100.339153 1103.042517 1105.780073
43.250000 1097.562144 1100.501139 1102.997074 1102.968692 1105.519483 1107.960332
43.350000 1100.233047 1103.405039 1105.821142 1105.733242 1108.156679 1110.408719
43.450000 1103.878696 1106.547246 1108.923134 1108.862016 1111.217290 1113.401074
43.550000 1107.839680 1109.597307 1111.629832 1111.686729 1113.794978 1115.664680
43.650000 1110.364563 1112.145306 1114.100968 1114.087302 1115.980613 1117.649910
43.750000 1112.816206 1114.697893 1116.623526 1116.542240 1118.368652 1119.756043
43.850000 1114.970560 1117.357907 1119.197027 1119.003950 1120.626202 1121.881008
43.950000 1117.655817 1119.746084 1121.185776 1121.065050 1122.479488 1123.611870
44.010000 1118.959213 1120.861780 1122.301936 1122.155869 1123.502133 1124.601935
44.150000 1121.821287 1123.018828 1124.268084 1124.160230 1125.273569 1126.197810
44.200000 1122.788873 1123.981355 1125.064911 1125.036268 1126.098569 1126.904041
44.250000 1123.774839 1124.903718 1125.998190 1125.925128 1126.927266 1127.785798
44.300000 1124.622772 1125.744441 1126.774196 1126.724022 1127.736021 1128.552952
44.330000 1125.089105 1126.312642 1127.301168 1127.243390 1128.209042 1129.124338
44.380000 1125.957265 1127.112407 1128.071917 1128.035991 1129.022167 1129.806513
44.420000 1126.616687 1127.773920 1128.735062 1128.674018 1129.617942 1130.442921
44.530000 1128.254637 1129.326714 1130.308490 1130.229519 1131.114648 1131.815888
44.550000 1128.520414 1129.682711 1130.595455 1130.548859 1131.428331 1132.178582
44.600000 1129.329762 1130.502493 1131.431668 1131.353431 1132.194564 1132.954495
44.650000 1130.253781 1131.331897 1132.238525 1132.179797 1133.037495 1133.751374
44.700000 1131.090966 1132.131361 1133.011319 1132.988394 1133.849207 1134.669492
44.750000 1131.991374 1132.952805 1133.788182 1133.761818 1134.586873 1135.475168
44.800000 1132.706139 1133.669476 1134.494868 1134.519714 1135.366254 1136.326954
44.850000 1133.449203 1134.455432 1135.264463 1135.320697 1136.171773 1137.324967
44.910000 1134.502484 1135.406248 1136.285858 1136.362292 1137.285648 1138.589144
44.950000 1135.316025 1136.163282 1137.005041 1137.127511 1138.108449 1139.547295
45.020000 1136.455585 1137.245938 1138.242395 1138.392488 1139.478156 1141.250112
45.050000 1136.981062 1137.796319 1138.894633 1138.992512 1140.181551 1141.858350
45.100000 1137.762639 1138.599638 1139.761431 1139.915005 1141.147766 1143.059720
45.150000 1138.498816 1139.409757 1140.633329 1140.799957 1142.102159 1144.174476
45.230000 1139.700216 1140.678255 1142.028345 1142.207256 1143.692891 1145.928141
45.300000 1140.773125 1141.762854 1143.252679 1143.409846 1144.976122 1147.070435
45.410000 1142.351880 1143.507281 1145.088314 1145.301749 1147.111191 1149.372833
45.510000 1143.799260 1145.144234 1146.812611 1147.003675 1148.851151 1151.695538
45.600000 1145.080613 1146.583685 1148.312294 1148.534608 1150.495973 1153.352975
45.700000 1146.597488 1148.035076 1149.964872 1150.212051 1152.399126 1155.154366
45.800000 1148.051827 1149.717839 1151.760542 1151.937433 1154.186631 1156.984289
45.910000 1149.906050 1151.589334 1153.623757 1153.857943 1156.285303 1158.879390
46.000000 1151.565050 1153.094667 1155.419198 1155.621396 1158.082097 1160.836254
46.100000 1153.282521 1155.143630 1157.538703 1157.759306 1160.562111 1163.237051
46.200000 1155.275901 1157.084303 1159.493219 1159.754917 1162.510377 1165.395775
46.300000 1156.918218 1159.006741 1161.564723 1161.722772 1164.524412 1167.073598
46.350000 1157.912722 1160.110275 1162.679896 1162.742537 1165.488379 1167.956334
46.410000 1159.099975 1161.338066 1163.840490 1163.961608 1166.640387 1169.134168
46.450000 1159.890733 1162.102946 1164.756389 1164.812783 1167.454153 1170.024112
46.510000 1161.115704 1163.489021 1166.023780 1166.073927 1168.644536 1171.639860
46.550000 1162.159428 1164.356527 1167.009007 1167.005935 1169.551390 1172.355937
46.600000 1163.352680 1165.385071 1168.146434 1168.200828 1170.972115 1173.496153
46.650000 1164.607916 1166.796947 1169.542458 1169.516492 1172.289881 1174.611554
46.730000 1166.673494 1168.984415 1171.831559 1171.788806 1174.701061 1176.277988
46.750000 1167.024354 1169.518195 1172.413387 1172.299433 1175.222406 1176.750396
46.800000 1168.196973 1170.766548 1173.620137 1173.503477 1176.280705 1177.579339
46.870000 1169.734934 1172.432134 1175.436047 1175.111540 1177.630959 1178.885346
46.910000 1170.410685 1173.538994 1176.357980 1176.006158 1178.419359 1179.631942
46.950000 1171.565508 1174.396428 1177.358870 1176.883111 1179.233445 1180.215038
47.000000 1172.376937 1175.474776 1178.363197 1177.894662 1180.104973 1181.162688
47.030000 1172.819322 1176.051460 1178.957922 1178.472640 1180.617891 1181.655480
47.100000 1174.328896 1177.447655 1180.179044 1179.718198 1181.731635 1182.828928
47.150000 1175.226726 1178.394314 1181.006633 1180.580778 1182.560685 1183.624778
47.250000 1177.323928 1180.274995 1182.658598 1182.259842 1184.060561 1185.207195
47.350000 1179.921310 1182.145785 1184.222725 1183.893295 1185.496016 1186.505805
