depth(m) lower_95(kyr) lower_68(kyr) median(kyr) mean(kyr) upper_68(kyr) upper_95(kyr)
891.000000 716.119927 717.293586 718.194491 718.339161 719.540907 720.671022
891.144928 716.193354 717.396574 718.275845 718.433600 719.649538 720.761065
891.289855 716.258925 717.497401 718.359971 718.538893 719.746398 720.886406
891.434783 716.356689 717.592603 718.461604 718.651197 719.847182 721.019886
891.579710 716.542348 717.719206 718.622378 718.780489 719.974293 721.128044
891.724638 716.777061 717.835023 718.780838 718.925463 720.161142 721.296721
891.869565 716.938868 717.966247 718.916489 719.071212 720.289611 721.428747
892.014493 717.094982 718.095164 719.088174 719.227157 720.462536 721.622315
892.159420 717.215384 718.273430 719.279262 719.385750 720.628130 721.784391
892.304348 717.389932 718.425963 719.471654 719.543759 720.784398 721.964806
892.449275 717.515388 718.551658 719.658300 719.710232 720.942629 722.140571
892.594203 717.755584 718.701261 719.816015 719.882730 721.094252 722.341893
892.739130 717.863659 718.859216 720.008110 720.055436 721.252529 722.520189
892.884058 718.011066 719.041151 720.187445 720.224646 721.431119 722.775486
893.028986 718.157380 719.211672 720.345664 720.395460 721.626925 722.903255
893.173913 718.294952 719.354733 720.527921 720.565881 721.801837 723.142208
893.318841 718.430959 719.510140 720.721086 720.738534 721.993401 723.269566
893.463768 718.545743 719.678983 720.881376 720.912970 722.167313 723.428587
893.608696 718.667280 719.808031 721.069075 721.091746 722.345617 723.646234
893.753623 718.766295 719.968285 721.264101 721.272178 722.593867 723.908104
893.898551 718.869264 720.129291 721.420311 721.441586 722.817457 724.084204
894.043478 718.920503 720.246104 721.634334 721.616160 722.990962 724.415683
894.188406 718.999708 720.387562 721.801782 721.797773 723.193948 724.612708
894.333333 719.149857 720.543267 721.992765 721.978351 723.392659 724.824206
894.478261 719.228672 720.696018 722.148134 722.157150 723.550902 725.055802
894.623188 719.310076 720.848964 722.317041 722.333899 723.772043 725.283233
894.768116 719.384362 721.025187 722.490647 722.509512 724.005652 725.414673
894.913043 719.488973 721.132094 722.686283 722.684830 724.218354 725.699192
895.057971 719.591444 721.257264 722.848533 722.861148 724.456522 725.909956
895.202899 719.681634 721.403874 723.039299 723.035074 724.682908 726.159469
895.347826 719.799418 721.572877 723.253895 723.211707 724.852060 726.403831
895.492754 719.905709 721.669453 723.405738 723.384065 725.100222 726.698110
895.637681 720.051651 721.817458 723.574493 723.561860 725.326641 726.907165
895.782609 720.175063 721.936125 723.771318 723.731179 725.517823 727.190395
895.927536 720.280776 722.068656 723.924286 723.907000 725.698526 727.344729
896.072464 720.475183 722.209351 724.109779 724.081633 725.960958 727.634443
896.217391 720.541444 722.318054 724.247591 724.246747 726.146925 727.877241
896.362319 720.579642 722.462749 724.420138 724.422005 726.360981 728.121001
896.507246 720.710104 722.583181 724.628370 724.592231 726.557961 728.350549
896.652174 720.831007 722.675730 724.752117 724.772090 726.792279 728.731558
896.797101 720.906016 722.820106 724.902848 724.948098 727.052511 728.945384
896.942029 721.085174 722.987617 725.071733 725.128391 727.285404 729.174902
897.086957 721.194844 723.094502 725.228312 725.305686 727.515767 729.426710
897.231884 721.317486 723.239358 725.440167 725.478168 727.760673 729.718893
897.376812 721.410496 723.364652 725.586631 725.650838 728.004379 729.979721
897.521739 721.543566 723.483661 725.759000 725.831343 728.213847 730.245326
897.666667 721.630359 723.616191 725.976839 726.009206 728.488558 730.508848
897.811594 721.679827 723.750844 726.142930 726.189007 728.675028 730.862548
897.956522 721.729453 723.845513 726.310819 726.363883 728.883887 731.057047
898.101449 721.869920 723.982004 726.460349 726.539014 729.108069 731.350406
898.246377 722.015663 724.081579 726.615644 726.715773 729.337403 731.590125
898.391304 722.134932 724.214350 726.800369 726.890654 729.568979 731.863049
898.536232 722.245978 724.332137 726.978292 727.066928 729.786394 732.097305
898.681159 722.328810 724.452539 727.186622 727.238097 730.021440 732.383259
898.826087 722.450684 724.559391 727.385167 727.410305 730.269842 732.634097
898.971014 722.547983 724.689617 727.552912 727.579649 730.457872 732.911608
899.115942 722.685198 724.804094 727.696684 727.747240 730.693989 733.116685
899.260870 722.761293 724.885894 727.865097 727.921599 730.887402 733.405750
899.405797 722.832693 725.005745 728.055470 728.104346 731.118295 733.664120
899.550725 722.901601 725.105651 728.247725 728.278192 731.366104 733.934109
899.695652 722.955786 725.223824 728.428558 728.449088 731.582107 734.239914
899.840580 723.019963 725.378796 728.597315 728.621309 731.800717 734.517046
899.985507 723.086124 725.507986 728.805559 728.794567 732.019524 734.788584
900.130435 723.167380 725.630845 728.976019 728.966975 732.239407 735.011428
900.275362 723.335847 725.754380 729.133597 729.130260 732.408452 735.406135
900.420290 723.532924 725.902625 729.281543 729.290250 732.604366 735.539983
900.565217 723.714164 726.049701 729.415968 729.455897 732.804308 735.697450
900.710145 723.815908 726.184546 729.543765 729.613960 732.984307 735.951209
900.855072 723.915760 726.302618 729.729463 729.772726 733.145700 736.190802
901.000000 724.088205 726.464979 729.877104 729.923563 733.315082 736.377300
901.144928 724.189739 726.616306 730.021741 730.069817 733.468497 736.564994
901.289855 724.292810 726.752374 730.151281 730.217672 733.675350 736.687120
901.434783 724.490278 726.844815 730.281740 730.358265 733.824569 736.821221
901.579710 724.567381 727.024966 730.412971 730.497995 733.967413 736.948531
901.724638 724.612542 727.166970 730.552474 730.631996 734.058622 737.036694
901.869565 724.689025 727.320374 730.709817 730.762468 734.159369 737.133879
902.014493 724.831890 727.483976 730.817389 730.893237 734.302935 737.248172
902.159420 724.984063 727.651639 730.955591 731.026222 734.404604 737.422771
902.304348 725.158792 727.793682 731.064816 731.155078 734.536844 737.549277
902.449275 725.310311 727.972643 731.180836 731.284131 734.656370 737.612340
902.594203 725.544466 728.124895 731.316270 731.409526 734.742569 737.700028
902.739130 725.667664 728.195170 731.425985 731.533877 734.857158 737.802813
902.884058 725.865507 728.371666 731.533436 731.654732 734.992523 737.882331
903.028986 725.963567 728.532526 731.645763 731.780442 735.073187 737.945231
903.173913 726.042125 728.696893 731.772362 731.904166 735.180698 738.022848
903.318841 726.133221 728.836542 731.886571 732.025768 735.287764 738.067818
903.463768 726.241681 728.938568 731.984587 732.151063 735.424530 738.157252
903.608696 726.363715 729.111600 732.120941 732.271460 735.512084 738.229209
903.753623 726.494012 729.279974 732.226751 732.394426 735.609368 738.285165
903.898551 726.591923 729.391560 732.407763 732.520042 735.767937 738.350765
904.043478 726.655342 729.555618 732.523031 732.645094 735.875344 738.426989
904.188406 726.777090 729.689773 732.628863 732.768027 735.978649 738.490814
904.333333 726.843737 729.819023 732.825769 732.894332 736.095480 738.664854
904.478261 726.890048 729.943582 732.976552 733.017727 736.162718 738.744635
904.623188 726.964573 730.075205 733.116526 733.146374 736.280041 738.915666
904.768116 727.030393 730.226168 733.245784 733.270597 736.375906 738.981232
904.913043 727.098338 730.374476 733.364515 733.394922 736.467397 739.062519
905.057971 727.169887 730.500913 733.510353 733.519413 736.564095 739.165502
905.202899 727.298519 730.638232 733.638193 733.648062 736.653064 739.228591
905.347826 727.378809 730.746122 733.818174 733.772595 736.773313 739.296300
905.492754 727.472328 730.852582 733.961958 733.895325 736.896552 739.369043
905.637681 727.540319 730.972491 734.044589 734.021363 736.978643 739.532615
905.782609 727.647957 731.154569 734.185120 734.144317 737.095811 739.602797
905.927536 727.729543 731.257934 734.353227 734.266365 737.169650 739.685814
906.072464 727.885638 731.404828 734.501590 734.388252 737.302625 739.765625
906.217391 727.991439 731.545991 734.679104 734.514715 737.444886 739.901262
906.362319 728.112513 731.635150 734.846022 734.642281 737.563400 739.997004
906.507246 728.240287 731.798591 734.992086 734.761459 737.693185 740.102553
906.652174 728.383575 731.945449 735.133418 734.889254 737.803180 740.223720
906.797101 728.455819 732.038399 735.283505 735.015137 737.945138 740.393757
906.942029 728.535877 732.193752 735.436229 735.140242 738.071499 740.490867
907.086957 728.626556 732.297732 735.560846 735.264043 738.176368 740.598939
907.231884 728.735541 732.414157 735.686326 735.397306 738.330744 740.711928
907.376812 728.788614 732.541569 735.837831 735.527762 738.459981 740.850951
907.521739 728.950729 732.640844 735.987343 735.649550 738.634131 740.912938
907.666667 729.045824 732.756613 736.119522 735.771231 738.726655 741.014305
907.811594 729.215022 732.893636 736.220081 735.894158 738.832623 741.212648
907.956522 729.263969 732.969533 736.392389 736.018912 738.959251 741.322402
908.101449 729.355058 733.077700 736.550844 736.145048 739.082687 741.544870
908.246377 729.406642 733.193359 736.722649 736.271914 739.229313 741.705419
908.391304 729.486995 733.332933 736.904740 736.392971 739.399639 741.853402
908.536232 729.623157 733.438997 737.014457 736.513256 739.507783 741.992557
908.681159 729.752785 733.603777 737.084713 736.634627 739.620193 742.106988
908.826087 729.856892 733.746517 737.238904 736.765438 739.786925 742.248446
908.971014 729.908985 733.823891 737.342733 736.887234 739.879368 742.353220
909.115942 730.003359 733.951820 737.511762 737.012656 740.014778 742.455285
909.260870 730.070494 734.079982 737.649973 737.136839 740.170665 742.509596
909.405797 730.132682 734.154760 737.813563 737.259417 740.275313 742.654547
909.550725 730.187522 734.313465 737.954695 737.385151 740.376302 742.855259
909.695652 730.250553 734.390329 738.112908 737.509994 740.485958 743.007906
909.840580 730.375886 734.465555 738.239709 737.635224 740.629355 743.117649
909.985507 730.492712 734.634591 738.340521 737.759346 740.731825 743.308008
910.130435 730.582274 734.753142 738.450264 737.886200 740.899006 743.585618
910.275362 730.686368 734.838841 738.655300 738.011841 741.044793 743.708247
910.420290 730.788333 734.970744 738.813604 738.132544 741.197790 743.898221
910.565217 730.884120 735.078400 738.930079 738.261629 741.269772 744.089155
910.710145 731.020382 735.173943 739.060633 738.382234 741.407353 744.248481
910.855072 731.157692 735.308151 739.184797 738.511268 741.510434 744.347994
911.000000 731.206118 735.438838 739.288055 738.634604 741.620316 744.455993
911.144928 731.439647 735.633347 739.376145 738.760602 741.756159 744.682140
911.289855 731.627769 735.738164 739.481408 738.880563 741.837126 744.743214
911.434783 731.761056 735.910899 739.648450 739.005926 741.973630 744.862389
911.579710 731.931609 735.998249 739.780138 739.132952 742.071344 744.977592
911.724638 732.041101 736.167373 739.911153 739.258156 742.155261 745.037205
911.869565 732.263022 736.359061 739.993545 739.380479 742.248757 745.173334
912.014493 732.380942 736.549776 740.078977 739.512611 742.374654 745.247404
912.159420 732.655039 736.674551 740.212344 739.640917 742.476204 745.297102
912.304348 732.815173 736.853531 740.327710 739.771926 742.571421 745.364070
912.449275 733.000402 736.993802 740.468096 739.899378 742.680930 745.466653
912.594203 733.194184 737.137564 740.571192 740.025200 742.785486 745.570055
912.739130 733.464805 737.254632 740.676236 740.151389 742.887122 745.621050
912.884058 733.591771 737.437378 740.794159 740.276541 743.006630 745.728647
913.028986 733.717771 737.608050 740.886935 740.402431 743.108348 745.822555
913.173913 733.885659 737.750712 740.989531 740.525767 743.217827 745.931100
913.318841 734.053620 737.860037 741.112919 740.651117 743.337612 746.018707
913.463768 734.166179 737.985202 741.258490 740.775921 743.473694 746.099939
913.608696 734.267977 738.093672 741.380250 740.902662 743.539026 746.202535
913.753623 734.498868 738.249890 741.490946 741.022972 743.650053 746.243450
913.898551 734.685358 738.382204 741.602658 741.148371 743.794758 746.306884
914.043478 734.801021 738.504904 741.712620 741.272793 743.924713 746.389060
914.188406 734.951741 738.665874 741.828466 741.395886 744.055120 746.475581
914.333333 735.045965 738.795123 741.929665 741.518170 744.124052 746.571674
914.478261 735.157866 738.943065 742.043247 741.642367 744.205060 746.629076
914.623188 735.289043 739.047495 742.165800 741.767359 744.294057 746.707030
914.768116 735.447181 739.209910 742.283674 741.895030 744.394838 746.764680
914.913043 735.714815 739.380244 742.406159 742.021460 744.517805 746.862406
915.057971 735.787047 739.544391 742.513168 742.152175 744.641756 747.013628
915.202899 735.900532 739.685403 742.613046 742.278569 744.793009 747.105545
915.347826 736.042450 739.806458 742.715481 742.397988 744.872749 747.145702
915.492754 736.160814 739.980609 742.831850 742.528567 745.003206 747.246910
915.637681 736.246757 740.123212 742.983019 742.653659 745.109658 747.407639
915.782609 736.427281 740.251605 743.110566 742.780028 745.182402 747.525643
915.927536 736.517569 740.402528 743.248906 742.899279 745.271412 747.666852
916.072464 736.607031 740.545543 743.338080 743.029260 745.404977 747.752565
916.217391 736.737553 740.675056 743.439730 743.151708 745.555797 747.928710
916.362319 736.826693 740.777709 743.585917 743.277377 745.633939 747.975200
916.507246 736.917052 740.941366 743.689975 743.404161 745.723416 748.148425
916.652174 737.032723 741.072175 743.835276 743.530110 745.823087 748.247796
916.797101 737.244104 741.236454 743.925176 743.655810 745.949398 748.349551
916.942029 737.301453 741.411445 744.037895 743.782673 746.057367 748.453436
917.086957 737.375540 741.581730 744.175113 743.905754 746.186366 748.543692
917.231884 737.452219 741.713194 744.246139 744.034138 746.361617 748.597110
917.376812 737.530396 741.892053 744.345870 744.156461 746.448625 748.710393
917.521739 737.701821 742.098474 744.455923 744.281655 746.574699 748.876248
917.666667 737.945475 742.249562 744.606149 744.408888 746.715413 749.085409
917.811594 738.068277 742.328488 744.737983 744.532326 746.839252 749.261496
917.956522 738.119694 742.430478 744.886607 744.655357 746.979862 749.366517
918.101449 738.341427 742.568283 744.975642 744.779288 747.133441 749.451949
918.246377 738.453750 742.716272 745.071999 744.905604 747.243107 749.631119
918.391304 738.538750 742.846539 745.191800 745.030035 747.333573 749.746495
918.536232 738.824527 742.965290 745.288523 745.154234 747.416217 749.978647
918.681159 738.914751 743.073251 745.406371 745.281673 747.497883 750.136205
918.826087 738.991037 743.175145 745.533416 745.411146 747.661464 750.288865
918.971014 739.041560 743.299901 745.665623 745.533361 747.746887 750.374689
919.115942 739.111612 743.388472 745.760384 745.657110 747.876711 750.486016
919.260870 739.203221 743.544473 745.905029 745.780895 748.024096 750.611485
919.405797 739.364576 743.622747 746.037884 745.906330 748.125083 750.818521
919.550725 739.433732 743.685072 746.172597 746.030875 748.267477 750.971457
919.695652 739.600356 743.760065 746.267446 746.152375 748.388777 751.174323
919.840580 739.776473 743.904289 746.395693 746.280658 748.592763 751.388112
919.985507 739.843925 744.030484 746.574395 746.403476 748.718541 751.562006
920.130435 739.935839 744.145528 746.674844 746.523799 748.806378 751.708333
920.275362 740.030047 744.271258 746.776064 746.642405 748.964905 751.764585
920.420290 740.133850 744.364850 746.885685 746.764793 749.108464 751.835199
920.565217 740.252798 744.454164 746.981056 746.886034 749.274394 751.955038
920.710145 740.350723 744.521265 747.083993 747.006138 749.383325 752.111319
920.855072 740.534684 744.673994 747.221282 747.124067 749.485845 752.177936
921.000000 740.677891 744.812020 747.344440 747.235915 749.585906 752.216406
921.144928 740.842464 744.934735 747.454251 747.346098 749.662125 752.280319
921.289855 740.924482 745.060767 747.533586 747.456982 749.786423 752.370168
921.434783 741.038983 745.179672 747.620670 747.561578 749.863377 752.434571
921.579710 741.141619 745.311920 747.713716 747.662298 749.945568 752.590175
921.724638 741.272118 745.438257 747.810118 747.770986 750.063596 752.702432
921.869565 741.388128 745.554227 747.925105 747.874786 750.136531 752.844379
922.014493 741.620258 745.705138 748.023303 747.974609 750.220829 752.910723
922.159420 741.816818 745.805579 748.132252 748.071472 750.306207 752.970728
922.304348 741.952879 745.904268 748.239020 748.170928 750.389008 753.011274
922.449275 742.022476 746.026982 748.325343 748.268912 750.472180 753.074043
922.594203 742.140702 746.158938 748.441898 748.368882 750.552054 753.138630
922.739130 742.269890 746.297713 748.531695 748.468148 750.682119 753.243150
922.884058 742.353448 746.390354 748.634984 748.569117 750.751862 753.292026
923.028986 742.497715 746.496254 748.744959 748.672350 750.846816 753.378185
923.173913 742.680567 746.594259 748.848544 748.773434 750.944057 753.424916
923.318841 742.845849 746.711812 748.964692 748.874372 751.008752 753.495378
923.463768 743.172507 746.781181 749.070747 748.971722 751.109196 753.584684
923.608696 743.373832 746.940675 749.160310 749.072858 751.234418 753.651642
923.753623 743.501107 747.051457 749.250069 749.170921 751.316478 753.720978
923.898551 743.632642 747.157985 749.351229 749.272296 751.434576 753.839191
924.043478 743.905163 747.284797 749.466937 749.371755 751.510188 753.926218
924.188406 744.104519 747.383603 749.574948 749.473583 751.567731 754.005469
924.333333 744.234956 747.506508 749.691952 749.575003 751.646892 754.086125
924.478261 744.355914 747.608401 749.805966 749.673925 751.739876 754.206531
924.623188 744.532717 747.686286 749.911257 749.771733 751.848435 754.274515
924.768116 744.694795 747.779500 749.993849 749.868682 751.945296 754.345182
924.913043 744.958781 747.919219 750.104115 749.966443 752.063376 754.404191
925.057971 745.085829 748.043367 750.211480 750.066745 752.149885 754.468336
925.202899 745.350956 748.180558 750.312071 750.164169 752.234268 754.548641
925.347826 745.529936 748.277270 750.406487 750.266208 752.345914 754.612071
925.492754 745.595252 748.347629 750.559964 750.367020 752.462138 754.693169
925.637681 745.674281 748.438929 750.670509 750.465498 752.565069 754.771039
925.782609 745.741041 748.498537 750.767182 750.563063 752.644332 754.841794
925.927536 745.827698 748.655719 750.882852 750.666044 752.760142 754.930585
926.072464 746.103046 748.737145 750.969882 750.764135 752.854732 755.009161
926.217391 746.221127 748.894921 751.104135 750.863685 752.944701 755.089806
926.362319 746.333821 748.985032 751.229426 750.962384 753.027176 755.160136
926.507246 746.550512 749.053453 751.312780 751.064290 753.161844 755.280517
926.652174 746.608267 749.194510 751.428909 751.164689 753.246892 755.406807
926.797101 746.708316 749.306962 751.554962 751.266423 753.368298 755.500383
926.942029 746.771648 749.352825 751.676214 751.365938 753.458982 755.556840
927.086957 746.858567 749.428127 751.774326 751.464967 753.602713 755.620534
927.231884 746.902984 749.539397 751.870278 751.566499 753.678000 755.717411
927.376812 746.993277 749.646199 751.949180 751.664807 753.785054 755.829311
927.521739 747.085208 749.701404 752.038325 751.764083 753.891052 755.936639
927.666667 747.145583 749.749950 752.136283 751.862648 753.973040 756.001707
927.811594 747.222112 749.864907 752.232660 751.962490 754.087852 756.084868
927.956522 747.435512 749.963541 752.302665 752.058658 754.163911 756.178415
928.101449 747.487325 750.065970 752.408864 752.155377 754.264478 756.264679
928.246377 747.599500 750.148661 752.524894 752.258568 754.395588 756.364102
