depth(m) lower_95.4(kyr) lower_68.2(kyr) median(kyr) mean(kyr) upper_68.2(kyr) upper_95.4(kyr)
36.570000 999.033629 999.252784 999.952795 999.986661 1000.693078 1000.953195
36.670000 1001.049410 1001.818924 1002.745829 1003.102152 1004.248153 1006.596954
36.760000 1002.763529 1004.086251 1005.529527 1006.044205 1007.862920 1012.877366
36.780000 1003.353161 1004.789050 1006.049301 1006.778683 1008.982495 1013.705042
36.870000 1006.137317 1007.334223 1009.301035 1009.953945 1013.238823 1016.994219
36.960000 1008.748626 1010.525026 1014.041438 1014.565806 1019.013048 1024.263621
36.980000 1009.256536 1011.161469 1014.679397 1015.417354 1020.206356 1025.204915
37.060000 1011.337392 1015.466696 1019.554117 1019.642946 1023.969730 1027.193068
37.080000 1012.407222 1016.927843 1020.898985 1020.629211 1024.659509 1028.029128
37.160000 1017.258121 1022.333226 1026.171889 1025.806783 1029.350839 1032.073556
37.180000 1017.937844 1023.343250 1026.928537 1026.744838 1030.260912 1032.686020
37.260000 1023.154320 1027.530376 1030.979556 1030.501044 1033.252997 1035.004457
37.360000 1028.114044 1031.598886 1033.911828 1033.741474 1035.763308 1039.162305
37.460000 1030.902518 1033.956978 1036.422932 1036.301704 1038.640640 1040.478977
37.550000 1033.540996 1035.707998 1038.331210 1038.226431 1040.613958 1042.117234
37.650000 1035.526286 1037.477142 1040.479943 1040.257126 1042.611016 1044.582194
37.750000 1036.984747 1039.311157 1042.215471 1042.183024 1044.251906 1047.383989
37.850000 1038.650371 1041.162506 1044.269257 1044.266869 1046.619716 1050.464160
37.940000 1040.525831 1042.923442 1046.158873 1046.089417 1048.482827 1053.589147
38.040000 1042.286542 1044.726754 1047.714898 1047.943824 1050.711472 1055.913538
38.140000 1044.074596 1046.475330 1049.847064 1050.057690 1053.309676 1057.008661
38.240000 1045.665741 1048.963967 1052.299020 1052.279504 1055.699702 1058.848265
38.340000 1047.621001 1052.338604 1054.583383 1054.756610 1057.666918 1060.618734
38.440000 1049.439595 1055.210688 1057.445298 1057.385157 1060.419753 1062.788516
38.540000 1054.951884 1058.694735 1060.527033 1060.680576 1063.145057 1065.325607
38.640000 1058.156914 1061.278996 1063.922777 1063.835679 1066.315558 1068.535212
38.730000 1061.286806 1064.145472 1066.797908 1066.810338 1069.677453 1072.818599
38.830000 1063.643728 1066.489591 1069.061421 1069.387870 1072.617235 1075.301679
38.930000 1065.450737 1068.995326 1071.228368 1071.426748 1074.781157 1077.076718
39.030000 1067.163115 1070.591921 1073.285029 1073.224949 1076.723678 1078.281134
39.140000 1069.436725 1072.509650 1075.568735 1075.593946 1078.896243 1080.070852
39.230000 1071.843149 1074.745214 1077.482159 1077.499588 1080.269178 1082.393847
39.330000 1074.081285 1076.665216 1080.039313 1079.438088 1081.911155 1083.893569
39.440000 1076.546268 1079.172572 1081.981988 1081.704230 1083.878759 1086.622133
39.540000 1079.304717 1081.846875 1083.690685 1083.720390 1085.668118 1087.911570
39.640000 1081.643966 1084.545576 1086.039047 1086.248146 1088.405726 1090.455005
39.740000 1085.686560 1087.341181 1089.308355 1089.317289 1091.721275 1093.353153
39.850000 1088.015397 1090.249471 1092.058843 1092.110649 1094.099262 1096.374200
39.960000 1090.227416 1092.787521 1094.174371 1094.342450 1096.038439 1098.572563
40.070000 1092.117729 1094.792431 1096.156417 1096.295364 1097.847202 1100.478805
40.190000 1093.843277 1096.522112 1098.107507 1098.234419 1100.229094 1102.383040
40.310000 1096.036216 1098.244253 1100.069447 1100.172386 1102.201312 1104.426366
40.410000 1098.580217 1099.965191 1102.117508 1102.073596 1104.181776 1107.994800
40.500000 1099.730005 1101.643392 1103.934829 1104.147597 1106.510409 1110.404845
40.580000 1102.110946 1104.144133 1105.802946 1106.372833 1109.056196 1112.701173
40.720000 1104.895625 1107.000438 1109.514411 1109.655925 1112.789515 1114.953241
40.790000 1106.225820 1108.781329 1111.408493 1111.296360 1114.199169 1115.803429
40.860000 1107.945816 1110.725664 1113.103099 1113.055752 1115.363316 1117.342561
40.930000 1110.339559 1112.727671 1115.099208 1114.855049 1116.824469 1118.997847
41.020000 1113.138275 1115.499310 1117.613504 1117.550072 1119.577603 1121.041560
41.120000 1116.350534 1118.067311 1119.379219 1119.544039 1121.193681 1122.757221
41.220000 1118.020826 1119.734069 1121.138489 1121.237906 1122.946244 1124.548415
41.350000 1119.881880 1121.667052 1123.171447 1123.151056 1124.658990 1126.558432
41.470000 1121.526116 1123.244448 1124.763132 1124.830623 1126.461622 1127.947076
41.600000 1122.963396 1124.963573 1126.561956 1126.533244 1128.311831 1129.881467
41.720000 1124.860886 1126.438288 1128.107506 1128.167856 1129.718744 1132.352476
41.820000 1126.513493 1128.012609 1129.556947 1129.678807 1131.205543 1133.415885
41.920000 1128.299482 1129.587686 1131.232121 1131.281768 1133.132575 1135.342994
42.010000 1129.789556 1131.386395 1133.027217 1133.202768 1134.922320 1138.114742
42.110000 1132.085102 1133.688499 1135.394411 1135.998825 1138.512968 1143.669790
42.190000 1133.859500 1135.861914 1138.624865 1138.693321 1141.598783 1145.632578
42.280000 1135.432778 1138.046615 1141.067909 1141.353024 1144.532417 1148.012129
42.380000 1138.825376 1141.269706 1144.095150 1144.231475 1147.347562 1150.302176
42.480000 1140.560628 1143.631088 1147.053698 1146.718438 1149.460176 1151.973251
42.580000 1142.568924 1146.473951 1150.191040 1149.709490 1152.332184 1154.421399
42.690000 1145.385354 1149.687573 1152.930461 1152.846694 1156.097762 1158.210527
42.790000 1150.104943 1152.836984 1155.464397 1155.844887 1159.178116 1162.138318
42.900000 1152.237269 1156.403950 1158.814189 1159.099693 1162.360056 1165.682027
43.000000 1156.686931 1158.320605 1161.807398 1161.974231 1166.461881 1169.406367
43.090000 1158.229093 1159.689813 1163.810364 1164.140429 1168.763790 1171.467754
43.190000 1160.229736 1162.284454 1166.214635 1166.649649 1171.703456 1174.014337
43.280000 1161.537785 1164.095375 1168.716121 1168.801346 1173.713408 1175.743620
43.380000 1163.644959 1166.792609 1171.342808 1171.166000 1175.608715 1178.002161
43.480000 1165.280673 1169.262766 1174.085552 1173.436609 1177.588065 1180.678735
43.580000 1168.054315 1171.924513 1176.311196 1175.793551 1179.569136 1181.988242
43.690000 1170.728309 1174.474916 1178.867486 1178.520310 1182.038662 1184.608462
43.790000 1173.764594 1177.921684 1181.624875 1181.309421 1184.111711 1186.738235
43.890000 1176.429508 1181.199141 1184.730946 1184.234113 1186.973208 1189.629613
43.990000 1179.008034 1184.772267 1187.868378 1187.515449 1190.584692 1192.532566
44.080000 1185.512838 1187.665273 1191.646128 1191.455734 1194.326554 1200.457492
44.170000 1187.623183 1190.763352 1194.970194 1195.276114 1199.714012 1204.027063
44.260000 1189.425839 1193.654764 1199.358555 1198.946315 1203.837050 1208.156054
44.350000 1192.675173 1196.522891 1203.762573 1202.181964 1206.480450 1210.092803
44.450000 1195.589815 1199.669043 1206.683860 1205.385774 1209.349702 1213.764760
44.550000 1198.713713 1202.631142 1209.062119 1207.940673 1211.788180 1215.236250
44.650000 1201.162169 1206.892929 1211.491775 1210.759267 1214.206216 1217.804508
44.770000 1206.066500 1211.055794 1214.332147 1213.972255 1216.674229 1220.238566
44.880000 1211.184790 1214.675240 1217.315696 1217.304337 1219.968844 1223.522064
44.980000 1216.048427 1218.157056 1220.616569 1220.899705 1223.587653 1227.660921
45.090000 1218.282447 1221.909359 1224.228194 1224.619463 1227.567184 1231.291728
45.180000 1221.694003 1224.549716 1227.391530 1227.589287 1230.565583 1234.038639
45.270000 1224.764091 1227.223167 1229.894627 1230.343622 1234.033931 1237.738863
45.360000 1228.000537 1230.293787 1233.028779 1233.373006 1236.529988 1239.862456
45.450000 1230.274427 1233.996661 1237.132010 1236.955428 1239.630258 1242.560577
45.550000 1235.760445 1239.029248 1241.434202 1241.262525 1243.703633 1244.410497
45.660000 1241.050373 1243.496064 1245.180998 1244.993375 1246.559419 1247.679624
45.770000 1245.288098 1246.415376 1247.767041 1247.840736 1249.379562 1250.655003
45.830000 1246.815989 1247.792541 1249.069143 1249.092016 1250.581787 1251.776592
45.870000 1247.788484 1248.554319 1250.063954 1249.946323 1251.398287 1252.368037
45.900000 1248.444784 1249.050250 1250.515717 1250.532667 1251.899357 1252.821821
45.940000 1249.010257 1249.780473 1251.317572 1251.224286 1252.490051 1253.451448
46.010000 1250.123919 1250.980959 1252.250723 1252.352505 1253.671111 1255.501641
46.110000 1251.439778 1252.480995 1253.950427 1253.950438 1255.338240 1257.166251
46.220000 1253.161316 1254.060516 1255.783824 1255.753311 1257.281824 1258.924940
46.340000 1254.750782 1256.049014 1257.599266 1257.794308 1259.418865 1261.304710
46.430000 1256.076286 1257.623259 1259.261537 1259.361348 1261.024524 1263.073046
46.530000 1258.358364 1259.643673 1261.480177 1261.583202 1263.363760 1265.400718
46.630000 1260.127618 1262.045245 1264.138873 1264.120620 1266.367123 1268.530784
46.730000 1262.836387 1265.256571 1267.053384 1267.224140 1269.420875 1271.622198
46.830000 1265.728094 1267.614237 1270.214592 1270.362924 1272.576760 1275.422184
46.940000 1268.826141 1270.982873 1273.538546 1273.531725 1275.943477 1278.619623
47.040000 1271.616651 1273.524947 1276.807644 1276.402115 1278.722786 1281.105396
47.130000 1272.771798 1275.773116 1278.851727 1278.792160 1281.212100 1283.987175
47.230000 1275.901946 1279.761532 1281.799475 1281.814468 1284.073701 1285.710548
47.330000 1278.925933 1282.602715 1284.772106 1284.505821 1286.613799 1287.962818
47.430000 1283.259905 1285.625001 1287.314440 1287.243964 1288.908586 1290.407844
47.530000 1285.456787 1287.359601 1289.011911 1289.013635 1290.730638 1291.799209
47.630000 1287.099498 1288.972269 1290.753017 1290.604852 1292.242406 1293.455221
47.730000 1288.662970 1290.620528 1292.228459 1292.156011 1293.574905 1295.077796
47.830000 1289.911068 1292.260734 1293.815628 1293.642095 1295.017788 1296.091020
47.900000 1291.081899 1293.411758 1294.860265 1294.707045 1296.043702 1297.258290
48.000000 1292.543149 1294.653338 1296.446353 1296.192762 1297.535520 1298.595533
48.060000 1293.853785 1295.577357 1297.383662 1297.140729 1298.433550 1299.690611
48.130000 1295.263493 1297.040520 1298.443164 1298.336836 1299.685682 1301.519580
48.200000 1295.914240 1298.030316 1299.450056 1299.377476 1300.856797 1302.210934
48.310000 1298.005251 1299.418661 1301.106704 1300.980095 1302.750577 1304.250928
48.430000 1299.774342 1301.338993 1303.054748 1303.009267 1304.833619 1306.990165
48.505000 1301.031163 1303.071198 1304.559091 1304.673268 1306.159415 1309.764522
48.580000 1302.193394 1304.363177 1306.087797 1306.335690 1308.230305 1311.303185
48.655000 1303.371039 1305.653477 1307.929985 1308.108311 1310.722659 1312.962846
48.730000 1305.059865 1307.372004 1309.792321 1309.727130 1312.452091 1314.730226
48.860000 1307.990141 1310.231877 1312.791067 1312.772871 1315.421357 1318.299613
48.950000 1310.557872 1312.728406 1315.007464 1315.219433 1317.805287 1320.398002
49.040000 1312.839075 1315.342363 1317.863286 1317.775251 1320.040024 1322.660316
49.100000 1314.863743 1317.017984 1319.513684 1319.533950 1321.643777 1324.383987
49.180000 1317.452399 1320.113832 1321.982245 1322.006892 1324.207223 1326.880347
49.240000 1319.935526 1322.390500 1324.106874 1324.286097 1326.395983 1328.603903
49.290000 1321.854594 1323.661710 1325.891830 1325.897091 1328.013779 1330.623191
49.360000 1323.530721 1325.281007 1327.870384 1327.985315 1330.535150 1332.558653
49.430000 1325.405569 1327.500908 1329.909315 1329.969025 1332.416680 1334.433583
49.490000 1326.694131 1328.594790 1331.602184 1331.365878 1333.672643 1335.986180
49.580000 1328.166434 1330.218435 1333.255004 1333.315404 1335.996473 1338.334835
49.680000 1329.699263 1332.087295 1335.577943 1335.286371 1338.472830 1339.575310
49.790000 1331.516186 1334.769513 1337.657718 1337.507138 1340.385885 1341.887536
49.920000 1334.593071 1337.925780 1340.659408 1340.422898 1343.062067 1345.304279
50.050000 1337.220476 1341.270111 1343.372320 1343.311822 1345.800574 1346.950689
50.150000 1341.089324 1343.029987 1345.922615 1345.776131 1347.860301 1349.937046
50.260000 1344.227787 1347.213211 1349.094361 1348.955835 1351.015210 1353.577286
50.360000 1346.880461 1349.733761 1351.557775 1351.550504 1353.621570 1354.864046
50.440000 1349.367528 1351.835129 1353.501270 1353.441554 1355.286365 1357.095968
50.550000 1351.271889 1353.675347 1355.889061 1355.702418 1357.673437 1359.246997
50.650000 1354.664592 1356.231718 1358.052717 1358.050158 1359.849319 1361.651425
50.760000 1357.783958 1359.039425 1360.739049 1360.702350 1362.304891 1363.769542
50.900000 1361.186116 1362.328256 1364.249514 1364.075761 1365.656504 1368.080757
51.040000 1363.731461 1365.378084 1367.425962 1367.410473 1369.299749 1371.391992
51.140000 1365.930294 1367.903372 1369.724069 1369.838022 1371.972320 1374.442168
51.240000 1367.683939 1369.966013 1372.125845 1372.074900 1374.347642 1376.428644
51.320000 1369.649790 1371.631624 1373.844998 1373.888511 1375.939849 1378.724755
51.400000 1371.324376 1373.286349 1375.805345 1375.680814 1378.016651 1380.769841
51.480000 1372.798238 1374.985709 1377.369054 1377.488985 1380.262267 1382.744985
51.550000 1374.349918 1376.722945 1379.152155 1379.286680 1381.943849 1385.078203
51.620000 1375.882005 1378.664216 1380.944806 1381.125030 1383.468096 1386.753059
51.710000 1380.565417 1382.047762 1384.384587 1384.487595 1386.771820 1389.791367
51.790000 1382.787928 1384.897212 1387.227771 1387.280429 1389.725621 1391.993740
51.880000 1386.123226 1389.038156 1390.576797 1390.922573 1393.178936 1395.980476
51.980000 1390.502064 1392.862267 1394.330828 1394.703942 1397.111429 1398.746205
52.070000 1394.150429 1395.533145 1397.539829 1397.551208 1399.697714 1400.881659
52.180000 1397.998808 1399.165662 1400.959310 1400.856837 1402.396447 1403.921774
52.280000 1400.831825 1402.263895 1404.049453 1403.885635 1405.263885 1407.063293
52.390000 1403.750521 1404.942387 1406.816952 1406.673828 1408.096914 1409.361031
52.510000 1405.886165 1407.680889 1409.209751 1409.339245 1411.049117 1413.022545
52.630000 1408.734791 1410.360796 1411.844595 1412.090842 1414.090071 1416.771454
52.750000 1411.476269 1413.120502 1414.792720 1414.973706 1416.847252 1419.347346
52.850000 1413.882729 1415.987071 1418.002449 1418.196042 1420.516654 1423.583648
52.950000 1416.749599 1419.552570 1422.008869 1422.046289 1424.415939 1427.295647
53.030000 1420.590979 1423.169455 1425.489628 1425.443976 1427.854809 1429.862038
53.110000 1424.546461 1427.457834 1429.475184 1429.618803 1431.766879 1435.485008
53.190000 1428.352119 1430.375625 1432.306838 1432.417546 1434.503315 1438.304477
53.280000 1431.163080 1432.524841 1434.943697 1435.225964 1437.981030 1441.151898
53.370000 1433.191331 1435.115181 1437.592479 1437.892741 1440.801953 1443.153479
53.470000 1434.744976 1437.308727 1440.407788 1440.444733 1443.284632 1446.853592
53.570000 1437.702498 1440.391010 1443.215434 1443.047883 1445.651722 1448.079366
53.680000 1440.736232 1443.280928 1446.046902 1446.268469 1449.116081 1450.781034
53.790000 1445.204984 1448.826111 1450.771151 1450.572981 1452.486395 1454.824933
53.880000 1448.851578 1452.281990 1454.171759 1453.947924 1455.763216 1457.295017
53.980000 1453.444042 1455.435009 1457.255528 1457.363478 1459.226951 1460.452397
54.070000 1456.184846 1457.817800 1459.603575 1459.686889 1461.470595 1463.501905
54.160000 1458.688479 1460.566832 1461.916111 1462.118596 1463.699065 1465.893230
54.260000 1461.367273 1463.235676 1464.610265 1464.826338 1466.591904 1468.450033
54.370000 1464.669555 1465.813253 1467.597736 1467.693560 1469.470943 1471.982829
54.470000 1466.606588 1468.256878 1470.004395 1470.188120 1472.306898 1473.643508
54.580000 1469.477308 1470.765349 1472.840315 1472.727024 1474.557299 1476.719690
54.680000 1471.653812 1473.637149 1475.316387 1475.425376 1477.656366 1480.042235
54.780000 1473.686983 1476.219052 1477.977527 1478.139287 1480.797952 1482.291363
54.880000 1476.606903 1478.777494 1480.859625 1481.253321 1483.919638 1486.507458
54.970000 1479.546593 1480.967681 1483.296879 1483.853047 1487.007798 1489.511951
55.070000 1482.534788 1484.479348 1487.794892 1487.632692 1490.655187 1494.035692
55.170000 1487.156227 1489.893424 1493.000850 1492.987358 1495.901122 1500.071447
55.280000 1494.522217 1495.780215 1498.683116 1498.745446 1501.485918 1504.887229
55.380000 1497.018535 1500.484292 1503.269778 1503.462851 1506.864306 1508.976732
55.490000 1503.038580 1505.883823 1509.011539 1508.904527 1511.790886 1514.647361
55.590000 1506.629264 1511.806543 1514.213539 1514.046907 1517.232707 1519.440497
55.680000 1512.429138 1515.108559 1517.933579 1517.738977 1520.361325 1522.096396
55.780000 1515.928557 1518.510961 1521.688149 1521.419565 1524.293743 1525.193549
55.880000 1519.716601 1522.619245 1525.340082 1525.265195 1527.618298 1531.387148
55.975000 1522.687367 1526.011907 1528.300763 1528.518719 1531.043023 1534.550719
56.070000 1526.714330 1529.005040 1531.376921 1531.783927 1534.758354 1539.298550
56.170000 1530.640007 1533.140252 1535.435632 1535.570475 1538.651340 1541.475856
56.270000 1533.677923 1536.309637 1539.074983 1539.020106 1542.055185 1544.625162
56.360000 1536.163991 1539.657372 1542.105853 1542.289313 1545.015009 1547.378593
56.470000 1541.518056 1543.827901 1547.070780 1547.041892 1549.604099 1553.670195
56.590000 1544.497440 1547.775112 1551.143182 1551.165209 1554.227760 1559.357319
56.710000 1548.275855 1550.918901 1554.060592 1554.491572 1557.834374 1562.275789
56.840000 1551.966367 1554.564369 1557.932389 1558.183696 1561.730474 1565.717693
56.980000 1554.584562 1558.161548 1562.074234 1561.789577 1565.191856 1568.149534
57.120000 1558.650285 1563.287596 1565.998363 1565.851650 1569.179370 1571.795613
57.240000 1563.129212 1566.409515 1569.085760 1569.170011 1571.897297 1575.216464
57.360000 1568.481945 1570.470068 1573.152816 1573.063640 1575.768404 1578.479123
57.430000 1570.953697 1572.470008 1575.372613 1575.296888 1578.174841 1581.450649
57.480000 1572.394951 1574.213569 1576.910829 1577.079162 1580.091248 1583.032938
57.580000 1574.805059 1576.732843 1579.931208 1579.920662 1583.238207 1586.447711
57.650000 1576.588309 1579.125245 1582.117413 1582.232089 1585.662935 1589.841175
57.680000 1577.192945 1580.068507 1583.360890 1583.309329 1586.496578 1590.387822
57.760000 1579.925896 1583.174876 1586.512530 1586.291033 1589.165155 1592.858296
57.780000 1580.297882 1583.696335 1587.219938 1586.935490 1589.850719 1593.401517
57.920000 1583.646518 1587.871261 1590.813796 1591.035100 1594.447463 1597.024353
57.970000 1585.095311 1589.292279 1592.741567 1592.647659 1595.921480 1600.572295
57.990000 1586.203487 1590.195771 1593.671809 1593.376182 1596.426137 1601.162888
58.080000 1590.202284 1592.937268 1596.264003 1596.314298 1599.329809 1602.890726
58.180000 1593.606047 1596.168739 1599.387191 1599.414736 1602.100208 1606.021679
58.210000 1594.492929 1596.940685 1600.149561 1600.369278 1603.350231 1607.574737
58.250000 1595.648068 1598.527076 1601.604433 1601.608085 1604.226710 1608.341920
58.280000 1596.430085 1599.878277 1602.689459 1602.563915 1604.885804 1609.012847
58.310000 1596.952420 1601.222958 1603.888310 1603.711061 1606.685038 1609.735815
58.360000 1598.514316 1602.454303 1605.357782 1605.366013 1608.432104 1611.600140
58.380000 1599.416611 1603.206876 1605.987574 1606.014964 1609.194710 1612.338902
58.430000 1601.262455 1604.674337 1607.392041 1607.495913 1610.727017 1614.165642
58.480000 1603.398872 1606.300894 1608.891052 1609.234047 1612.505244 1615.650620
58.530000 1604.677893 1607.873235 1610.374193 1610.924992 1614.088715 1618.677252
58.560000 1606.738108 1609.071287 1611.210125 1611.946410 1615.199527 1619.883901
58.590000 1607.938170 1609.855887 1612.264527 1612.924510 1616.261602 1620.493498
58.680000 1610.233946 1612.400891 1615.620987 1616.146835 1619.937608 1624.772131
