depth(m) lower_95(kyr) lower_68(kyr) median(kyr) mean(kyr) upper_68(kyr) upper_95(kyr)
166.190000 1494.787218 1497.899767 1500.731364 1500.404398 1502.893836 1504.612042
166.290000 1496.717481 1499.443594 1502.108772 1501.836497 1504.122388 1505.945760
166.390000 1498.581708 1501.014858 1503.467165 1503.302872 1505.539381 1507.299724
166.490000 1500.075254 1502.371155 1504.747221 1504.618122 1506.901815 1508.483141
166.620000 1502.196688 1504.174003 1506.514329 1506.521192 1508.865508 1510.545227
166.690000 1503.361103 1505.510919 1507.969074 1507.807131 1510.152317 1511.777871
166.785000 1505.261091 1507.895312 1510.236595 1510.072215 1512.177656 1514.036497
166.885000 1508.878804 1511.187035 1513.075361 1513.014370 1514.857178 1516.992390
166.985000 1511.933206 1514.028897 1515.703636 1515.782805 1517.627518 1519.681304
167.085000 1514.558511 1516.313285 1517.991289 1518.084121 1519.946506 1522.095230
167.185000 1516.806107 1518.306581 1520.113337 1520.240828 1522.155776 1524.447744
167.285000 1518.837204 1520.308366 1522.333110 1522.379129 1524.456437 1526.370267
167.385000 1520.781315 1522.553308 1524.627929 1524.605453 1526.596040 1528.211541
167.485000 1523.048324 1524.742063 1526.710648 1526.622416 1528.452644 1529.895259
167.585000 1524.920920 1526.608393 1528.474316 1528.348666 1530.021845 1531.360692
167.685000 1526.335896 1528.294249 1529.879798 1529.760634 1531.242613 1532.241155
167.785000 1527.745157 1529.703095 1531.070547 1530.963435 1532.252362 1533.209159
167.885000 1529.191186 1530.850759 1532.063062 1531.956433 1533.065965 1534.096729
167.985000 1530.564650 1531.781629 1532.929395 1532.828759 1533.824357 1534.743891
168.085000 1531.547358 1532.649425 1533.623994 1533.581247 1534.514638 1535.327245
168.185000 1532.293088 1533.364871 1534.285028 1534.260778 1535.176405 1535.988072
168.285000 1533.070434 1534.018086 1534.905423 1534.903899 1535.817272 1536.669864
168.385000 1533.752045 1534.639277 1535.514441 1535.525469 1536.409890 1537.403419
168.485000 1534.379678 1535.227576 1536.106142 1536.133381 1537.029242 1538.004937
168.585000 1535.023129 1535.840435 1536.728592 1536.750298 1537.670531 1538.612144
168.685000 1535.589172 1536.451339 1537.361260 1537.368583 1538.273901 1539.303877
168.785000 1536.189896 1537.130277 1537.987531 1538.028739 1538.992302 1539.819182
168.885000 1536.899473 1537.744041 1538.732376 1538.738452 1539.709852 1540.609175
168.985000 1537.505041 1538.498743 1539.544736 1539.506261 1540.464601 1541.403470
169.085000 1538.298185 1539.338209 1540.358024 1540.326804 1541.283253 1542.254454
169.185000 1539.170288 1540.217397 1541.251754 1541.261296 1542.302991 1543.387457
169.285000 1540.136570 1541.239066 1542.231851 1542.289107 1543.418985 1544.648056
169.385000 1541.156932 1542.185578 1543.312134 1543.386618 1544.584457 1546.080944
169.485000 1542.110671 1543.217393 1544.430908 1544.528372 1545.870240 1547.387217
169.585000 1543.374088 1544.529355 1545.871133 1545.931124 1547.340471 1548.768163
169.685000 1544.703835 1545.920902 1547.410920 1547.434976 1548.897675 1550.366910
169.785000 1546.122059 1547.541797 1548.914947 1548.972541 1550.490514 1551.896889
169.885000 1547.487266 1548.828764 1550.428795 1550.463738 1552.010366 1553.606541
169.985000 1548.888482 1550.190538 1551.794340 1551.842214 1553.525084 1555.250672
170.085000 1550.067650 1551.516741 1553.115535 1553.172787 1554.859613 1556.572501
170.185000 1551.231315 1552.742548 1554.542065 1554.495695 1556.126654 1557.802252
170.285000 1552.446912 1554.075192 1555.851378 1555.831383 1557.607927 1559.034328
170.385000 1553.582346 1555.418007 1557.142279 1557.132627 1558.915160 1560.391567
170.485000 1554.884947 1556.860356 1558.574600 1558.564738 1560.280907 1561.780623
170.585000 1556.206617 1558.194412 1560.091173 1560.064220 1561.850202 1563.472555
170.685000 1557.669126 1559.709291 1561.633467 1561.545214 1563.299255 1564.804931
170.785000 1559.376280 1561.253594 1563.163235 1563.017840 1564.787351 1566.199466
170.885000 1561.084387 1562.732894 1564.666518 1564.523764 1566.202234 1567.594487
170.985000 1562.612695 1564.544000 1566.223740 1566.162119 1567.786996 1569.106393
171.085000 1564.449659 1566.300978 1567.950009 1567.877042 1569.384081 1571.068670
171.185000 1567.022050 1568.566960 1570.016546 1570.056800 1571.567082 1573.463710
171.285000 1569.150485 1570.602522 1572.057284 1572.164709 1573.766466 1575.679557
171.385000 1571.002447 1572.495419 1574.118984 1574.170759 1575.833617 1577.537759
171.485000 1572.805704 1574.434627 1576.167705 1576.193458 1577.970130 1579.498355
171.585000 1574.811487 1576.526864 1578.270266 1578.268801 1579.977563 1581.564289
171.685000 1577.062567 1578.955573 1580.663677 1580.752999 1582.584896 1585.184911
171.785000 1579.662222 1581.363508 1583.153291 1583.545242 1585.868270 1589.532644
171.885000 1582.260122 1584.008129 1586.124037 1586.626499 1589.451581 1592.715621
171.985000 1584.875105 1586.854353 1589.546849 1589.741329 1592.916888 1595.554781
172.085000 1587.305383 1589.814402 1592.921116 1592.744100 1595.713112 1597.974034
172.185000 1589.889287 1593.184014 1595.843776 1595.618926 1598.042575 1600.045919
172.285000 1593.526771 1596.372805 1598.515714 1598.392691 1600.476783 1602.430081
172.385000 1596.478689 1598.905250 1600.777056 1600.731554 1602.596887 1604.755904
172.485000 1598.913900 1601.022047 1602.864848 1602.846264 1604.758196 1607.048110
172.585000 1600.897375 1602.766745 1604.849935 1604.934539 1607.120120 1609.362609
172.685000 1602.822503 1604.822394 1607.146941 1607.168833 1609.551315 1611.624854
172.785000 1605.293498 1607.242096 1609.654597 1609.610910 1611.961951 1613.848144
172.885000 1607.408706 1609.661640 1611.968390 1611.912181 1614.143783 1615.920011
172.985000 1609.704470 1611.731634 1613.965553 1613.901475 1616.077732 1617.603612
173.085000 1611.873516 1613.712228 1615.709266 1615.708802 1617.761698 1619.351523
173.185000 1613.758081 1615.432066 1617.455934 1617.365423 1619.272928 1620.878089
173.285000 1615.438237 1617.042945 1619.021568 1619.008134 1620.855637 1622.525445
173.385000 1617.180598 1618.713977 1620.509584 1620.600573 1622.362113 1624.448974
173.485000 1618.617284 1620.312599 1622.096486 1622.120517 1623.916921 1625.857903
173.585000 1619.927661 1621.680167 1623.552126 1623.604795 1625.490930 1627.558583
173.685000 1621.384304 1623.079063 1624.971970 1625.077517 1627.086472 1629.318099
173.785000 1622.754175 1624.533417 1626.446860 1626.540626 1628.493065 1631.019912
173.885000 1624.071192 1625.939588 1627.993640 1628.060363 1630.084719 1632.649650
173.985000 1625.455440 1627.485456 1629.604845 1629.705249 1632.021574 1634.539848
174.085000 1627.121491 1629.183054 1631.511090 1631.574554 1633.912731 1636.503782
174.185000 1628.774430 1631.061712 1633.444889 1633.491887 1635.788324 1638.533297
174.285000 1630.522086 1632.740883 1635.455145 1635.458039 1637.915279 1640.756137
174.385000 1632.368581 1634.919951 1637.653846 1637.618723 1640.336216 1642.890762
174.485000 1634.476113 1637.318366 1640.008720 1639.993430 1642.629264 1645.224284
174.585000 1636.430966 1639.614506 1642.217070 1642.182659 1644.780674 1647.118975
174.685000 1638.743953 1641.787095 1644.353489 1644.281808 1646.846905 1649.033635
174.785000 1640.979306 1644.019969 1646.424958 1646.262194 1648.724661 1650.446927
174.885000 1643.731724 1646.081828 1648.316638 1648.218294 1650.426339 1652.282257
174.985000 1645.887613 1647.929841 1650.116846 1650.052056 1652.108374 1653.928564
175.085000 1647.839072 1649.696047 1651.719588 1651.673281 1653.531878 1655.296394
175.185000 1649.603028 1651.280226 1653.126938 1653.124781 1654.866643 1656.668319
175.285000 1651.055763 1652.689097 1654.434794 1654.404309 1656.120337 1657.712588
175.385000 1652.476690 1654.021363 1655.634835 1655.645468 1657.306046 1658.781838
175.485000 1653.600471 1655.258043 1656.737248 1656.782917 1658.397250 1659.754224
175.585000 1654.956439 1656.307434 1657.844100 1657.902139 1659.574788 1660.891414
175.685000 1655.973178 1657.362634 1658.944419 1658.966357 1660.541739 1662.026835
175.785000 1657.099864 1658.460219 1660.003488 1660.006857 1661.542064 1662.872173
175.885000 1658.077892 1659.474903 1661.056411 1661.023021 1662.547197 1663.780595
175.985000 1659.171881 1660.620442 1662.092716 1662.073303 1663.575303 1664.743314
176.085000 1660.130359 1661.619464 1663.184523 1663.142106 1664.677653 1665.989293
176.185000 1661.156712 1662.619709 1664.264758 1664.236808 1665.742584 1667.214158
176.285000 1662.364094 1663.902676 1665.494687 1665.442537 1666.991014 1668.601042
176.385000 1663.420735 1665.285375 1666.828147 1666.861832 1668.500323 1670.314386
176.485000 1665.531602 1667.135796 1668.695514 1668.800799 1670.571741 1672.461456
176.585000 1667.693702 1669.120052 1670.863781 1670.922299 1672.716507 1674.407059
176.685000 1669.363722 1670.889622 1672.873456 1672.861838 1674.754771 1676.640924
176.785000 1671.128252 1672.730888 1674.601125 1674.613079 1676.421506 1678.382891
176.885000 1672.660736 1674.389456 1676.228937 1676.196903 1677.958806 1679.931737
176.985000 1674.183787 1675.875608 1677.587124 1677.634432 1679.350131 1681.334676
177.085000 1675.539952 1677.292635 1678.886237 1679.002969 1680.768711 1682.691738
177.185000 1676.887207 1678.544196 1680.197115 1680.327403 1682.115018 1684.140361
177.285000 1678.325363 1679.862062 1681.585553 1681.692146 1683.625513 1685.639910
177.385000 1679.718146 1681.246993 1683.121207 1683.211874 1685.173373 1687.381318
177.485000 1681.167726 1682.945147 1684.973707 1685.066688 1687.167090 1689.964507
177.585000 1683.099958 1685.081828 1687.140692 1687.266054 1689.431405 1692.021782
177.685000 1684.760905 1686.936580 1689.265105 1689.363173 1691.866552 1694.043695
177.785000 1686.632044 1688.967426 1691.459177 1691.453357 1694.021385 1695.828692
177.885000 1688.636433 1691.254714 1693.731032 1693.688805 1696.127412 1698.034633
177.985000 1691.274123 1693.728214 1696.174452 1696.043634 1698.159032 1700.192305
178.085000 1694.754487 1696.828408 1698.938911 1698.811189 1700.737184 1702.275923
178.185000 1697.173789 1699.123253 1700.919538 1700.832074 1702.608881 1704.257129
178.285000 1699.101376 1700.889567 1702.588743 1702.532798 1704.126645 1705.817842
178.385000 1700.746316 1702.517387 1704.110271 1704.081199 1705.631858 1707.189712
178.485000 1702.191729 1704.118075 1705.729939 1705.669152 1707.217042 1708.770485
178.585000 1704.142530 1705.768750 1707.284341 1707.253706 1708.755065 1710.177548
178.685000 1705.857207 1707.353132 1708.917658 1708.878517 1710.338410 1711.861662
178.785000 1707.536266 1708.941057 1710.496066 1710.502138 1712.054735 1713.742820
178.885000 1708.972794 1710.377680 1711.870529 1711.941994 1713.519882 1715.151727
178.985000 1710.624114 1711.903154 1713.431626 1713.484128 1714.999930 1716.755004
179.085000 1712.157801 1713.566041 1715.020851 1715.061118 1716.578710 1718.091134
179.185000 1713.730376 1715.105756 1716.480260 1716.546206 1717.990301 1719.409921
179.285000 1715.213737 1716.404528 1717.799421 1717.843596 1719.350107 1720.759127
179.385000 1716.365881 1717.510944 1719.032290 1719.066566 1720.537652 1722.150384
179.485000 1717.478883 1718.758806 1720.311871 1720.368485 1721.909678 1723.985054
179.585000 1718.572033 1719.976816 1721.689833 1721.714666 1723.319034 1725.452659
179.685000 1719.846235 1721.341180 1723.194811 1723.236271 1725.031280 1726.970622
179.785000 1721.060182 1722.815058 1724.734503 1724.757078 1726.712168 1728.495158
179.885000 1722.228996 1724.188415 1726.196657 1726.189868 1728.172705 1730.075039
179.985000 1723.894678 1725.573015 1727.602612 1727.585343 1729.551060 1731.556318
180.085000 1725.304579 1727.054828 1729.025467 1729.052421 1731.040666 1732.982488
180.185000 1726.725713 1728.566137 1730.529841 1730.527962 1732.618610 1734.623039
180.285000 1728.101422 1730.136642 1732.000208 1732.086748 1734.158070 1736.154463
180.385000 1729.965335 1731.695667 1733.538287 1733.716518 1735.877328 1737.764869
180.485000 1731.679412 1733.472654 1735.271859 1735.417614 1737.543752 1739.615418
180.585000 1733.201283 1735.097718 1737.040630 1737.096876 1739.099260 1741.447049
180.685000 1734.740997 1736.755045 1738.824534 1738.867922 1741.000432 1743.149908
180.785000 1736.514467 1738.624535 1740.809097 1740.782235 1742.992439 1745.170682
180.885000 1738.470961 1740.764868 1742.903469 1742.850624 1745.058038 1746.962595
180.985000 1740.491526 1742.861215 1744.896353 1744.865677 1746.800278 1748.892109
181.085000 1742.619620 1744.699610 1746.775729 1746.642653 1748.681635 1750.316284
181.185000 1744.523997 1746.418728 1748.365978 1748.319952 1750.239891 1751.827361
181.285000 1745.910199 1748.181607 1750.033152 1749.971694 1751.722998 1753.636043
181.385000 1747.896546 1749.891023 1751.750541 1751.769970 1753.615394 1755.501885
181.485000 1749.568293 1751.561625 1753.445427 1753.501706 1755.476050 1757.628473
181.585000 1751.154316 1753.140860 1755.023749 1755.109836 1757.239965 1759.110839
181.685000 1752.704562 1754.523461 1756.541939 1756.570929 1758.747078 1760.500741
181.785000 1754.207588 1756.009159 1758.076488 1758.032534 1760.044681 1762.132562
181.885000 1755.914597 1757.600673 1759.568282 1759.612430 1761.660338 1763.743315
181.985000 1757.431489 1759.245295 1761.189870 1761.229762 1763.104317 1764.958739
182.085000 1758.732277 1760.879441 1762.726227 1762.730385 1764.671766 1766.521292
182.185000 1760.228445 1762.245818 1764.153163 1764.132734 1766.105370 1767.801034
182.285000 1761.531074 1763.599909 1765.521575 1765.517047 1767.495403 1769.473097
182.385000 1763.114814 1764.913094 1766.922697 1766.921546 1768.986073 1770.940776
182.485000 1764.483793 1766.274569 1768.409734 1768.424722 1770.558472 1772.678980
182.585000 1765.942662 1767.824690 1769.982710 1770.012621 1772.079678 1774.405273
182.685000 1767.454698 1769.349506 1771.736252 1771.769534 1774.061906 1776.482922
182.785000 1769.118639 1771.274079 1773.714046 1773.742856 1776.189453 1778.931297
182.885000 1770.743377 1773.252453 1775.892719 1775.895079 1778.508283 1780.887682
182.985000 1772.958736 1775.332585 1778.329593 1778.211620 1780.878642 1783.146509
183.085000 1775.156511 1777.952099 1780.823869 1780.643159 1783.281737 1785.198757
183.185000 1777.463823 1780.534403 1783.109734 1782.938414 1785.477052 1787.199379
183.285000 1780.061402 1782.934525 1785.307005 1785.088641 1787.254610 1788.666892
183.385000 1782.852121 1785.410767 1787.330472 1787.149138 1788.922651 1790.100374
183.485000 1785.670768 1787.482942 1789.234252 1789.040628 1790.448797 1791.634459
183.585000 1788.226223 1789.683687 1790.982790 1790.845420 1791.943053 1792.919803
183.685000 1790.826973 1791.582371 1792.414423 1792.430574 1793.240814 1794.101677
183.785000 1791.775756 1792.648905 1793.542706 1793.576369 1794.496481 1795.469074
183.885000 1792.754755 1793.604447 1794.575801 1794.629495 1795.631682 1796.891407
183.985000 1793.671014 1794.582131 1795.541478 1795.648481 1796.716010 1797.950798
184.085000 1794.826420 1795.662992 1796.762564 1796.819387 1797.987378 1799.084721
184.185000 1795.848109 1797.004955 1798.131774 1798.144318 1799.329588 1800.380480
184.285000 1797.442659 1798.527180 1799.659693 1799.636699 1800.749727 1801.731895
184.385000 1798.709565 1799.745640 1800.794508 1800.796251 1801.813922 1802.934028
184.485000 1799.900351 1800.821826 1801.793591 1801.840905 1802.840987 1804.086367
184.585000 1800.777263 1801.633266 1802.651220 1802.705378 1803.729947 1805.007950
184.685000 1801.506351 1802.400210 1803.485891 1803.523725 1804.598725 1806.015459
184.785000 1802.279979 1803.071007 1804.171419 1804.278159 1805.498614 1806.913199
184.885000 1802.940485 1803.720070 1804.889430 1804.995141 1806.233565 1807.841642
184.985000 1803.481654 1804.390171 1805.590017 1805.714402 1806.981535 1808.509025
185.126667 1804.258441 1805.311319 1806.601403 1806.697986 1808.076686 1809.527318
185.268333 1805.126900 1806.194554 1807.619305 1807.696322 1809.155932 1810.784091
185.410000 1805.861581 1807.116707 1808.673311 1808.750240 1810.331143 1811.975631
185.551667 1806.827105 1808.050348 1809.697918 1809.788757 1811.486897 1813.401810
185.693333 1807.700345 1809.052180 1810.703947 1810.819671 1812.594337 1814.351079
185.835000 1808.559825 1810.071313 1811.781475 1811.884763 1813.762271 1815.563639
185.976667 1809.564939 1811.155285 1812.862798 1812.954120 1814.874756 1816.554543
186.118333 1810.614265 1812.132792 1813.984884 1814.038524 1815.911826 1817.503892
186.260000 1811.719249 1813.204360 1815.117074 1815.139953 1817.036829 1818.551779
186.401667 1812.573882 1814.338996 1816.257449 1816.250666 1818.134239 1819.953017
186.543333 1813.657126 1815.506089 1817.361175 1817.351135 1819.214371 1820.989180
186.685000 1814.787776 1816.597679 1818.504493 1818.466189 1820.291090 1821.964818
186.826667 1815.742256 1817.774560 1819.625996 1819.604304 1821.487241 1823.150004
186.968333 1816.929264 1818.922294 1820.677964 1820.687330 1822.460152 1824.085580
187.110000 1818.047417 1820.146469 1821.805645 1821.829209 1823.722384 1825.196466
187.251667 1819.101009 1821.209685 1822.991780 1823.044940 1824.964609 1826.818904
187.393333 1820.568157 1822.567526 1824.294520 1824.326621 1826.264772 1828.299733
187.535000 1821.839385 1823.766065 1825.586043 1825.633519 1827.571014 1829.937050
187.635000 1822.941669 1824.742350 1826.531889 1826.673187 1828.653796 1831.014904
187.735000 1823.887375 1825.788418 1827.652249 1827.805491 1829.825788 1832.369685
187.835000 1825.053796 1826.817487 1828.794063 1828.938428 1831.024506 1834.049860
187.935000 1825.971799 1827.910804 1829.997012 1830.225155 1832.524513 1835.517424
188.035000 1827.013894 1829.216470 1831.395744 1831.651890 1834.166825 1837.396045
188.135000 1828.298577 1830.487817 1832.966680 1833.257783 1836.187764 1839.894723
188.235000 1829.434843 1831.963381 1834.541577 1834.960853 1838.255868 1841.828932
188.335000 1830.716793 1833.447103 1836.470945 1836.800580 1840.314059 1843.825190
188.475000 1833.088090 1835.915541 1839.404710 1839.444259 1842.905679 1845.920255
188.615000 1835.808369 1838.918216 1842.340102 1842.127670 1845.349630 1847.893947
188.755000 1838.278974 1841.919327 1845.015666 1844.801865 1847.634246 1849.806945
188.895000 1841.312605 1844.849018 1847.657184 1847.383792 1849.832412 1851.640275
189.035000 1844.824631 1847.694689 1850.059946 1849.829485 1851.982217 1853.786064
189.135000 1847.079479 1849.541633 1851.612016 1851.528792 1853.614300 1855.411282
189.235000 1849.048007 1851.250734 1853.158398 1853.194180 1855.240937 1857.101140
189.335000 1851.102371 1853.025754 1855.001278 1855.017916 1857.042959 1858.852514
189.435000 1853.312521 1855.094423 1857.168732 1857.174166 1859.128984 1861.276308
189.535000 1855.639637 1857.276749 1859.397321 1859.372641 1861.391535 1863.332048
189.635000 1857.926733 1859.420392 1861.520171 1861.544404 1863.660396 1865.374856
189.735000 1859.749069 1861.605535 1863.454326 1863.549181 1865.642372 1867.444426
189.835000 1861.615892 1863.422745 1865.229574 1865.378548 1867.399997 1869.445473
189.935000 1863.438053 1864.934003 1867.008242 1867.115317 1869.252595 1871.318173
190.035000 1864.920398 1866.618964 1868.757047 1868.888459 1871.196407 1873.455147
190.135000 1866.386984 1868.513163 1870.906118 1871.035933 1873.468627 1876.074099
190.235000 1868.166299 1870.507551 1873.201089 1873.508540 1876.389961 1879.611427
190.335000 1870.110116 1872.866249 1876.304295 1876.715222 1879.907178 1886.544678
190.435000 1873.395707 1876.525928 1880.953992 1881.759240 1886.439126 1895.904974
190.535000 1878.219512 1883.875313 1889.583121 1889.512770 1894.808448 1902.122109
190.635000 1883.857385 1893.138433 1897.377670 1897.705728 1903.160358 1910.255391
190.685000 1887.736787 1896.652398 1900.730114 1901.349227 1907.628873 1912.887351
190.785000 1896.272557 1901.804464 1907.136890 1907.121599 1912.660368 1916.812429
190.885000 1903.576032 1907.962880 1912.098939 1912.143670 1916.554477 1920.042048
