depth(m) lower_95(kyr) lower_68(kyr) median(kyr) mean(kyr) upper_68(kyr) upper_95(kyr)
62.500000 1408.329050 1409.164587 1410.056588 1410.091698 1411.065948 1411.976345
62.600000 1410.345007 1411.461399 1412.690506 1412.918932 1414.356445 1416.912643
62.700000 1412.498635 1413.866543 1415.500988 1415.813191 1417.927213 1420.520317
62.800000 1415.102267 1416.867592 1419.225940 1419.295875 1421.737565 1423.773737
62.900000 1418.494651 1421.122573 1423.427475 1423.296949 1425.436088 1427.391024
63.000000 1423.023311 1425.352287 1427.240458 1427.285477 1429.288018 1431.696147
63.100000 1426.643459 1428.637288 1430.534630 1430.637230 1432.744836 1434.864604
63.200000 1428.983699 1430.798002 1433.139676 1433.127941 1435.366567 1437.500884
63.300000 1430.830546 1432.926379 1435.316910 1435.356668 1437.704062 1439.885839
63.400000 1433.212989 1435.256933 1437.731346 1437.692752 1440.128896 1442.142132
63.500000 1435.512066 1437.615944 1440.095507 1440.051205 1442.411353 1444.488278
63.600000 1438.499453 1440.413740 1442.655588 1442.600643 1444.684802 1446.360683
63.700000 1441.340249 1443.800185 1445.763060 1445.595687 1447.423070 1448.784471
63.800000 1446.083069 1448.670065 1451.034166 1450.802930 1452.865617 1454.693508
63.900000 1452.820427 1454.472446 1456.428545 1456.439370 1458.345361 1460.419940
64.000000 1455.143391 1457.408198 1459.734185 1459.645793 1461.807641 1463.320490
64.100000 1457.696417 1460.335369 1462.453220 1462.286093 1464.391870 1465.971617
64.200000 1460.759931 1463.035926 1465.072048 1464.949933 1466.719630 1468.755744
64.300000 1464.056305 1466.149741 1468.031498 1468.021974 1469.889071 1472.059507
64.400000 1466.734685 1468.806161 1470.870007 1470.986300 1473.267987 1475.828246
64.500000 1469.413640 1471.315605 1473.468346 1473.702582 1476.219491 1479.333385
64.600000 1471.968916 1473.800460 1476.221427 1476.424459 1479.063400 1482.170507
64.700000 1474.851887 1476.464375 1479.032942 1479.183684 1481.963544 1484.536000
64.800000 1477.693645 1479.575956 1482.216760 1482.238740 1484.806910 1487.021126
64.900000 1480.783669 1483.369746 1486.278330 1485.956038 1488.285636 1490.009521
65.000000 1493.382697 1494.782794 1496.508001 1496.821599 1499.039537 1501.679924
65.100000 1496.752855 1498.377353 1500.407605 1500.527814 1502.657866 1504.860342
65.200000 1499.352247 1501.726705 1504.038674 1503.979835 1506.208382 1508.034779
65.300000 1502.459062 1505.125491 1507.519345 1507.424507 1509.846732 1511.788968
65.400000 1505.936672 1508.939936 1511.430200 1511.460062 1514.045621 1516.760171
65.500000 1509.364492 1512.013877 1514.441949 1514.532078 1517.254563 1519.888564
65.600000 1512.695662 1514.866595 1517.469079 1517.436093 1520.127706 1522.178140
65.700000 1515.613624 1517.789238 1520.331641 1520.287312 1522.819642 1524.318274
65.800000 1519.000779 1521.019917 1523.609718 1523.411830 1525.655194 1527.383416
65.900000 1523.364367 1525.607286 1527.550477 1527.396394 1529.222195 1530.533884
66.000000 1527.638364 1529.338916 1531.016802 1530.953889 1532.521789 1534.025828
66.100000 1530.580814 1531.943683 1533.454295 1533.439102 1534.928304 1536.339650
66.200000 1532.690547 1534.171503 1535.552878 1535.537714 1536.908213 1538.408672
66.300000 1534.842608 1536.240000 1537.628200 1537.592470 1538.965117 1540.186927
66.400000 1537.000750 1538.322785 1539.689107 1539.693140 1541.037769 1542.591135
66.500000 1539.424813 1540.750223 1542.046898 1542.094845 1543.415809 1545.154363
66.600000 1541.861530 1543.034955 1544.460867 1544.608915 1546.204562 1548.181436
66.700000 1543.963027 1545.473785 1547.208754 1547.351149 1549.242080 1551.491995
66.800000 1547.063885 1548.875406 1550.836604 1551.107597 1553.444986 1556.390110
66.900000 1549.800452 1551.654554 1554.185615 1554.319560 1557.004035 1559.373640
67.000000 1552.280771 1554.166898 1557.095521 1557.077401 1559.886270 1562.082175
67.100000 1554.743390 1557.213473 1559.978548 1559.892475 1562.600809 1564.489840
67.200000 1557.582901 1560.502206 1563.137844 1562.868769 1565.150006 1566.710396
67.300000 1560.653546 1564.036536 1566.345080 1565.940496 1567.758844 1569.274549
67.400000 1564.690108 1567.617457 1569.491214 1569.331634 1570.918220 1573.185060
67.500000 1569.509681 1571.013219 1572.507756 1572.608097 1574.266396 1576.121283
67.600000 1572.403482 1573.840622 1575.394283 1575.475635 1577.135416 1579.100098
67.700000 1574.823696 1576.603792 1578.532488 1578.588683 1580.420401 1582.752585
67.800000 1577.515794 1579.425833 1581.436333 1581.578086 1583.711721 1586.549710
67.900000 1580.907654 1582.687215 1585.130509 1585.356925 1588.008630 1590.900512
68.000000 1583.904196 1586.382311 1589.550892 1589.447284 1592.352969 1595.156241
68.100000 1587.769221 1590.953185 1594.125177 1594.088707 1597.193740 1600.536804
68.200000 1592.802930 1596.067201 1599.232988 1599.326620 1602.707055 1606.171535
68.300000 1596.469629 1600.452970 1604.076497 1603.813285 1607.055023 1610.417872
68.400000 1601.124005 1604.741908 1607.741213 1607.963977 1611.304297 1614.547392
68.500000 1605.407895 1608.203032 1611.773392 1611.849001 1615.574357 1618.852688
68.600000 1607.808362 1611.004882 1615.438593 1615.163377 1619.010501 1622.163728
68.700000 1610.202511 1613.656119 1618.793293 1618.202716 1622.138285 1624.394988
68.800000 1613.341276 1616.837820 1621.736454 1621.175896 1624.967775 1627.457856
68.900000 1616.246426 1620.093866 1624.842940 1624.266577 1627.657640 1630.401367
69.000000 1620.191340 1624.516494 1628.147581 1627.786967 1630.787792 1633.959172
69.100000 1625.024488 1629.629170 1632.244507 1632.115685 1634.798924 1637.332727
69.200000 1629.962665 1633.972959 1636.548009 1636.334399 1638.890889 1640.682661
69.300000 1636.471760 1639.943132 1642.046362 1641.928227 1644.084066 1646.127517
69.400000 1643.525420 1645.319263 1647.285309 1647.346245 1649.340633 1651.715236
69.500000 1646.750456 1648.596459 1650.784652 1650.852309 1652.955625 1655.632211
69.600000 1649.292450 1651.532300 1653.904342 1653.890316 1656.193664 1659.013095
69.700000 1652.116757 1654.206159 1656.828200 1656.731596 1659.191740 1661.469598
69.800000 1654.641907 1657.154048 1659.623362 1659.596223 1662.101733 1664.176801
69.900000 1658.002231 1660.458439 1662.864341 1662.804178 1665.317503 1667.390024
70.000000 1661.490782 1664.162029 1666.596648 1666.658781 1669.098834 1672.167497
70.100000 1667.781720 1670.379624 1673.497176 1674.250421 1678.475128 1684.597786
70.200000 1672.390334 1675.526653 1680.659144 1680.727287 1685.888485 1689.808003
70.300000 1676.980463 1681.800200 1687.062007 1686.647159 1691.299325 1693.943806
70.400000 1683.892682 1688.925849 1692.896152 1692.272550 1695.662990 1697.496279
70.500000 1690.993527 1694.959654 1697.313422 1696.997999 1699.100146 1701.030412
70.600000 1696.763243 1698.979577 1700.777071 1700.666089 1702.349120 1704.390323
70.700000 1700.179031 1701.963652 1703.665423 1703.785050 1705.575421 1707.818693
70.800000 1703.251730 1705.015059 1706.920226 1707.192590 1709.247561 1712.435275
70.900000 1706.913215 1708.796090 1711.088059 1711.447371 1713.992056 1717.843262
71.000000 1710.266279 1712.781447 1715.819386 1716.082021 1719.351963 1722.977624
71.100000 1713.268132 1716.383064 1720.417016 1720.532927 1724.409230 1729.591987
71.200000 1716.887187 1720.609197 1724.744758 1724.867698 1728.735394 1734.986333
71.300000 1720.767818 1724.319056 1728.563132 1728.993151 1733.774092 1740.464666
71.400000 1724.468287 1728.288875 1732.668807 1733.222252 1738.609425 1744.280494
71.500000 1728.478403 1732.701049 1737.997639 1737.893721 1743.100640 1748.174705
71.600000 1733.284088 1738.314161 1743.150470 1742.891176 1747.177454 1752.076855
71.700000 1739.435451 1744.554467 1748.225537 1748.073281 1751.643430 1755.106733
71.800000 1745.295522 1749.098858 1752.671401 1752.551836 1755.992065 1759.774972
71.900000 1750.009519 1753.702180 1757.047711 1757.341707 1761.235171 1767.345774
72.000000 1755.588165 1758.884055 1762.946441 1763.336024 1768.115309 1772.654627
72.100000 1760.123494 1763.925859 1769.003813 1768.908921 1773.837271 1776.584659
72.200000 1764.178413 1769.288335 1774.561739 1773.950387 1778.165485 1780.303899
72.300000 1769.478892 1775.645844 1779.265991 1778.690816 1781.741256 1783.917231
72.400000 1776.181638 1780.423897 1782.693411 1782.550736 1784.917571 1787.106853
72.500000 1781.097790 1783.845111 1785.821205 1785.768189 1787.751360 1790.124360
72.600000 1785.170864 1787.055523 1788.870182 1788.914411 1790.747243 1793.109469
72.700000 1788.109446 1790.092032 1791.903916 1792.007852 1793.884052 1796.413584
72.800000 1791.590946 1793.209798 1795.107032 1795.268044 1797.244759 1799.685953
72.900000 1794.925977 1796.743077 1798.938079 1799.175778 1801.239407 1805.321986
73.000000 1798.732781 1800.930237 1803.357943 1804.105720 1806.666374 1816.458894
73.100000 1803.308059 1806.006913 1809.067407 1810.119353 1814.205490 1823.814389
73.200000 1806.875339 1810.220333 1815.063326 1816.367063 1823.847335 1830.509698
73.300000 1810.314462 1815.182055 1823.570894 1823.879382 1832.448853 1838.740986
73.400000 1813.244280 1819.247297 1832.309698 1830.549203 1839.855524 1845.395362
73.500000 1816.541190 1823.533105 1840.077178 1836.938003 1845.702954 1849.962744
73.600000 1819.032764 1828.759181 1846.377542 1842.705800 1851.043549 1854.396941
73.700000 1822.905381 1835.429932 1852.109457 1848.344690 1856.139626 1859.429591
73.800000 1826.421208 1841.704207 1858.723847 1854.595334 1862.275325 1865.638730
73.900000 1830.318474 1854.456699 1863.429249 1859.288802 1866.713462 1869.457727
74.000000 1833.311365 1858.981853 1867.476812 1863.228762 1870.700885 1872.911260
74.100000 1837.379770 1863.200904 1870.907345 1866.860769 1873.737384 1875.672791
74.200000 1842.035943 1867.586046 1873.803830 1870.186545 1876.611397 1878.549934
74.300000 1846.763006 1870.869537 1876.532002 1873.465418 1879.057475 1880.992984
74.400000 1853.477705 1874.214494 1879.062552 1876.803309 1881.504802 1883.428780
74.500000 1861.121277 1877.898509 1881.587631 1880.146008 1883.974584 1885.882175
74.600000 1871.860697 1881.133294 1884.269422 1883.254897 1886.488190 1888.373625
74.700000 1878.513185 1884.194359 1887.266669 1886.327285 1889.157880 1890.552742
74.800000 1882.857209 1887.311925 1890.007544 1889.181625 1891.689875 1893.080641
74.900000 1886.426047 1890.553020 1892.817075 1892.035840 1894.222395 1895.596579
75.000000 1890.707154 1894.180429 1895.572095 1895.008912 1896.821997 1898.047892
75.100000 1895.812500 1897.376319 1898.533142 1898.148353 1899.775115 1901.334414
75.200000 1898.520660 1900.056946 1901.306699 1900.908973 1902.607189 1904.039148
75.300000 1901.029343 1902.480500 1903.784589 1903.425761 1905.231630 1906.888050
75.400000 1903.384704 1904.901770 1906.433487 1906.140611 1908.246757 1910.427960
75.500000 1905.957397 1907.802294 1909.599187 1909.487067 1912.227270 1914.936438
75.600000 1908.469817 1910.605630 1912.683774 1912.650132 1915.661847 1919.092343
75.700000 1911.688895 1914.073549 1916.764599 1916.651233 1919.949044 1923.869422
75.800000 1914.913896 1918.071077 1921.179462 1920.977622 1924.637768 1929.362890
75.900000 1917.908376 1921.744042 1925.401820 1925.125993 1929.098862 1933.872562
76.000000 1921.068386 1925.310620 1929.622486 1929.213092 1933.996571 1938.098952
76.100000 1925.969886 1931.032089 1935.142578 1934.366613 1938.413303 1941.661451
76.200000 1931.317262 1938.454787 1941.180044 1940.669427 1943.945747 1949.117437
76.300000 1940.495557 1943.372652 1946.391682 1946.745713 1951.841768 1955.865306
76.400000 1943.380395 1946.837819 1952.030828 1951.439065 1956.693804 1960.287523
76.500000 1946.504291 1950.679029 1956.281440 1955.324824 1960.473422 1963.190887
76.600000 1950.359640 1955.633100 1960.155509 1959.390583 1963.978765 1966.564624
76.700000 1954.534373 1960.849575 1964.591770 1963.680838 1967.538736 1969.807026
76.800000 1961.291817 1966.156980 1969.327942 1968.507989 1971.652042 1973.960014
76.900000 1965.976026 1970.252828 1972.769157 1972.336357 1975.276448 1978.861437
77.000000 1970.588654 1973.981691 1976.404885 1976.104849 1979.264041 1983.064139
77.100000 1974.823211 1977.522018 1979.941396 1979.731226 1983.010830 1986.443464
77.200000 1977.728271 1980.926343 1983.708923 1983.451539 1987.291512 1990.278236
77.300000 1981.507534 1985.296403 1988.576356 1988.119641 1991.832213 1994.870514
77.400000 1987.395508 1991.756965 1994.683650 1994.210981 1997.878750 2000.908611
77.500000 1992.145005 1995.469789 1998.473833 1998.105424 2001.798122 2005.314324
77.600000 1995.166306 1998.619439 2001.752014 2001.339225 2005.157431 2008.291554
77.700000 1997.693964 2001.522376 2004.927285 2004.405663 2008.250526 2011.805324
77.800000 2000.562927 2004.490412 2007.983902 2007.456831 2011.229511 2014.806903
77.900000 2003.951961 2007.672938 2011.252368 2010.747251 2014.588298 2017.947397
78.000000 2006.955422 2011.174534 2014.914700 2014.461349 2018.789607 2022.835473
78.100000 2010.356003 2014.557745 2018.973607 2019.144274 2024.907234 2029.070482
78.200000 2013.189171 2017.494132 2022.152472 2022.732735 2029.430147 2033.011662
78.300000 2016.064528 2020.432263 2026.341963 2026.257665 2033.143692 2036.894343
78.400000 2019.197343 2024.006974 2030.355691 2029.818014 2036.236486 2040.279838
78.500000 2022.222614 2027.848783 2034.116249 2033.580566 2039.530512 2043.699868
78.600000 2026.011236 2031.225959 2037.152486 2036.613009 2042.284212 2046.302146
78.700000 2029.463199 2034.691273 2040.247142 2039.759249 2045.106186 2049.072310
78.800000 2032.764365 2037.625771 2043.296783 2042.643418 2047.594298 2051.574504
78.900000 2035.345823 2040.625089 2046.066812 2045.524431 2050.209063 2054.383864
79.000000 2037.868976 2044.014366 2048.942972 2048.424074 2052.964441 2056.657057
79.100000 2040.832322 2047.031804 2051.933684 2051.421471 2055.962355 2059.842574
79.200000 2043.511588 2050.116202 2055.013367 2054.679738 2059.709722 2063.709528
79.300000 2047.081763 2053.000323 2057.754638 2057.990796 2063.620208 2068.824800
79.400000 2049.932303 2055.929194 2060.100628 2061.211422 2068.471493 2074.171022
79.500000 2052.880446 2058.321096 2062.429858 2064.095171 2073.235903 2077.727176
79.600000 2057.158479 2061.360755 2064.935696 2067.184579 2076.588647 2080.693131
79.700000 2061.609278 2065.778572 2070.142373 2071.430480 2079.310476 2082.946230
79.800000 2065.352044 2069.418762 2075.548820 2075.611736 2082.051654 2085.532830
79.900000 2069.169573 2074.318950 2080.634665 2079.928921 2085.262198 2088.776903
80.000000 2074.677263 2080.535664 2085.536898 2084.961090 2089.173306 2092.631212
80.100000 2082.785085 2087.136387 2090.177721 2090.151229 2093.160416 2097.305072
80.200000 2087.582254 2090.739154 2093.683483 2093.826719 2096.774250 2102.006025
80.300000 2091.060587 2093.697434 2096.800271 2097.106437 2100.553229 2105.517854
80.400000 2093.782318 2096.509545 2099.518191 2100.013921 2103.723498 2109.878887
80.500000 2096.137930 2098.922245 2102.229531 2102.815634 2106.533946 2112.653786
80.600000 2098.621811 2101.653818 2104.962898 2105.693165 2109.965868 2116.476911
80.700000 2101.458938 2104.151804 2107.869147 2108.622235 2113.343523 2119.876640
80.800000 2103.971528 2106.843997 2110.901758 2111.744561 2117.229366 2124.794847
80.900000 2106.406092 2109.581674 2113.828584 2114.783097 2120.128236 2128.365805
81.000000 2109.062950 2112.360390 2116.708003 2117.905839 2123.899343 2132.102397
81.100000 2111.375938 2115.157135 2119.946238 2120.923908 2127.443618 2134.990393
81.200000 2114.070966 2117.930157 2123.039815 2124.057052 2130.847235 2138.012719
81.300000 2116.947252 2120.928094 2126.297612 2127.347718 2134.813942 2140.722895
81.400000 2120.049867 2123.834905 2129.580570 2130.545934 2138.903152 2143.821471
81.500000 2122.886732 2127.347388 2133.017950 2133.988422 2142.391199 2146.623960
81.600000 2126.659118 2131.312839 2136.732909 2138.247401 2147.258959 2154.993350
81.700000 2131.070948 2135.763160 2140.809171 2142.742324 2152.762640 2160.957563
81.800000 2136.421670 2141.707845 2145.091605 2147.762403 2159.297926 2165.388626
81.900000 2145.798822 2149.840763 2157.667198 2157.159791 2164.021018 2168.350777
82.000000 2154.998174 2161.922014 2166.050497 2165.429824 2169.092975 2172.232535
82.100000 2163.383571 2167.584098 2170.549494 2170.476269 2173.331621 2177.110817
82.200000 2169.510277 2172.646883 2175.352544 2176.227440 2180.180511 2186.862727
82.300000 2174.064970 2177.855310 2182.840107 2182.633613 2187.147527 2190.601340
82.400000 2179.123776 2184.911345 2188.799140 2188.412073 2191.890603 2195.922635
82.500000 2184.056437 2189.272579 2192.541808 2192.434689 2195.828735 2199.370220
82.600000 2187.570304 2192.284665 2195.673851 2195.601892 2199.206610 2202.134903
82.700000 2192.086748 2195.502552 2198.856882 2198.770516 2202.254724 2204.751583
82.800000 2195.336659 2198.424178 2201.964332 2201.781731 2205.100220 2207.330645
82.900000 2198.619630 2201.894299 2205.249568 2205.007393 2208.006641 2210.249677
83.000000 2202.247998 2205.573570 2208.528214 2208.413969 2211.137928 2213.944985
83.100000 2205.245919 2208.439998 2211.402876 2211.335496 2214.288338 2216.805682
83.200000 2208.069977 2211.112985 2214.082108 2214.037252 2217.074603 2219.609539
83.300000 2211.143046 2214.091061 2217.007441 2216.901702 2219.884771 2222.488949
83.400000 2214.249944 2217.008402 2219.724870 2219.725215 2222.476787 2224.920943
83.500000 2217.123839 2219.833363 2222.542777 2222.489847 2225.150726 2227.244257
83.600000 2219.789783 2222.729348 2225.457681 2225.268410 2227.740907 2230.018123
83.700000 2222.615140 2225.685843 2228.328669 2228.124114 2230.602647 2232.464812
83.800000 2226.110035 2228.930935 2231.469296 2231.262973 2233.423385 2235.518917
83.900000 2230.640018 2233.363860 2235.329962 2235.355158 2237.239193 2240.617671
84.000000 2235.542042 2237.459714 2239.919822 2240.194779 2242.896808 2246.446615
84.100000 2238.750397 2241.234232 2244.670779 2244.569355 2247.602992 2250.918867
84.200000 2242.001795 2245.636587 2249.034118 2248.931883 2252.383754 2255.064205
84.300000 2245.969620 2249.409538 2252.923566 2252.820848 2256.053626 2259.228582
84.400000 2251.509789 2254.123784 2256.832241 2256.981109 2259.946467 2262.635053
84.500000 2254.617931 2257.464089 2260.423456 2260.389177 2263.425992 2265.954748
84.600000 2257.735675 2260.653113 2263.876288 2263.650212 2266.533917 2268.865972
84.700000 2260.947671 2264.083672 2267.311825 2267.041106 2269.919303 2272.028906
84.800000 2264.423246 2267.623023 2270.364920 2270.248811 2272.883223 2275.224495
84.900000 2268.364555 2271.311494 2273.946437 2273.816911 2276.195556 2278.653881
85.000000 2271.965686 2274.337882 2276.855632 2276.893796 2279.471085 2281.765490
85.100000 2274.922324 2277.318301 2279.828793 2279.814103 2282.374745 2284.321438
85.200000 2277.760029 2280.368785 2282.763471 2282.688654 2284.983451 2286.991878
85.300000 2280.983215 2283.702078 2286.049199 2285.855197 2287.905920 2289.841338
85.400000 2284.787735 2287.186816 2289.277776 2289.133676 2291.079330 2292.737028
85.500000 2288.463330 2290.233531 2292.017910 2292.011268 2293.773667 2295.416399
85.600000 2291.444010 2293.161581 2294.916844 2295.006838 2296.865914 2298.883755
85.700000 2294.184210 2295.741023 2297.583352 2297.692336 2299.581941 2301.983204
85.800000 2296.629112 2298.288965 2300.202285 2300.272641 2302.232073 2304.431991
85.900000 2299.202768 2300.939652 2302.948707 2303.006512 2305.006972 2307.355033
86.000000 2302.098692 2303.944681 2306.027251 2306.165601 2308.232343 2311.051628
86.100000 2305.070018 2307.038654 2309.314469 2309.782065 2312.501255 2317.364165
86.200000 2307.827668 2309.820756 2312.817912 2313.455766 2317.401113 2322.615297
86.300000 2310.180619 2312.665026 2316.493699 2317.098290 2321.627311 2326.375424
86.400000 2313.062690 2315.846147 2320.522146 2320.796472 2325.909907 2329.816229
86.500000 2315.582002 2319.900641 2324.643445 2324.690415 2329.847708 2332.719243
86.600000 2319.744338 2325.101737 2330.073793 2329.505187 2333.553325 2336.563829
