depth(m) lower_95(kyr) lower_68(kyr) median(kyr) mean(kyr) upper_68(kyr) upper_95(kyr)
91.380000 1401.800668 1402.755311 1403.686456 1403.691992 1404.612155 1405.624664
91.520000 1403.157633 1404.202131 1405.441037 1405.630849 1406.974400 1409.384031
91.660000 1404.403288 1405.644303 1407.209960 1407.573075 1409.527764 1412.663459
91.800000 1405.720493 1407.139393 1409.161846 1409.540082 1412.015384 1415.258428
91.940000 1407.121279 1408.727463 1411.231656 1411.480524 1414.215970 1417.732350
92.080000 1408.426962 1410.297752 1413.046179 1413.319706 1416.431543 1419.791014
92.216364 1409.834582 1411.781255 1415.074950 1415.110126 1418.287978 1421.571535
92.352727 1411.196948 1413.536783 1416.860373 1416.904915 1420.120044 1423.763779
92.489091 1412.888380 1415.216471 1418.708755 1418.669538 1421.898914 1425.364737
92.625455 1414.283730 1416.992510 1420.340941 1420.431515 1423.682384 1427.060725
92.761818 1415.852051 1418.921941 1422.155503 1422.272976 1425.565941 1429.160754
92.898182 1417.520651 1420.741110 1424.107824 1424.093698 1427.304825 1431.294450
93.034545 1419.160052 1422.673843 1425.831737 1425.876458 1428.963553 1433.059152
93.170909 1420.649033 1424.484900 1427.590092 1427.669872 1430.647810 1434.879164
93.307273 1422.974456 1426.414266 1429.448219 1429.509215 1432.617533 1436.573092
93.443636 1424.904904 1428.216394 1431.179988 1431.292553 1434.276671 1438.382829
93.580000 1427.419135 1430.165259 1433.054342 1433.157590 1436.127676 1440.052756
93.705000 1428.971800 1431.647928 1434.737199 1434.893533 1438.060965 1441.797344
93.830000 1430.449881 1433.296369 1436.511555 1436.631522 1439.785606 1443.312486
93.955000 1432.041200 1435.111679 1438.455308 1438.397652 1441.642630 1444.749773
94.080000 1433.361197 1436.870093 1440.188571 1440.197133 1443.414385 1446.446442
94.205000 1435.017995 1438.654147 1442.362552 1442.190239 1445.407529 1448.248407
94.330000 1436.677522 1440.657889 1444.528029 1444.300325 1447.698571 1449.912676
94.470000 1439.091234 1443.122954 1446.873447 1446.813215 1450.347137 1453.464673
94.610000 1441.700753 1445.679378 1449.376665 1449.510543 1453.177020 1456.685200
94.750000 1444.638237 1448.627566 1452.137694 1452.313549 1456.044892 1459.705763
94.890000 1447.788977 1451.461901 1454.927477 1455.143342 1458.813938 1462.633628
95.030000 1451.981729 1454.401816 1457.696266 1457.976383 1461.272281 1464.659612
95.166364 1454.002122 1456.745060 1460.333775 1460.520164 1463.837350 1467.772597
95.302727 1455.598983 1458.884286 1462.874250 1462.967558 1466.615962 1470.870856
95.439091 1457.357343 1460.982772 1465.286721 1465.448900 1469.299070 1473.559166
95.575455 1459.346972 1463.246952 1467.501930 1467.765606 1472.084440 1476.028235
95.711818 1461.633848 1465.377926 1469.751613 1470.020560 1474.275882 1478.579476
95.848182 1463.845400 1467.808549 1472.143117 1472.360516 1476.600960 1480.553913
95.984545 1466.062297 1470.405545 1474.580073 1474.703081 1478.951276 1482.369656
96.120909 1468.154098 1472.773842 1477.094414 1477.073080 1481.226843 1484.519748
96.257273 1470.247955 1475.191194 1479.602490 1479.442052 1483.231492 1486.252105
96.393636 1473.552414 1477.703465 1481.937142 1481.793834 1485.214868 1488.039469
96.530000 1476.442421 1480.520566 1484.280020 1484.229658 1487.347967 1490.434422
96.663333 1479.202292 1483.078093 1486.772656 1486.904508 1490.060490 1494.731387
96.796667 1481.889352 1485.448438 1489.342867 1489.707127 1493.339289 1499.234840
96.930000 1484.487940 1488.197658 1491.982341 1492.517839 1496.202284 1503.419168
97.063333 1487.414585 1491.007625 1494.579315 1495.312364 1499.295895 1508.354341
97.196667 1490.318891 1493.456685 1496.882138 1498.013969 1501.766938 1512.331502
97.330000 1493.317927 1495.715000 1499.732400 1500.806334 1504.712829 1516.953778
97.470000 1495.064147 1497.932397 1502.637931 1503.913780 1509.314774 1521.236664
97.610000 1496.637268 1499.789784 1505.352202 1506.846892 1513.927703 1524.921193
97.750000 1498.386516 1501.764925 1507.779630 1509.950786 1519.180549 1531.008416
97.890000 1499.979956 1503.911451 1509.882650 1512.954074 1523.387177 1535.077236
98.030000 1501.315786 1505.773550 1512.199913 1515.915221 1526.995156 1536.975087
98.130000 1502.329943 1507.291069 1514.088941 1517.878220 1529.133679 1539.955332
98.266000 1503.529229 1509.233572 1518.287569 1520.744705 1532.261156 1541.936908
98.402000 1505.040190 1511.929973 1521.783926 1523.617575 1535.364804 1544.421971
98.538000 1506.997907 1514.471669 1524.581753 1526.330827 1538.371115 1545.728486
98.674000 1508.760898 1516.917414 1527.137558 1528.994644 1540.849928 1547.124291
98.810000 1510.502822 1520.709097 1529.190196 1531.633838 1543.144866 1548.633533
98.930000 1512.236266 1523.152929 1530.857907 1533.701514 1545.223282 1550.209437
99.070000 1514.968138 1525.828799 1533.454524 1536.088690 1547.389337 1552.346656
99.210000 1517.306360 1528.867923 1535.905147 1538.407761 1549.114047 1554.162780
99.350000 1521.026123 1531.154406 1538.170855 1540.676557 1550.987490 1555.923243
99.490000 1525.759480 1533.991965 1540.546522 1542.972525 1553.007828 1557.426391
99.630000 1530.178111 1536.585874 1542.816574 1545.210458 1554.580349 1558.766664
99.763333 1532.836705 1539.154884 1546.250484 1547.555144 1556.145135 1560.188179
99.896667 1535.884641 1541.822944 1549.402573 1549.925499 1557.575386 1562.041501
100.030000 1538.580577 1544.341506 1552.650700 1552.279580 1559.148609 1563.215742
100.163333 1541.286432 1547.127742 1555.311383 1554.597681 1560.813533 1564.628590
100.296667 1543.592926 1549.827125 1557.852626 1556.893754 1562.303529 1566.024052
100.430000 1546.907261 1552.361290 1559.900864 1559.068950 1563.911127 1567.545979
100.570000 1548.653793 1554.595224 1562.176366 1561.267341 1565.716003 1569.533501
100.710000 1550.415341 1557.118702 1564.061206 1563.361411 1567.459445 1572.271822
100.850000 1552.299729 1559.329867 1565.860535 1565.325284 1569.212490 1574.097827
100.990000 1554.070351 1561.645636 1567.783047 1567.328193 1570.976992 1576.068418
101.130000 1555.649124 1564.095914 1569.552459 1569.277003 1572.804416 1578.530935
101.263333 1557.579768 1566.051026 1571.237072 1571.025534 1574.537765 1580.097625
101.396667 1560.292034 1568.081203 1572.849336 1572.852703 1576.187981 1582.039705
101.530000 1562.846341 1569.873433 1574.386508 1574.604241 1577.877569 1583.614464
101.663333 1565.483248 1571.795146 1575.973099 1576.402913 1579.608862 1585.353109
101.796667 1568.336156 1573.637592 1577.478676 1578.166802 1581.226478 1586.883303
101.930000 1571.309655 1575.561993 1579.055430 1579.953803 1582.859412 1588.355960
102.050000 1573.667547 1577.352113 1580.612029 1581.698837 1584.574168 1589.649293
102.170000 1575.483524 1578.953462 1582.377611 1583.435676 1586.335379 1591.240901
102.290000 1577.204934 1580.699300 1584.175113 1585.178621 1587.995169 1592.904555
102.410000 1578.907240 1582.442281 1585.988848 1586.948650 1589.734073 1594.377202
102.530000 1580.777835 1584.290517 1587.738643 1588.708586 1591.452271 1596.367024
102.663333 1582.920091 1586.567269 1589.963621 1590.815298 1593.245191 1598.948252
102.796667 1585.028447 1588.526991 1592.072298 1592.899769 1595.192317 1600.167050
102.930000 1587.453108 1590.696813 1594.195339 1595.060174 1597.211672 1602.707849
103.063333 1589.452480 1593.067275 1596.123064 1597.110630 1598.960125 1605.224446
103.196667 1592.567520 1595.522876 1598.209396 1599.341681 1601.013128 1607.967993
103.330000 1594.896990 1597.879665 1600.215726 1601.469715 1602.976038 1609.803030
103.400000 1596.107832 1598.869705 1601.434260 1602.659347 1604.205924 1610.821664
103.526000 1597.559782 1600.588037 1603.345076 1605.046839 1607.525253 1618.143624
103.652000 1599.392147 1602.358397 1605.407819 1607.509896 1611.211151 1624.392104
103.778000 1601.070649 1603.973599 1607.539302 1609.918977 1614.359961 1630.015402
103.904000 1602.784302 1605.598995 1609.710471 1612.341634 1617.502166 1632.607604
104.030000 1604.329682 1607.224133 1611.991664 1614.848067 1621.062533 1636.174976
104.115000 1605.583932 1608.405270 1613.780370 1616.489597 1622.996489 1638.050658
104.200000 1606.861163 1609.730367 1615.753394 1618.281196 1624.912593 1640.000382
104.326000 1608.371670 1611.872287 1618.838423 1621.031007 1627.784556 1646.877603
104.452000 1610.237677 1614.078195 1621.650706 1623.698415 1631.090659 1655.199011
104.578000 1611.375567 1616.099987 1624.387199 1626.461167 1633.882664 1665.188710
104.704000 1613.068041 1618.219540 1627.505465 1629.290280 1636.376358 1673.380572
104.830000 1614.742703 1620.256759 1631.248967 1632.343886 1639.424284 1679.926438
104.970000 1616.527407 1623.020258 1635.112833 1636.007275 1643.441468 1685.262516
105.110000 1618.311095 1625.645687 1638.802112 1639.775292 1648.274237 1689.886495
105.250000 1619.976135 1627.672050 1642.947843 1643.496559 1652.815589 1694.832504
105.390000 1621.710306 1630.040199 1647.076775 1647.378461 1656.766133 1698.892641
105.530000 1623.464847 1632.187922 1651.145266 1651.275902 1661.358231 1702.847621
105.663333 1625.311003 1634.256426 1655.432622 1655.126396 1666.685463 1706.250503
105.796667 1627.307743 1636.080376 1659.289896 1658.777296 1672.522372 1709.925345
105.930000 1629.171520 1638.040104 1663.165597 1662.218364 1678.319680 1713.630993
106.063333 1630.553262 1639.891068 1666.242733 1665.485375 1683.122668 1717.141744
106.196667 1632.625325 1641.632861 1669.344282 1668.851301 1688.768919 1719.649497
106.330000 1634.819194 1643.575488 1672.301034 1672.239687 1692.756710 1723.257368
106.466364 1636.559468 1645.370368 1675.299165 1675.603621 1698.173772 1726.411469
106.602727 1638.627168 1647.219946 1678.620287 1678.977066 1703.503213 1729.928910
106.739091 1640.521355 1648.974467 1681.947223 1682.254972 1710.126265 1732.698781
106.875455 1643.028741 1650.724795 1685.199832 1685.597477 1715.191928 1736.100227
107.011818 1645.177803 1652.907979 1688.460440 1688.781089 1720.211109 1738.817237
107.148182 1647.220709 1655.022489 1691.195266 1692.189837 1725.446909 1741.787174
107.284545 1649.590783 1657.333710 1694.048976 1695.562078 1731.419846 1744.564077
107.420909 1651.799257 1659.267736 1696.622854 1698.803869 1736.602005 1747.418926
107.557273 1654.528267 1660.991592 1699.338687 1702.120251 1741.080173 1750.308679
107.693636 1656.968849 1663.289652 1701.861430 1705.423406 1745.687602 1753.273231
107.830000 1659.537259 1665.644856 1704.297926 1708.690691 1749.183039 1756.358186
107.970000 1662.315704 1668.200127 1707.445183 1712.114380 1752.875210 1760.823922
108.110000 1665.434356 1670.759749 1710.405156 1715.443903 1756.188771 1764.384344
108.250000 1667.983673 1673.507566 1713.280278 1718.790098 1759.675184 1767.224165
108.390000 1670.979309 1675.753944 1715.882955 1722.092958 1763.508884 1769.900731
108.530000 1673.673191 1677.876808 1718.813686 1725.247268 1766.557314 1772.433490
108.580000 1674.573893 1678.906905 1719.958858 1726.332657 1767.593846 1773.607512
108.705000 1676.161081 1680.812512 1723.059921 1728.935558 1769.930076 1775.604945
108.830000 1678.179986 1683.136260 1726.526137 1731.518857 1771.987679 1777.760457
108.955000 1679.825537 1685.250490 1729.800509 1734.052401 1774.151144 1779.436355
109.080000 1681.797463 1687.237305 1733.270462 1736.687045 1776.334139 1781.424980
109.205000 1683.646735 1689.423689 1736.098071 1739.181642 1778.457654 1783.270396
109.330000 1685.254697 1691.587288 1739.136127 1741.878861 1780.432162 1785.039948
109.380000 1686.053498 1692.698321 1740.141356 1742.862965 1781.340242 1786.061639
109.520000 1688.618087 1694.900651 1743.119923 1745.696125 1784.031356 1790.005580
109.660000 1690.946263 1697.234796 1745.973687 1748.485842 1786.440035 1792.586824
109.800000 1693.472090 1700.087713 1748.763920 1751.352946 1789.022403 1795.481016
109.940000 1695.814186 1702.666240 1751.199050 1754.082785 1791.366791 1797.549798
110.080000 1698.527414 1705.058726 1754.059155 1756.889434 1793.932167 1801.348246
110.213333 1701.037158 1707.585813 1756.801766 1759.673835 1796.633637 1804.824760
110.346667 1703.536096 1710.316834 1759.907706 1762.464747 1799.104893 1808.701501
110.480000 1706.080755 1713.091564 1762.356994 1765.205956 1802.138766 1811.789791
110.613333 1708.437302 1715.867702 1764.950394 1767.943905 1804.634350 1814.630151
110.746667 1710.619612 1719.049994 1767.397272 1770.782497 1807.231198 1820.026210
110.880000 1713.171817 1721.986804 1769.895584 1773.600485 1810.163883 1824.139561
111.022000 1715.872642 1725.010118 1772.655286 1776.429349 1812.918434 1827.888803
111.164000 1718.427539 1729.163020 1775.181547 1779.277696 1815.367647 1835.945500
111.306000 1720.663260 1732.503540 1777.654609 1782.162417 1817.971096 1841.265295
111.448000 1724.234885 1735.734537 1779.720452 1784.995971 1820.500992 1845.216407
111.590000 1727.163712 1738.817966 1782.013823 1787.761830 1823.145154 1848.476541
111.723333 1729.894054 1741.046108 1784.664598 1790.428483 1825.700997 1852.288671
111.856667 1732.435066 1743.747922 1787.099181 1793.205324 1828.103395 1856.131267
111.990000 1735.050301 1746.634071 1789.536014 1795.897986 1829.955722 1858.944051
112.123333 1737.763019 1749.244549 1791.959784 1798.595061 1832.057594 1861.491908
112.256667 1741.371710 1751.838292 1794.739644 1801.402997 1834.360050 1864.175710
112.390000 1745.624908 1754.092518 1797.611961 1804.216565 1836.447410 1868.538413
112.523333 1748.982892 1757.207282 1800.707119 1807.129606 1838.972848 1871.998898
112.656667 1751.457368 1760.229882 1803.546679 1810.040217 1841.187197 1875.429287
112.790000 1754.331264 1762.827933 1807.055647 1813.001332 1843.374793 1880.150546
112.896667 1756.966174 1765.346203 1810.340580 1815.445760 1845.470762 1882.578213
113.003333 1759.568969 1768.142476 1813.600515 1817.827654 1847.250073 1885.340272
113.110000 1762.705575 1770.712265 1817.486159 1820.203065 1849.015007 1887.213372
113.230000 1765.380214 1773.604561 1821.448757 1822.907313 1851.076873 1889.267873
113.350000 1768.772890 1776.911983 1825.646124 1825.588507 1853.057432 1890.898535
113.470000 1772.270335 1779.756035 1828.909566 1828.249072 1854.909762 1892.922980
113.590000 1775.247000 1782.441741 1833.135255 1830.886468 1856.888040 1894.943425
113.696667 1778.392186 1785.765743 1835.668479 1833.380563 1858.724784 1896.947806
113.803333 1781.797077 1789.293548 1838.515933 1835.933951 1860.832630 1899.044290
113.910000 1784.040143 1792.846492 1841.446828 1838.439794 1862.823488 1901.170079
114.041111 1787.281710 1796.726406 1844.777501 1841.252404 1865.358505 1903.382007
114.172222 1790.616917 1800.554249 1848.703012 1843.981415 1867.465979 1905.587217
114.303333 1793.269747 1805.080670 1853.167571 1846.804682 1870.170620 1907.636611
114.434444 1796.236980 1808.665457 1856.969134 1849.489184 1872.267706 1909.340893
114.565556 1798.663045 1812.847208 1860.411802 1852.206950 1875.191501 1911.254116
114.696667 1801.430407 1815.690548 1863.189225 1854.847122 1877.666534 1913.237819
114.827778 1804.009635 1819.471226 1865.845373 1857.507962 1881.379567 1914.943682
114.958889 1806.934308 1823.517717 1867.666341 1860.177124 1885.323968 1916.849312
115.090000 1810.176883 1828.334438 1869.883579 1862.882517 1889.318523 1918.736177
115.230000 1812.952352 1832.321144 1872.049804 1865.828411 1893.308100 1920.262623
115.370000 1815.226617 1836.402856 1874.316436 1868.868149 1897.991863 1922.006735
115.510000 1819.166810 1840.680256 1876.494708 1871.850396 1903.395266 1924.123647
115.650000 1821.991252 1843.846183 1878.935251 1874.776184 1908.058714 1925.843324
115.790000 1824.773075 1846.375134 1880.755122 1877.699833 1913.371776 1927.741631
115.923333 1827.907438 1849.300131 1882.717185 1880.372278 1916.358719 1929.906574
116.056667 1831.109148 1852.895820 1884.924833 1883.089106 1919.944252 1931.871221
116.190000 1834.244838 1858.014016 1886.822757 1885.737052 1923.639196 1933.915515
116.323333 1838.646936 1863.312569 1888.642112 1888.440075 1926.179847 1935.742697
116.456667 1842.121418 1869.308356 1890.501676 1891.167618 1929.507234 1937.714396
116.590000 1845.159871 1875.099991 1892.701516 1893.833242 1932.369063 1939.704785
116.730000 1848.811608 1880.828362 1895.067420 1896.737275 1935.022544 1942.657451
116.870000 1852.434301 1885.668373 1897.208517 1899.781895 1937.904640 1945.477885
117.010000 1855.254299 1890.541848 1899.671450 1902.587474 1940.645012 1947.998494
117.150000 1858.889522 1895.468715 1902.295623 1905.431706 1943.359497 1950.686677
117.290000 1862.211693 1899.596262 1904.787166 1908.314439 1945.819966 1953.829520
117.423333 1865.190464 1901.681996 1907.430957 1911.132467 1948.079280 1956.722375
117.556667 1867.700508 1903.736167 1909.831395 1913.925578 1950.058606 1959.390589
117.690000 1871.803289 1905.998567 1912.262271 1916.807947 1952.714006 1962.386044
117.823333 1876.495874 1908.722304 1914.891807 1919.810201 1955.788570 1964.765389
117.956667 1879.906354 1911.655357 1917.722680 1922.825588 1958.296261 1967.971780
118.090000 1884.161715 1914.579832 1920.423345 1925.980376 1960.582641 1970.728218
118.230000 1888.130495 1917.407120 1923.529894 1929.291998 1963.538668 1973.947446
118.370000 1892.153288 1920.326088 1926.479819 1932.576096 1966.434987 1977.171985
118.510000 1898.170224 1923.545223 1929.447423 1935.900789 1970.123280 1979.605646
118.650000 1909.590552 1927.800592 1932.636731 1939.443035 1972.956356 1982.195957
118.790000 1915.388232 1931.701496 1935.959742 1943.115479 1976.506877 1985.931044
118.934000 1921.446972 1935.161476 1940.208168 1947.264488 1978.828648 1991.103023
119.078000 1928.812653 1938.344055 1944.716052 1951.267463 1980.516224 1995.512904
119.222000 1932.472305 1941.656942 1949.129625 1955.364661 1982.697374 2001.332037
119.366000 1937.245963 1946.175940 1954.083071 1959.708522 1985.275419 2005.964362
119.510000 1943.566441 1950.771013 1958.412014 1963.970234 1988.345316 2010.054949
119.650000 1946.041864 1955.361933 1963.431616 1968.401183 1990.090058 2013.178718
119.790000 1949.179775 1960.322921 1968.125930 1972.881073 1991.441345 2016.343963
119.930000 1954.355354 1965.333929 1972.837453 1977.244835 1993.274964 2019.413152
120.070000 1960.444866 1971.163806 1977.247759 1981.673479 1995.228139 2022.891083
120.210000 1967.362868 1976.628169 1981.210810 1985.825490 1997.236789 2025.692229
120.343333 1969.553625 1980.022719 1984.946813 1989.347774 1999.342440 2028.341119
120.476667 1973.658171 1983.178320 1988.609899 1992.632274 2001.674542 2030.506627
120.610000 1976.900399 1986.108492 1992.353141 1995.879321 2004.500561 2032.565783
120.743333 1979.271894 1989.518975 1995.569176 1999.029932 2008.422563 2034.856523
120.876667 1985.673005 1992.626368 1998.846785 2002.062276 2010.918839 2036.596882
121.010000 1989.725560 1995.857835 2001.813280 2005.106438 2013.808918 2038.550574
121.148889 1992.549370 1998.765600 2005.607357 2008.262983 2017.199449 2040.366834
121.287778 1995.057885 2001.911681 2008.896876 2011.389027 2020.839601 2042.221833
121.426667 1997.574612 2004.894845 2011.978887 2014.376129 2023.953203 2044.360499
121.565556 1999.930278 2007.881414 2014.934013 2017.302613 2026.986003 2045.825663
121.704444 2002.831777 2010.681312 2017.856840 2020.271234 2031.110420 2047.777621
121.843333 2006.702665 2013.728615 2021.132413 2023.192789 2033.815570 2049.651019
121.982222 2010.683540 2017.240466 2024.058481 2026.155912 2037.628703 2051.694862
122.121111 2014.027300 2020.579601 2027.268397 2029.171396 2040.759665 2053.324823
122.260000 2017.178950 2023.925648 2030.269710 2032.117546 2043.626327 2055.001487
122.393333 2019.514125 2026.908995 2033.782240 2035.168114 2046.456099 2056.649568
122.526667 2022.171916 2029.676268 2036.903351 2038.125027 2049.183628 2058.154575
122.660000 2025.022495 2032.441384 2040.105147 2041.170356 2051.321658 2059.970439
122.793333 2028.290421 2035.510086 2043.767357 2044.258347 2053.911114 2061.595992
122.926667 2031.406121 2038.611235 2047.125793 2047.283144 2055.983759 2063.635381
123.060000 2034.259462 2042.128655 2050.450129 2050.271069 2058.559938 2065.421860
