depth(m) lower_95(kyr) lower_68(kyr) median(kyr) mean(kyr) upper_68(kyr) upper_95(kyr)
68.260000 1401.420207 1402.272943 1403.126257 1403.149093 1404.036869 1404.935907
68.340000 1402.431341 1403.259873 1404.175797 1404.182476 1405.104593 1406.055728
68.420000 1403.375473 1404.214873 1405.175667 1405.193457 1406.122377 1407.248634
68.520000 1404.714176 1405.503075 1406.477640 1406.537469 1407.530480 1408.907937
68.620000 1406.022814 1406.938343 1408.006559 1408.119736 1409.151053 1411.196585
68.720000 1407.303129 1408.453680 1409.580545 1409.850430 1411.279534 1413.896444
68.820000 1408.801193 1409.915497 1411.198679 1411.559187 1413.202106 1415.946306
68.920000 1410.365831 1411.572888 1413.081282 1413.432316 1415.595096 1417.937808
69.020000 1411.895022 1413.467282 1415.217074 1415.540706 1417.866352 1420.017230
69.120000 1413.901042 1415.490397 1417.572502 1417.727273 1419.990419 1421.697933
69.220000 1415.841720 1417.681190 1419.807989 1419.805358 1421.944171 1423.514359
69.320000 1418.008414 1419.991275 1422.070548 1421.955074 1423.854127 1425.313995
69.420000 1420.957008 1422.746795 1424.469704 1424.421538 1426.084611 1427.669884
69.520000 1423.666478 1425.422081 1426.924263 1426.971280 1428.610976 1430.661023
69.620000 1425.918328 1427.461053 1429.166524 1429.265040 1430.965468 1433.257066
69.720000 1427.611943 1429.209464 1431.012712 1431.188517 1433.148723 1435.635594
69.820000 1429.217789 1430.972858 1432.911874 1433.130007 1435.311612 1437.953469
69.920000 1430.702259 1432.751733 1434.798334 1435.120265 1437.634668 1440.683134
70.020000 1432.546891 1434.481140 1436.990942 1437.204349 1440.160153 1443.057951
70.120000 1434.520504 1436.528515 1439.112554 1439.367475 1442.241958 1445.035279
70.220000 1436.479559 1438.687154 1441.423144 1441.493985 1444.333915 1446.912652
70.320000 1438.854587 1441.225856 1444.033848 1443.891264 1446.360761 1448.667835
70.420000 1441.181654 1444.251555 1446.864756 1446.516518 1448.632962 1450.299440
70.520000 1445.771225 1448.562158 1450.285065 1450.134584 1451.812121 1453.097224
70.620000 1449.064122 1451.298633 1453.084730 1453.000982 1454.790545 1456.388449
70.720000 1452.516320 1453.976618 1455.353703 1455.416341 1456.951270 1458.351253
70.820000 1454.461406 1455.656721 1457.171799 1457.167457 1458.682837 1459.978918
70.920000 1455.873652 1457.186252 1458.757588 1458.742331 1460.212607 1461.662332
71.020000 1457.415552 1458.788120 1460.354057 1460.291689 1461.757835 1463.435637
71.120000 1458.825782 1460.448720 1461.974685 1461.969734 1463.492779 1464.955574
71.220000 1460.734852 1462.204452 1463.650513 1463.710103 1465.221267 1466.669527
71.320000 1462.573821 1464.026679 1465.473181 1465.530039 1467.107700 1468.672312
71.420000 1464.330600 1465.778246 1467.238204 1467.419003 1469.100200 1471.034067
71.520000 1466.077513 1467.520282 1469.054733 1469.334367 1471.193898 1473.820337
71.620000 1467.714632 1469.198738 1470.960195 1471.327913 1473.577417 1476.852796
71.720000 1469.221689 1470.650918 1472.727563 1473.248269 1475.894720 1480.004301
71.820000 1470.675707 1472.212575 1474.665328 1475.272507 1478.517806 1483.001691
71.920000 1472.339602 1474.146717 1477.123335 1477.722917 1481.761619 1485.671026
72.020000 1474.060978 1476.184175 1479.569548 1480.112197 1484.438857 1488.205668
72.120000 1475.991519 1478.516129 1482.396443 1482.609999 1486.863253 1489.860558
72.220000 1478.273717 1481.384289 1485.543797 1485.299714 1488.780096 1491.456377
72.320000 1481.781432 1485.286941 1488.788914 1488.488093 1491.510728 1493.911539
72.420000 1490.977599 1492.979741 1494.523758 1494.505085 1496.229229 1498.024206
72.520000 1493.779534 1495.354937 1496.796515 1496.818764 1498.308078 1499.919934
72.620000 1495.717551 1497.011356 1498.458699 1498.539807 1499.987564 1501.671878
72.720000 1497.268594 1498.511406 1500.020009 1500.087370 1501.685884 1503.461238
72.820000 1498.502864 1499.992979 1501.522111 1501.604556 1503.249520 1505.147523
72.920000 1499.996891 1501.480928 1503.095611 1503.195797 1504.928020 1506.719618
73.020000 1501.634992 1503.147284 1504.989909 1505.030520 1506.890039 1508.779128
73.120000 1503.555772 1505.361149 1507.315310 1507.408444 1509.431282 1512.055320
73.220000 1506.044267 1508.173812 1510.328127 1510.603501 1512.834979 1516.788266
73.320000 1508.493208 1510.721757 1513.360423 1513.698353 1516.520579 1521.334532
73.420000 1511.366411 1513.982519 1516.970688 1517.276201 1520.682003 1524.026317
73.520000 1514.581247 1518.017303 1521.372153 1521.060587 1524.090618 1526.392026
73.620000 1518.708464 1523.081771 1525.514625 1525.168022 1527.507073 1528.915278
73.720000 1523.609947 1526.324311 1528.156471 1527.954912 1529.606639 1531.000868
73.820000 1527.393819 1529.190924 1530.621117 1530.512371 1531.777818 1533.128779
73.920000 1529.689657 1531.054908 1532.302505 1532.252722 1533.514531 1534.567551
74.020000 1531.270111 1532.498129 1533.733265 1533.708651 1534.832680 1535.950142
74.120000 1532.739929 1533.907514 1535.105498 1535.073207 1536.229835 1537.249680
74.220000 1534.119493 1535.355357 1536.465753 1536.425418 1537.557000 1538.441867
74.320000 1535.649136 1536.788434 1537.801538 1537.811230 1538.924135 1539.837441
74.420000 1537.201409 1538.259979 1539.263538 1539.273656 1540.327405 1541.307189
74.520000 1538.650475 1539.796966 1540.826689 1540.835779 1541.918340 1542.938381
74.620000 1540.209192 1541.273280 1542.394049 1542.377027 1543.392194 1544.877480
74.720000 1541.662152 1542.757857 1543.879278 1543.995777 1545.098699 1547.221917
74.820000 1543.076425 1544.202260 1545.318513 1545.558827 1546.868985 1549.539107
74.920000 1544.263073 1545.519497 1546.814214 1547.093255 1548.612167 1551.663007
75.020000 1545.572174 1546.884261 1548.325714 1548.746059 1550.558465 1554.579177
75.120000 1546.945006 1548.284915 1549.976329 1550.542278 1552.945655 1557.445717
75.220000 1548.478876 1550.027344 1551.940059 1552.665059 1555.683145 1560.430439
75.320000 1550.032086 1551.958012 1554.459780 1555.207302 1558.986175 1562.756306
75.420000 1551.961060 1554.076403 1557.502376 1558.012158 1562.355951 1565.108637
75.520000 1553.723879 1556.333526 1560.525193 1560.585486 1565.001891 1567.032211
75.620000 1556.014732 1558.789409 1563.897734 1563.280621 1567.171038 1568.869949
75.720000 1559.069618 1562.484740 1566.800625 1566.038472 1568.959463 1570.542757
75.820000 1562.589359 1566.926151 1569.293245 1568.935082 1570.999794 1572.377137
75.920000 1568.330055 1570.238920 1571.823463 1571.744523 1573.280032 1574.657524
76.020000 1570.714441 1572.130371 1573.732684 1573.699166 1575.242055 1576.661836
76.120000 1572.264626 1573.787775 1575.376594 1575.398246 1577.017934 1578.662083
76.240000 1574.281017 1575.774636 1577.393008 1577.409090 1579.152543 1580.817062
76.340000 1575.760418 1577.376516 1578.992040 1579.053433 1580.699098 1582.905343
76.440000 1577.350792 1578.964543 1580.633522 1580.730121 1582.529326 1584.501309
76.540000 1578.863123 1580.547521 1582.332306 1582.391695 1584.244229 1586.292575
76.640000 1580.391085 1582.061539 1584.077002 1584.078931 1585.991995 1588.101032
76.740000 1581.879750 1583.579831 1585.748976 1585.734290 1587.749343 1590.033426
76.840000 1583.392126 1585.195150 1587.439255 1587.451808 1589.665650 1591.893859
76.940000 1585.012448 1587.006024 1589.302860 1589.356671 1591.622388 1594.009731
77.040000 1586.938217 1589.226764 1591.685958 1591.691263 1594.104689 1596.880840
77.140000 1589.320509 1591.921531 1594.474543 1594.637405 1597.363498 1600.528866
77.240000 1592.223523 1594.726591 1597.489654 1597.594212 1600.443232 1604.062238
77.340000 1594.695642 1597.321596 1600.353922 1600.448940 1603.452270 1607.056604
77.440000 1597.032659 1600.246669 1603.256138 1603.278539 1606.448988 1609.554021
77.540000 1599.322764 1603.261243 1606.600197 1606.550223 1609.910843 1613.209526
77.640000 1602.049681 1605.871587 1609.155868 1609.175368 1612.398687 1616.272415
77.740000 1604.633645 1608.231524 1611.556699 1611.606190 1615.028684 1618.957893
77.840000 1607.632032 1610.674256 1613.898013 1613.994565 1617.365269 1621.431243
77.940000 1609.778589 1612.736926 1616.066146 1616.228902 1619.567162 1624.416590
78.040000 1611.605810 1614.810114 1618.182685 1618.424070 1621.998836 1626.937453
78.140000 1613.337165 1616.898244 1620.387248 1620.710937 1624.643539 1629.142090
78.240000 1615.469731 1618.884652 1622.764915 1622.970023 1627.243410 1631.689472
78.340000 1617.678609 1620.857586 1625.104116 1625.268424 1629.857082 1633.802369
78.440000 1619.499597 1622.995704 1627.360704 1627.513426 1632.081549 1635.822292
78.540000 1621.503570 1625.245412 1629.793847 1629.765806 1634.318819 1637.558046
78.640000 1623.808670 1627.726878 1632.280165 1632.104054 1636.589312 1639.495346
78.740000 1626.806384 1630.118788 1634.557983 1634.501689 1638.764011 1641.287711
78.840000 1629.676942 1633.285936 1637.359453 1637.179430 1640.882027 1643.630452
78.940000 1633.140541 1636.918422 1640.379263 1640.116632 1643.262488 1645.812566
79.040000 1639.088772 1641.842373 1644.218246 1644.170216 1646.607858 1649.034123
79.140000 1642.210124 1644.338293 1646.465054 1646.605668 1648.939117 1651.624092
79.240000 1644.473789 1646.238774 1648.566785 1648.643043 1650.952749 1653.691402
79.340000 1646.040840 1648.033868 1650.388993 1650.476047 1652.953358 1655.423984
79.480000 1648.036104 1650.395560 1652.786418 1652.837693 1655.441605 1657.932983
79.580000 1649.540622 1651.983078 1654.479390 1654.495264 1656.965450 1659.285978
79.680000 1651.144321 1653.616008 1656.158229 1656.127634 1658.566745 1660.664706
79.780000 1652.708862 1655.252306 1657.852428 1657.734888 1660.172721 1662.119033
79.880000 1654.537112 1657.019142 1659.496393 1659.379160 1661.771877 1663.639648
79.980000 1656.395154 1658.648498 1661.149980 1661.007686 1663.332737 1664.832615
80.080000 1658.252328 1660.498324 1662.887258 1662.704612 1664.826757 1666.335285
80.180000 1660.104109 1662.425401 1664.636420 1664.480521 1666.485102 1668.066070
80.280000 1662.617636 1664.751275 1666.710728 1666.613957 1668.503081 1670.128783
80.380000 1665.618905 1667.411073 1669.241282 1669.273282 1671.153644 1673.831285
80.480000 1668.683427 1670.681718 1672.598470 1672.719261 1674.726604 1677.579385
80.580000 1671.350498 1673.199895 1675.460422 1675.623447 1677.965842 1680.584132
80.680000 1673.216586 1675.505153 1678.036589 1678.081802 1680.720967 1683.049289
80.780000 1675.133786 1677.509664 1680.299469 1680.305837 1682.984301 1685.401874
80.880000 1676.929924 1679.579444 1682.564295 1682.353518 1685.040603 1687.217557
80.980000 1678.994594 1681.706297 1684.556337 1684.383452 1686.916683 1689.031877
81.080000 1681.346484 1683.844231 1686.563964 1686.408676 1688.920127 1690.893055
81.180000 1683.382680 1686.086573 1688.555099 1688.439421 1690.794996 1692.701472
81.280000 1685.392859 1688.056969 1690.440696 1690.358720 1692.645837 1694.517037
81.380000 1687.306665 1690.077597 1692.490243 1692.253595 1694.397507 1696.061851
81.480000 1689.790898 1692.289856 1694.453448 1694.245397 1696.174262 1697.699411
81.580000 1692.185221 1694.698466 1696.567099 1696.417974 1698.139336 1699.888277
81.680000 1695.875318 1697.594330 1699.169089 1699.132113 1700.641139 1702.483815
81.780000 1697.884868 1699.453356 1701.074583 1701.118326 1702.835711 1704.532511
81.880000 1699.431237 1701.106531 1702.901544 1702.904451 1704.702282 1706.798465
81.980000 1701.247191 1702.911617 1704.699471 1704.729672 1706.576687 1708.778684
82.080000 1702.987336 1704.714108 1706.533206 1706.613045 1708.463260 1710.821288
82.180000 1705.200100 1706.822026 1708.637650 1708.824864 1710.901138 1713.224147
82.280000 1707.444649 1709.090363 1711.020210 1711.298107 1713.547474 1716.047305
82.380000 1709.474582 1711.232390 1713.557140 1713.697274 1716.304000 1718.911220
82.480000 1711.520542 1713.433424 1716.000470 1716.054421 1718.481169 1721.378711
82.580000 1713.431698 1715.807633 1718.449223 1718.393652 1720.863682 1723.723687
82.680000 1715.324876 1717.938324 1720.792917 1720.725646 1723.277833 1726.080017
82.780000 1717.544449 1720.505880 1723.120926 1723.153920 1725.753372 1728.852990
82.880000 1719.917128 1722.810879 1725.424428 1725.438820 1728.177103 1731.301163
82.980000 1721.639415 1724.770950 1727.536581 1727.575655 1730.376362 1733.538541
83.080000 1723.593923 1726.552719 1729.643117 1729.635173 1732.482595 1735.530871
83.180000 1725.542561 1728.738870 1731.601116 1731.721447 1734.795805 1738.456854
83.280000 1727.272137 1730.499689 1733.704849 1733.813571 1736.795194 1740.924991
83.380000 1729.397570 1732.546586 1735.685374 1735.838065 1738.812239 1743.016977
83.480000 1731.795058 1734.618166 1737.842221 1737.956590 1740.932153 1745.250116
83.580000 1733.734824 1736.518891 1739.950427 1740.163720 1743.444466 1748.683903
83.680000 1735.089715 1738.394554 1742.226719 1742.608414 1746.580435 1754.156622
83.780000 1736.944331 1740.383067 1744.172986 1745.077597 1750.299425 1757.386154
83.880000 1739.064635 1742.343733 1746.748953 1747.747539 1753.861868 1760.141370
83.980000 1741.410148 1744.524329 1749.668543 1750.424544 1756.481239 1761.551764
84.080000 1744.262552 1747.634794 1753.413276 1753.283082 1758.692298 1763.359162
84.180000 1747.106648 1751.458021 1756.241167 1756.200857 1761.010812 1765.775828
84.280000 1751.517055 1756.114306 1759.852680 1759.801131 1763.549705 1768.087475
84.380000 1755.598206 1759.160611 1762.668780 1762.731978 1766.576733 1770.487848
84.480000 1758.521518 1761.609536 1765.093887 1765.189723 1768.665608 1771.978953
84.580000 1760.756679 1763.958991 1767.374438 1767.453385 1770.881731 1774.197697
84.680000 1762.956879 1766.430602 1769.908213 1769.743126 1773.051821 1775.690435
84.780000 1764.798436 1768.472412 1772.055221 1771.836585 1775.122767 1777.328321
84.880000 1767.076142 1770.664957 1774.302859 1773.989345 1777.261764 1779.412997
84.980000 1769.213142 1772.964891 1776.425538 1776.116888 1779.238245 1781.373414
85.080000 1771.878285 1775.541379 1778.445222 1778.216949 1781.006330 1783.050972
85.180000 1774.870547 1778.074164 1780.574750 1780.467521 1782.899856 1784.993348
85.280000 1777.807456 1780.514981 1782.723743 1782.620984 1784.822158 1786.712321
85.380000 1780.243970 1782.507745 1784.739191 1784.667747 1786.696337 1788.754116
85.480000 1782.642075 1784.734486 1786.871234 1786.754100 1788.571921 1790.782322
85.580000 1784.787848 1787.039777 1788.938345 1788.897299 1790.784103 1792.728981
85.680000 1786.723122 1788.970251 1790.910366 1790.900244 1792.899321 1794.788932
85.780000 1788.355053 1790.747693 1792.809647 1792.710492 1794.736701 1796.553917
85.880000 1789.742890 1792.281351 1794.561554 1794.436653 1796.554912 1798.417882
85.980000 1791.593724 1793.849018 1796.204323 1796.046248 1798.154547 1800.025755
86.080000 1793.253895 1795.531800 1797.760183 1797.602104 1799.516866 1801.457750
86.180000 1795.161702 1797.345405 1799.469047 1799.300673 1801.109225 1803.101170
86.280000 1797.246752 1799.327864 1801.276201 1801.164228 1802.841102 1804.925173
86.380000 1799.675194 1801.385585 1803.152227 1803.153998 1804.826775 1806.877138
86.480000 1801.707844 1803.265857 1804.956421 1805.101175 1806.874670 1809.265611
86.580000 1803.445579 1805.018856 1806.803536 1807.055307 1809.108098 1811.989833
86.680000 1804.991887 1806.626227 1808.588179 1808.875269 1811.047485 1813.768991
86.780000 1806.606951 1808.343334 1810.359575 1810.695681 1813.024709 1815.792316
86.880000 1808.078388 1809.955045 1812.081701 1812.469836 1814.886135 1818.090726
86.980000 1809.446486 1811.635778 1813.843269 1814.235342 1816.808261 1820.187839
87.080000 1810.938703 1813.279673 1815.572571 1816.058902 1818.776587 1823.677190
87.180000 1812.561668 1814.910625 1817.395661 1817.907108 1820.654405 1825.606753
87.280000 1814.224952 1816.549020 1819.174145 1819.735281 1822.508552 1827.650236
87.380000 1815.949354 1818.283553 1821.068108 1821.592681 1824.173377 1829.778488
87.480000 1817.965182 1820.357261 1823.098847 1823.622185 1826.120451 1832.649723
87.580000 1819.809006 1822.367979 1825.297373 1825.750579 1828.174333 1835.182081
87.680000 1822.048359 1824.648603 1827.615507 1828.086917 1830.661241 1837.840662
87.780000 1824.124599 1827.034578 1829.942553 1830.484970 1832.968989 1839.953877
87.880000 1826.461541 1829.270372 1832.302167 1832.815926 1835.407723 1842.369489
87.980000 1828.607824 1831.518864 1834.690461 1835.235305 1837.972457 1845.008493
88.080000 1830.899625 1833.850479 1837.211637 1837.918944 1841.236879 1848.795522
88.180000 1832.621832 1836.296203 1840.246800 1840.832441 1844.771952 1852.912398
88.280000 1834.428600 1838.739610 1843.193823 1843.724322 1848.243030 1857.300379
88.380000 1836.936283 1841.217815 1846.084287 1846.688858 1851.479525 1862.494530
88.480000 1839.225650 1843.896592 1849.427355 1849.624626 1854.257183 1867.141853
88.580000 1841.393023 1847.185786 1852.641069 1852.878481 1857.455042 1870.199804
88.680000 1843.869701 1850.821829 1855.526120 1856.345935 1862.030865 1872.579771
88.780000 1846.835223 1853.623937 1859.166368 1860.115561 1867.937686 1874.423730
88.880000 1849.125942 1856.639037 1864.639290 1864.108542 1871.428561 1876.184798
88.980000 1851.489479 1859.636869 1869.669259 1867.730023 1874.114137 1877.769848
89.080000 1853.693674 1864.894877 1872.675477 1870.874491 1876.051507 1879.406747
89.180000 1858.397039 1869.762460 1874.928691 1873.609743 1877.922175 1880.740120
89.280000 1863.011434 1873.175135 1876.873225 1876.076819 1879.582186 1882.252741
89.380000 1868.460853 1875.621622 1878.728737 1878.272739 1881.431240 1883.816311
89.480000 1872.522774 1877.716094 1880.494207 1880.225252 1883.048089 1885.353659
89.580000 1875.729597 1879.659904 1882.135642 1882.011594 1884.643506 1886.914856
89.680000 1878.069115 1881.523888 1883.830173 1883.808732 1886.412020 1888.504889
89.780000 1880.608815 1883.331093 1885.661572 1885.607382 1888.011912 1889.890938
89.880000 1883.045704 1885.206082 1887.481155 1887.396777 1889.708354 1891.419459
89.920000 1883.983878 1885.927358 1888.277220 1888.144410 1890.364737 1891.879486
90.020000 1885.599907 1887.730019 1890.034938 1889.848057 1891.960772 1893.223144
90.120000 1887.564567 1889.784441 1891.712099 1891.556028 1893.357664 1894.627765
90.220000 1889.767990 1891.738229 1893.444852 1893.295117 1894.831320 1895.939159
90.320000 1891.788879 1893.803550 1895.107136 1895.013037 1896.355979 1897.328410
90.420000 1894.149097 1895.508718 1896.722838 1896.632850 1897.744993 1898.860532
90.520000 1895.814069 1897.032730 1898.161720 1898.144310 1899.280743 1900.407304
90.620000 1897.683119 1898.619715 1899.762489 1899.795816 1900.928589 1902.057599
90.720000 1899.121557 1900.167119 1901.324633 1901.394033 1902.650692 1903.828263
90.820000 1900.463781 1901.579252 1902.849159 1902.891284 1904.211580 1905.518639
90.920000 1901.855482 1903.036093 1904.352561 1904.419183 1905.791215 1907.289882
91.020000 1903.180235 1904.529032 1905.934185 1905.989706 1907.385388 1908.869628
91.120000 1904.746308 1906.008586 1907.482949 1907.516010 1909.019801 1910.687541
91.220000 1906.268150 1907.659796 1909.145112 1909.224349 1910.769228 1912.654847
91.320000 1907.815822 1909.333032 1910.872628 1910.907895 1912.391340 1914.518131
91.420000 1909.661624 1911.058957 1912.674827 1912.706070 1914.214064 1916.264080
91.520000 1911.499441 1912.863926 1914.574313 1914.645750 1916.384783 1918.452558
91.620000 1913.114460 1914.682649 1916.399962 1916.524478 1918.400670 1920.390443
91.720000 1914.971139 1916.545934 1918.214343 1918.359012 1920.248759 1922.339659
91.820000 1916.796312 1918.361790 1920.059290 1920.237536 1922.226674 1924.330579
91.920000 1918.684973 1920.189664 1922.111343 1922.225229 1924.234465 1926.249703
92.020000 1920.342672 1921.811622 1923.993856 1924.037407 1926.156570 1928.442071
92.120000 1922.114725 1923.716386 1925.979158 1925.995343 1928.140022 1930.742526
92.220000 1923.893555 1925.744314 1928.017954 1928.081799 1930.306580 1932.805064
92.320000 1925.912891 1927.773475 1929.912417 1929.989447 1932.328755 1934.688345
