depth(m) lower_95(kyr) lower_68(kyr) median(kyr) mean(kyr) upper_68(kyr) upper_95(kyr)
157.980000 57034.498092 57035.369028 57036.264165 57036.258431 57037.165396 57038.040544
158.010000 57036.437688 57037.599678 57038.844144 57039.555315 57041.093716 57047.612487
158.040000 57038.428749 57039.799800 57041.644572 57043.328938 57047.801126 57053.424383
158.070000 57040.412139 57042.232390 57045.268222 57047.152861 57052.684862 57058.973291
158.100000 57043.169686 57045.392380 57049.134915 57050.894129 57057.160775 57062.377735
158.120000 57044.974634 57047.451205 57052.870267 57053.346652 57060.013039 57066.342637
158.150000 57047.559756 57050.029127 57057.225741 57057.164939 57063.310112 57070.953993
158.180000 57049.705478 57053.885456 57060.996406 57061.126845 57067.793475 57074.418510
158.210000 57053.180732 57057.709066 57064.992595 57065.078739 57071.838159 57077.538718
158.240000 57055.936893 57061.830811 57069.248244 57068.779341 57075.425715 57080.060253
158.270000 57059.663308 57065.171903 57072.965085 57072.142768 57078.133140 57082.771327
158.300000 57062.775918 57069.937368 57076.167229 57075.525388 57081.130537 57085.130441
158.340000 57067.127837 57074.571594 57079.833411 57079.436846 57084.537711 57088.359777
158.370000 57071.369115 57077.432216 57082.627897 57082.244549 57086.865668 57091.256177
158.400000 57075.453776 57080.719438 57085.337878 57085.080974 57089.262459 57094.559673
158.430000 57079.140023 57083.674201 57087.981709 57087.914276 57091.818928 57097.468830
158.460000 57082.861297 57086.377739 57090.788139 57090.868327 57094.723108 57100.243285
158.490000 57085.783086 57089.739293 57093.768949 57093.946338 57098.286019 57103.351762
158.510000 57087.918091 57091.855257 57095.725370 57095.972892 57100.768813 57104.848809
158.570000 57092.022484 57097.060064 57101.272612 57101.592593 57106.826398 57109.728473
158.600000 57094.627598 57099.537152 57104.515030 57104.506310 57109.502811 57112.489705
158.630000 57097.588601 57102.309277 57108.496632 57107.647818 57112.539404 57116.784118
158.660000 57100.358975 57104.931091 57111.919725 57110.878182 57115.932466 57119.531804
158.700000 57104.945361 57109.087199 57116.110176 57114.884691 57119.788100 57122.983765
158.730000 57107.248632 57112.539212 57118.903233 57117.974768 57122.464739 57125.152498
158.760000 57110.448913 57116.912733 57121.709605 57120.937246 57124.854565 57127.179657
158.790000 57113.583631 57120.231822 57124.286164 57123.623063 57126.999757 57129.119491
158.820000 57118.718387 57123.380285 57126.602905 57126.221978 57129.035202 57131.428362
158.850000 57122.464585 57125.894974 57128.859689 57128.575338 57131.284398 57133.737975
158.880000 57124.729482 57128.134415 57131.037732 57130.807897 57133.214885 57135.873832
158.900000 57126.537183 57129.733780 57132.655085 57132.513572 57134.779850 57139.549934
158.930000 57128.837643 57132.227007 57135.098986 57135.448416 57138.499029 57144.777160
158.960000 57131.553309 57134.880654 57137.849891 57138.753121 57143.255933 57149.480887
158.990000 57134.179588 57137.776760 57141.578941 57142.264595 57147.141537 57154.056297
159.020000 57137.062317 57140.872644 57144.906602 57145.676350 57150.390276 57158.208363
159.050000 57139.914001 57144.094328 57148.269939 57148.969078 57155.001102 57161.318941
159.080000 57143.084727 57146.779337 57151.099386 57152.058577 57158.214209 57163.824438
159.090000 57144.106236 57147.841961 57152.127460 57153.098245 57159.442200 57164.772834
159.110000 57145.941501 57149.501475 57154.320789 57155.139472 57161.126534 57166.792412
159.140000 57148.784250 57152.441921 57157.783692 57158.296285 57164.286328 57169.011898
159.180000 57152.222253 57156.662764 57162.608353 57162.448435 57168.747045 57172.901854
159.210000 57154.806335 57159.792321 57165.920580 57165.629762 57171.888470 57175.304500
159.240000 57157.656863 57162.483089 57169.120338 57168.653171 57174.158559 57178.532854
159.270000 57160.489243 57165.730525 57171.950768 57171.670049 57176.934800 57181.981317
159.300000 57163.147121 57169.334233 57174.836366 57174.614906 57179.515368 57184.903834
159.330000 57166.121133 57172.701946 57177.841780 57177.544834 57182.090106 57187.799162
159.360000 57169.145389 57175.465374 57180.778432 57180.401770 57184.953690 57190.109867
159.390000 57172.419982 57178.674090 57183.547608 57183.408071 57188.212335 57192.973873
159.420000 57175.712182 57181.901258 57186.227297 57186.429809 57191.492870 57195.767617
159.450000 57178.971097 57185.057452 57189.213529 57189.491967 57194.919300 57199.580773
159.480000 57182.014325 57187.577474 57192.246576 57192.425607 57197.995245 57202.289103
159.510000 57184.869402 57190.203013 57195.251547 57195.437127 57201.096946 57204.935665
159.540000 57187.108572 57192.864328 57198.745168 57198.368404 57203.896647 57207.072589
159.570000 57190.263797 57195.431253 57202.185947 57201.294457 57206.377947 57209.107586
159.600000 57193.607143 57198.900264 57205.163764 57204.104626 57208.571219 57211.308173
159.630000 57196.815794 57202.523237 57208.038979 57206.944625 57210.872631 57213.325932
159.660000 57199.792825 57205.441143 57210.636539 57209.682428 57213.116137 57215.615341
159.690000 57202.695524 57208.916208 57212.937234 57212.261256 57215.303257 57218.356967
159.720000 57206.879002 57212.250298 57214.908632 57214.627023 57217.161703 57221.042379
159.750000 57211.155286 57214.930018 57217.005602 57216.992855 57219.092626 57222.819446
159.780000 57214.601514 57216.945523 57218.820129 57219.013106 57221.011334 57225.411248
159.810000 57216.717966 57218.734713 57220.666533 57220.998803 57223.220117 57227.635895
159.840000 57218.689374 57220.548537 57222.819484 57223.235767 57225.620392 57231.581654
159.870000 57220.618875 57222.720214 57225.137934 57225.685765 57228.702517 57234.325185
159.900000 57222.425015 57224.888636 57227.797303 57228.314630 57231.899756 57236.654417
159.930000 57224.646711 57227.436936 57230.767735 57231.050712 57234.928079 57238.933861
159.940000 57225.409733 57228.311064 57231.664582 57231.975822 57235.784453 57239.767010
159.970000 57227.944586 57230.984022 57234.309146 57234.609936 57238.435187 57242.117940
160.000000 57229.842074 57233.406207 57236.860787 57237.030644 57240.695988 57244.794337
160.030000 57232.551004 57235.661862 57239.257744 57239.402260 57243.139624 57247.176122
160.060000 57234.728325 57238.081546 57241.600325 57241.849715 57245.653443 57250.034309
160.090000 57236.894293 57240.279339 57244.069643 57244.234089 57248.522356 57252.981470
160.120000 57238.972671 57242.529538 57246.520836 57246.702495 57250.938057 57255.611414
160.150000 57241.149713 57244.780767 57249.114804 57249.208581 57253.607716 57258.461835
160.180000 57243.535025 57247.209779 57251.478999 57251.705864 57256.201325 57260.867026
160.210000 57245.974773 57249.671189 57254.165560 57254.324040 57258.849204 57263.429138
160.240000 57248.274471 57252.642998 57256.931361 57257.066786 57261.769281 57266.302521
160.270000 57250.636627 57255.136789 57259.846093 57259.925001 57264.761291 57269.623823
160.300000 57253.737112 57257.651982 57262.828510 57262.911449 57267.768151 57273.425401
160.330000 57256.224411 57260.320265 57266.040766 57266.350696 57271.976347 57278.606263
160.360000 57259.099782 57263.140528 57269.263769 57269.807357 57276.884647 57283.029983
160.390000 57261.571654 57266.280807 57273.092745 57273.530924 57280.790410 57286.810634
160.420000 57264.504208 57269.872867 57277.745469 57277.509851 57285.002950 57289.162902
160.450000 57267.286454 57273.872311 57282.623423 57281.326059 57287.714095 57291.883097
160.480000 57270.732292 57279.044499 57286.041750 57285.032707 57290.137806 57295.105627
160.510000 57276.072808 57284.220657 57288.509803 57288.338978 57292.850301 57299.000111
160.540000 57281.126661 57287.051457 57291.153201 57291.397485 57295.888046 57302.684342
160.570000 57285.600863 57289.498336 57293.791569 57294.403154 57299.736664 57305.470872
160.600000 57288.110500 57291.954917 57297.036603 57297.477867 57303.481427 57308.628496
160.630000 57290.651008 57294.530048 57300.745662 57300.602395 57306.516439 57311.033715
160.660000 57292.992583 57297.567738 57304.122855 57303.703569 57308.941536 57313.328132
160.690000 57295.377703 57301.938762 57307.268815 57306.565665 57311.146486 57315.726769
160.720000 57298.455714 57305.154518 57309.423870 57309.104722 57313.411876 57317.576508
160.750000 57302.962749 57307.500124 57311.421796 57311.525736 57315.828798 57319.805575
160.780000 57306.294685 57309.693733 57313.493393 57313.777618 57318.107024 57322.608665
160.810000 57308.521863 57311.692282 57315.895298 57316.059351 57320.549025 57324.389697
160.840000 57310.372331 57313.894485 57318.108116 57318.268468 57322.708567 57327.320928
160.870000 57312.354394 57316.030148 57320.321413 57320.527291 57324.834771 57329.854156
160.900000 57314.801068 57317.942565 57322.844381 57322.791316 57327.151654 57332.214240
160.930000 57316.892976 57320.059706 57324.992922 57324.956414 57329.598982 57333.985551
160.990000 57320.625621 57324.296293 57329.255164 57329.081891 57333.484611 57336.812333
161.020000 57322.588754 57326.786971 57331.656898 57331.211989 57335.414632 57338.478457
161.050000 57324.572518 57329.121430 57333.761609 57333.358851 57337.323945 57340.546944
161.080000 57326.260858 57331.343051 57335.857515 57335.419953 57339.379585 57342.427037
161.110000 57327.978987 57333.641987 57337.908534 57337.525895 57341.285375 57344.209751
161.140000 57330.654411 57335.912558 57340.208431 57339.663914 57343.370763 57346.121534
161.170000 57332.952815 57338.194899 57342.234000 57341.853826 57345.554493 57348.423826
161.200000 57335.542712 57340.448708 57344.558807 57344.096189 57347.898071 57350.328502
161.230000 57337.826440 57342.720932 57346.997851 57346.409949 57349.815642 57352.193771
161.260000 57340.121530 57345.143931 57349.172328 57348.611583 57351.698703 57354.285779
161.290000 57342.355653 57347.796361 57351.021617 57350.682017 57353.614193 57356.434454
161.320000 57345.025362 57349.769460 57352.677319 57352.652796 57355.531728 57359.538778
161.350000 57347.855808 57351.561259 57354.508097 57354.609582 57357.351257 57362.617533
161.380000 57350.014130 57353.348177 57356.385638 57356.617868 57359.731497 57365.390840
161.410000 57351.573024 57355.030731 57358.440301 57358.807433 57362.689162 57367.761674
161.440000 57353.343470 57356.886454 57360.874708 57361.218235 57365.798705 57371.205667
161.470000 57355.280671 57358.967030 57363.699958 57363.776658 57368.591911 57373.679352
161.500000 57356.945129 57361.519837 57366.470537 57366.461866 57371.246386 57376.071788
161.530000 57359.297279 57364.427170 57369.150649 57369.096816 57373.650605 57378.905369
161.560000 57361.593509 57367.449092 57371.758962 57371.891284 57376.276779 57382.006632
161.590000 57365.189948 57370.190963 57374.406249 57374.798633 57379.742017 57385.766260
161.620000 57368.592931 57372.631007 57377.319048 57377.709729 57383.330655 57388.960463
161.650000 57370.728862 57375.105624 57380.375708 57380.819720 57386.790245 57392.130762
161.680000 57373.226522 57377.982503 57383.785831 57384.102046 57389.972093 57396.199334
161.710000 57376.387576 57381.526114 57387.536957 57387.479830 57392.870498 57399.920631
161.740000 57379.370033 57384.903844 57390.768570 57390.948006 57397.263861 57403.548844
161.770000 57382.846624 57388.281088 57393.922926 57394.256901 57400.560520 57406.790327
161.800000 57386.613444 57391.411444 57397.325046 57397.680315 57404.137103 57410.658107
161.830000 57389.645023 57394.966431 57400.952977 57401.147592 57407.419097 57413.299769
161.860000 57392.422178 57398.624498 57404.307834 57404.550670 57411.084391 57415.592772
161.890000 57394.928852 57402.172979 57408.091450 57407.798617 57414.083243 57418.468649
161.920000 57399.117738 57405.348691 57411.340729 57411.025917 57416.721430 57421.532625
161.950000 57402.895010 57408.536686 57414.344819 57414.082380 57419.445814 57424.195660
161.980000 57406.064538 57411.915632 57417.380618 57417.185677 57422.441103 57427.365609
162.010000 57408.720692 57414.737097 57420.374353 57420.200873 57425.509735 57430.900707
162.040000 57411.531112 57417.542341 57423.378588 57423.210742 57428.692913 57434.160899
162.070000 57414.647122 57420.277686 57426.425586 57426.197503 57431.738288 57437.418138
162.100000 57417.324902 57423.398016 57429.258298 57429.153035 57434.548266 57441.023968
162.130000 57420.909642 57426.488696 57431.952752 57432.148729 57437.965555 57443.942665
162.160000 57423.739750 57429.366341 57435.037105 57435.228126 57441.394244 57446.557172
162.190000 57426.681100 57432.035618 57437.740623 57438.028324 57444.441043 57449.204844
162.220000 57429.990664 57434.763223 57440.857816 57440.878288 57447.333859 57451.888116
162.250000 57432.612338 57437.639373 57443.778728 57443.659141 57449.728976 57454.516871
162.310000 57437.952661 57443.209935 57449.409471 57449.180649 57454.476445 57460.074244
162.370000 57443.475731 57449.279315 57454.931080 57454.745983 57460.133800 57465.611317
162.400000 57445.931454 57452.010250 57457.693374 57457.567033 57462.932111 57468.030260
162.430000 57449.017161 57454.832358 57460.525435 57460.454093 57465.851887 57471.063588
162.460000 57452.525402 57457.596757 57463.312380 57463.274413 57468.813433 57473.679093
162.490000 57456.114473 57460.457879 57465.978558 57466.085145 57471.711511 57476.485287
162.520000 57458.673394 57463.559233 57468.790105 57468.963463 57474.650979 57478.861461
162.550000 57461.067753 57466.443144 57471.707862 57471.839489 57477.437167 57482.164175
162.580000 57464.072684 57469.573516 57474.683320 57474.760084 57480.074527 57484.821409
162.610000 57467.527025 57472.749344 57477.806751 57477.845796 57482.856465 57488.417270
162.640000 57470.295735 57475.816683 57480.985396 57480.783386 57485.609861 57491.289908
162.670000 57472.768990 57478.902227 57483.711412 57483.655356 57488.631701 57493.563553
162.700000 57476.161252 57481.689819 57486.493437 57486.587893 57491.514055 57496.150867
162.730000 57479.376823 57484.452478 57489.405391 57489.397366 57494.347387 57499.087922
162.760000 57482.579942 57487.554087 57492.399463 57492.337147 57497.409529 57502.276566
162.790000 57485.430854 57490.168593 57495.111805 57495.082682 57500.172617 57504.914931
162.820000 57487.974561 57492.695566 57497.677093 57497.782547 57502.755652 57507.528646
162.850000 57491.249601 57495.362583 57500.287238 57500.392825 57505.182917 57510.644803
162.880000 57493.898008 57498.227535 57502.822898 57503.054896 57507.959502 57513.548970
162.910000 57496.651405 57501.084398 57505.432740 57505.617100 57510.317299 57516.009275
162.940000 57498.675209 57503.530928 57507.927873 57508.150007 57512.922431 57518.826711
162.970000 57501.270983 57506.184362 57510.464802 57510.797208 57515.470522 57521.471083
163.000000 57504.178963 57508.724923 57513.246458 57513.477051 57518.109991 57524.063508
163.030000 57507.003148 57511.162240 57515.689059 57516.044901 57520.893976 57526.786415
163.060000 57509.742287 57513.629630 57518.625631 57518.877603 57524.082524 57529.423660
163.090000 57512.331120 57516.222457 57521.625632 57521.676314 57526.959543 57532.316749
163.120000 57514.493870 57518.985765 57524.619883 57524.503961 57529.751312 57534.841096
163.150000 57517.272271 57521.717864 57527.571444 57527.340162 57532.592837 57537.350678
163.180000 57519.875194 57525.103743 57530.403221 57530.239413 57535.313939 57540.569682
163.210000 57522.657112 57528.284699 57533.198760 57533.089016 57537.960557 57543.105284
163.240000 57525.425025 57531.013781 57535.885905 57535.837380 57540.872887 57546.712505
163.270000 57528.631642 57533.727538 57538.399584 57538.566319 57543.373427 57550.163142
163.300000 57531.581118 57536.525614 57540.895150 57541.293776 57546.050740 57552.921691
163.330000 57534.555516 57539.307676 57543.656357 57544.062125 57548.732142 57555.040136
163.360000 57537.459129 57542.018371 57546.564646 57546.863228 57551.390694 57557.481917
163.390000 57540.087068 57544.668379 57549.611975 57549.758495 57555.239582 57560.065164
163.420000 57542.291861 57547.424890 57552.583874 57552.791867 57558.780386 57563.159148
163.450000 57545.510843 57550.082986 57555.298649 57555.727268 57561.550589 57566.321303
163.480000 57548.613295 57552.648732 57558.152723 57558.586690 57564.227114 57568.816832
163.510000 57551.597711 57556.337627 57561.767356 57561.672326 57567.388269 57571.939542
163.540000 57554.459134 57559.585329 57565.377319 57564.965816 57570.508166 57575.718747
163.570000 57557.080388 57562.109120 57568.411328 57567.982985 57573.665250 57578.226891
163.600000 57559.906203 57564.653594 57571.447816 57570.934487 57577.432714 57580.895950
163.630000 57562.757776 57567.234237 57574.602037 57573.988639 57580.155426 57583.514003
163.660000 57564.634816 57570.054900 57577.900506 57576.902540 57582.973259 57585.508958
163.690000 57568.056853 57573.676767 57580.803358 57579.778753 57585.104300 57587.781556
163.720000 57571.030174 57577.086546 57583.543878 57582.485644 57587.364506 57590.160265
163.750000 57574.353298 57579.980262 57586.115040 57585.091597 57589.638761 57592.355414
163.780000 57578.758147 57583.230429 57588.437854 57587.654178 57591.565182 57594.316848
163.810000 57581.460207 57585.889979 57590.892834 57590.151750 57593.555457 57596.615648
163.840000 57583.876344 57588.990374 57593.221456 57592.566986 57595.587212 57598.753487
163.870000 57586.725351 57591.763645 57595.378225 57594.961146 57597.928192 57601.098853
163.900000 57589.302765 57594.678752 57597.523214 57597.341507 57600.105273 57603.393437
163.930000 57592.155733 57597.005382 57599.490365 57599.574098 57602.381835 57606.237669
163.960000 57595.416787 57598.913866 57601.551460 57601.858285 57604.814067 57610.146266
163.990000 57597.490815 57600.908773 57603.525368 57604.177488 57607.668603 57613.428400
164.020000 57599.981208 57602.948366 57606.007822 57606.800590 57611.473062 57616.320643
164.050000 57602.357357 57605.087482 57608.874980 57609.640497 57614.829492 57619.006277
164.080000 57604.658794 57607.751601 57612.431362 57612.679998 57617.766435 57621.941170
164.110000 57607.181529 57610.531500 57615.868062 57615.950845 57621.101328 57626.337177
164.140000 57609.573388 57613.700452 57619.233501 57619.287128 57624.529336 57630.411754
164.170000 57613.103106 57617.027671 57622.946323 57622.710710 57627.816720 57633.208325
164.200000 57616.041235 57620.738057 57626.858794 57626.309171 57631.051088 57635.975784
164.230000 57619.379607 57624.821240 57630.514887 57629.844283 57634.342258 57638.889813
164.260000 57622.420440 57630.276052 57632.957240 57633.024428 57636.997948 57641.219984
164.290000 57626.149807 57632.581589 57635.467522 57635.696772 57639.438509 57643.518713
164.310000 57628.525393 57634.357403 57637.283577 57637.391659 57640.917690 57645.104191
164.340000 57633.323441 57636.749318 57639.534644 57639.816329 57643.112752 57647.530509
164.370000 57636.298268 57639.037172 57641.746644 57642.085478 57645.081829 57650.702839
164.400000 57638.346766 57641.022546 57643.938778 57644.369040 57647.876333 57653.101555
164.430000 57640.492890 57642.923801 57646.096296 57646.630490 57650.828010 57655.405365
164.460000 57642.632269 57644.865258 57648.480943 57649.029084 57653.466692 57657.367008
164.490000 57644.483793 57647.143086 57651.459073 57651.575852 57656.002966 57659.855036
164.520000 57646.013662 57649.731468 57654.133081 57654.152025 57658.339588 57662.267233
164.550000 57648.053875 57652.637126 57656.874435 57656.758210 57660.732651 57664.716102
164.580000 57650.823685 57655.152949 57659.619276 57659.445913 57663.457352 57668.190048
164.610000 57653.055723 57657.803261 57662.293205 57662.160131 57666.524070 57671.066556
164.640000 57656.201805 57660.584214 57665.268405 57665.206323 57669.683094 57673.941074
164.670000 57658.898666 57663.162188 57668.516786 57668.240383 57672.746611 57677.248912
164.700000 57661.974168 57666.342875 57671.891951 57671.386003 57675.757989 57679.914971
