depth(m) lower_95(kyr) lower_68(kyr) median(kyr) mean(kyr) upper_68(kyr) upper_95(kyr)
552.000000 100.825447 103.660871 105.398808 105.157319 106.661235 108.318095
552.142857 100.843080 103.698890 105.436304 105.188843 106.683669 108.339910
552.285714 100.865483 103.733116 105.469706 105.219433 106.723506 108.365397
552.428571 100.891957 103.766421 105.494840 105.249619 106.743647 108.390444
552.571429 100.913334 103.796150 105.520680 105.279766 106.759447 108.414117
552.714286 100.932696 103.811790 105.547173 105.309804 106.784346 108.428358
552.857143 100.990953 103.827522 105.566708 105.339743 106.817715 108.451283
553.000000 101.014677 103.850476 105.587676 105.368030 106.845597 108.469177
553.142857 101.037106 103.886618 105.608364 105.395829 106.871175 108.487256
553.285714 101.062080 103.919322 105.632317 105.424408 106.892833 108.515688
553.428571 101.113267 103.995040 105.653431 105.453292 106.929765 108.538300
553.571429 101.187979 104.063139 105.668341 105.481885 106.944093 108.581716
553.714286 101.235466 104.104171 105.693912 105.509839 106.966898 108.600681
553.857143 101.258207 104.134913 105.716257 105.539018 107.015770 108.630181
554.000000 101.295004 104.211796 105.733415 105.567711 107.051556 108.644661
554.142857 101.349715 104.246915 105.759721 105.595876 107.082335 108.665123
554.285714 101.375257 104.279934 105.780484 105.623372 107.097069 108.685343
554.428571 101.399220 104.337477 105.802967 105.651277 107.111454 108.704399
554.571429 101.430024 104.386470 105.826346 105.680452 107.147359 108.720855
554.714286 101.477390 104.420463 105.849111 105.708826 107.172439 108.738605
554.857143 101.514338 104.459802 105.873823 105.737495 107.226719 108.756721
555.000000 101.530995 104.486259 105.896123 105.765019 107.254682 108.777331
555.142857 101.550009 104.520349 105.922994 105.793639 107.268654 108.816007
555.285714 101.600301 104.544988 105.949870 105.821573 107.285458 108.830254
555.428571 101.644437 104.603964 105.981224 105.848717 107.299522 108.871407
555.571429 101.668594 104.638186 106.008463 105.876297 107.331759 108.912591
555.714286 101.702633 104.668868 106.028825 105.904505 107.362160 108.934195
555.857143 101.777388 104.688661 106.047376 105.933027 107.385986 108.962070
556.000000 101.810894 104.728801 106.068762 105.960425 107.410666 108.981633
556.142857 101.921836 104.755885 106.082739 105.988585 107.436417 109.004223
556.285714 101.938481 104.778778 106.125065 106.016534 107.467691 109.039287
556.428571 101.984936 104.799204 106.148371 106.045048 107.530574 109.077985
556.571429 102.004448 104.844864 106.177560 106.073664 107.562129 109.105267
556.714286 102.054493 104.868384 106.195811 106.101112 107.581680 109.132650
556.857143 102.093752 104.893172 106.223220 106.129378 107.604244 109.155264
557.000000 102.114642 104.921993 106.247110 106.157808 107.641284 109.177660
557.142857 102.139282 104.947597 106.279794 106.185949 107.660263 109.203742
557.285714 102.162575 104.977861 106.305012 106.213490 107.676965 109.237960
557.428571 102.181222 105.011474 106.331640 106.241283 107.722415 109.250488
557.571429 102.287311 105.049555 106.363989 106.270102 107.750862 109.271733
557.714286 102.348415 105.079853 106.388827 106.297447 107.801912 109.289208
557.857143 102.375571 105.101532 106.415023 106.325689 107.822453 109.320294
558.000000 102.392697 105.120374 106.440946 106.352752 107.856361 109.376828
558.142857 102.417811 105.138699 106.467586 106.379452 107.897245 109.399072
558.285714 102.439794 105.168316 106.489674 106.407021 107.939687 109.428969
558.428571 102.499102 105.201403 106.510230 106.434334 107.957669 109.480629
558.571429 102.531103 105.241597 106.538170 106.462431 107.991484 109.496698
558.714286 102.568895 105.267523 106.562497 106.490506 108.010804 109.529599
558.857143 102.591103 105.294411 106.588711 106.518010 108.045091 109.553782
559.000000 102.608052 105.324258 106.608026 106.545591 108.096008 109.572433
559.142857 102.649689 105.355943 106.638355 106.572906 108.125540 109.598134
559.285714 102.678584 105.393205 106.661480 106.600303 108.150863 109.623348
559.428571 102.748869 105.417016 106.684469 106.627358 108.174415 109.660128
559.571429 102.775318 105.440382 106.708493 106.654800 108.197617 109.681582
559.714286 102.811517 105.467034 106.730377 106.682654 108.228344 109.699549
559.857143 102.858967 105.503997 106.760061 106.710226 108.251561 109.711385
560.000000 102.901029 105.536476 106.787839 106.737979 108.278387 109.726429
560.142857 102.928127 105.573074 106.807076 106.763949 108.300802 109.744682
560.285714 102.954928 105.601080 106.833852 106.791412 108.323478 109.764313
560.428571 102.971976 105.624644 106.863640 106.818534 108.338466 109.789314
560.571429 102.994234 105.656031 106.889092 106.845619 108.357738 109.808017
560.714286 103.018314 105.670398 106.918982 106.872885 108.375465 109.828904
560.857143 103.093869 105.699302 106.938294 106.900367 108.398005 109.851157
561.000000 103.205310 105.723808 106.971573 106.927953 108.409878 109.913687
561.142857 103.269845 105.758632 106.992008 106.954166 108.437766 109.963545
561.285714 103.349227 105.782631 107.012814 106.982654 108.479606 109.985288
561.428571 103.407665 105.798465 107.042316 107.010301 108.515155 110.001520
561.571429 103.447023 105.820549 107.064179 107.037590 108.531324 110.021175
561.714286 103.515832 105.848052 107.091100 107.064552 108.558725 110.042963
561.857143 103.563203 105.887323 107.111273 107.091654 108.615759 110.062676
562.000000 103.592070 105.905528 107.139604 107.119474 108.646208 110.079762
562.142857 103.656949 105.925174 107.160924 107.146161 108.664790 110.096399
562.285714 103.681567 105.952280 107.190031 107.174297 108.691187 110.121495
562.428571 103.712506 105.972275 107.208585 107.201464 108.722425 110.142817
562.571429 103.772435 105.996556 107.230876 107.228677 108.753771 110.163698
562.714286 103.831453 106.021248 107.255649 107.255375 108.773825 110.184416
562.857143 103.891642 106.074072 107.275402 107.282229 108.797012 110.204842
563.000000 103.919862 106.123169 107.314831 107.308960 108.817478 110.229408
563.142857 103.947710 106.158029 107.344498 107.335293 108.839057 110.246925
563.285714 103.990008 106.178861 107.369365 107.361191 108.858860 110.274987
563.428571 104.006706 106.205283 107.392648 107.387421 108.884070 110.301056
563.571429 104.052488 106.230421 107.416353 107.414449 108.910070 110.357193
563.714286 104.086437 106.267530 107.437584 107.441907 108.942834 110.416017
563.857143 104.121036 106.289020 107.464550 107.467996 108.973803 110.440999
564.000000 104.150624 106.309701 107.484469 107.492930 109.001443 110.461642
564.142857 104.178095 106.335279 107.509744 107.519009 109.027892 110.473814
564.285714 104.200937 106.370926 107.527056 107.544733 109.050302 110.496305
564.428571 104.236697 106.395589 107.553643 107.570316 109.068071 110.533225
564.571429 104.298646 106.424671 107.581489 107.596879 109.091131 110.569211
564.714286 104.340172 106.456303 107.603923 107.623012 109.113551 110.599080
564.857143 104.376609 106.484880 107.632725 107.648713 109.134777 110.622148
565.000000 104.396646 106.508333 107.655986 107.673464 109.165284 110.673882
565.142857 104.443197 106.543182 107.671963 107.698731 109.189448 110.701659
565.285714 104.493540 106.576669 107.693077 107.724754 109.207574 110.734740
565.428571 104.539514 106.604401 107.719519 107.750911 109.229449 110.763392
565.571429 104.555838 106.644425 107.744428 107.776571 109.251019 110.792810
565.714286 104.578406 106.670335 107.776790 107.802239 109.279386 110.811154
565.857143 104.592339 106.697023 107.801684 107.827517 109.305322 110.865414
566.000000 104.611617 106.725246 107.824697 107.853815 109.333549 110.885138
566.142857 104.655594 106.746229 107.852865 107.880334 109.355500 110.905603
566.285714 104.674427 106.771346 107.878021 107.906047 109.374172 110.943370
566.428571 104.738659 106.790383 107.894363 107.931422 109.395276 110.965862
566.571429 104.767854 106.811813 107.916529 107.957129 109.417588 111.049924
566.714286 104.808303 106.834768 107.941529 107.983565 109.441047 111.078668
566.857143 104.869879 106.855901 107.970372 108.009140 109.461311 111.130290
567.000000 104.922834 106.879107 107.993215 108.033836 109.484090 111.143877
567.142857 104.957605 106.911299 108.020345 108.059910 109.501906 111.163259
567.285714 105.005628 106.938873 108.039197 108.084955 109.518512 111.180674
567.428571 105.028052 106.950251 108.074912 108.110076 109.545165 111.206540
567.571429 105.052156 106.971337 108.099393 108.136056 109.566691 111.228659
567.714286 105.119733 106.994988 108.122478 108.161755 109.589055 111.249806
567.857143 105.143481 107.014933 108.148405 108.187177 109.611032 111.278229
568.000000 105.174289 107.031486 108.159703 108.212210 109.645184 111.296171
568.142857 105.226276 107.049345 108.187716 108.237926 109.673338 111.315986
568.285714 105.287205 107.066780 108.221460 108.263315 109.705132 111.332905
568.428571 105.320565 107.088436 108.252001 108.288702 109.732814 111.345065
568.571429 105.370309 107.118585 108.287417 108.314327 109.750446 111.368570
568.714286 105.443827 107.148308 108.313929 108.339735 109.772276 111.395531
568.857143 105.498623 107.181638 108.333602 108.364427 109.799854 111.428692
569.000000 105.532785 107.201514 108.357819 108.389600 109.817834 111.457074
569.142857 105.606505 107.225591 108.382667 108.414659 109.833401 111.485041
569.285714 105.635074 107.247406 108.410355 108.439585 109.863945 111.508816
569.428571 105.668578 107.264595 108.430656 108.465403 109.888079 111.528026
569.571429 105.692872 107.301510 108.454423 108.490679 109.922042 111.545723
569.714286 105.768086 107.321859 108.481710 108.516630 109.941440 111.569923
569.857143 105.807082 107.344401 108.514419 108.542791 109.964005 111.606508
570.000000 105.869592 107.380815 108.539538 108.568836 109.991374 111.625832
570.142857 105.923705 107.402468 108.561915 108.594837 110.019985 111.651463
570.285714 105.965185 107.422881 108.577681 108.619862 110.040057 111.681013
570.428571 106.080641 107.458976 108.599839 108.646580 110.059050 111.700255
570.571429 106.139583 107.471773 108.622382 108.672940 110.083982 111.711746
570.714286 106.180133 107.495477 108.646060 108.698512 110.100767 111.726736
570.857143 106.202894 107.523680 108.662555 108.724347 110.116557 111.741295
571.000000 106.221606 107.545207 108.690145 108.749931 110.133503 111.759079
571.142857 106.239947 107.579751 108.706598 108.776691 110.166229 111.797530
571.285714 106.255339 107.604748 108.729164 108.802964 110.197799 111.818512
571.428571 106.269585 107.627191 108.750487 108.828881 110.225732 111.844678
571.571429 106.322993 107.656089 108.774326 108.854667 110.244950 111.862827
571.714286 106.394018 107.687656 108.797775 108.880574 110.261376 111.883467
571.857143 106.443355 107.714833 108.820377 108.906122 110.290493 111.904856
572.000000 106.489862 107.742348 108.851046 108.931810 110.322354 111.922371
572.142857 106.564466 107.760782 108.871447 108.958174 110.352570 111.942106
572.285714 106.602618 107.785806 108.889938 108.984136 110.372799 111.966629
572.428571 106.676987 107.806206 108.907881 109.010458 110.405386 111.984174
572.571429 106.708198 107.824717 108.939543 109.036742 110.432206 112.005977
572.714286 106.729950 107.854358 108.966370 109.063508 110.477593 112.027216
572.857143 106.748736 107.875167 108.984327 109.089926 110.496488 112.053672
573.000000 106.763579 107.895299 109.002301 109.115445 110.537544 112.076455
573.142857 106.814515 107.926121 109.027746 109.143132 110.567904 112.093826
573.285714 106.841102 107.965308 109.042287 109.170136 110.590811 112.106954
573.428571 106.868368 107.981231 109.057074 109.195186 110.623380 112.124735
573.571429 106.896540 107.990683 109.088016 109.221103 110.655385 112.130201
573.714286 106.946422 108.010308 109.104184 109.246437 110.665753 112.139321
573.857143 106.996536 108.049578 109.127242 109.272478 110.684751 112.157967
574.000000 107.030942 108.089998 109.153703 109.298280 110.705402 112.172290
574.142857 107.055548 108.113709 109.172190 109.323950 110.729231 112.193843
574.285714 107.069015 108.132769 109.193826 109.350288 110.760824 112.209954
574.428571 107.092724 108.154480 109.211526 109.376966 110.801999 112.228989
574.571429 107.145350 108.181116 109.242218 109.403537 110.843230 112.249391
574.714286 107.162281 108.201536 109.267053 109.430038 110.879698 112.324929
574.857143 107.190818 108.212097 109.295524 109.455877 110.898418 112.350493
575.000000 107.214088 108.223262 109.315450 109.481755 110.919388 112.383328
575.142857 107.237753 108.239710 109.344918 109.507500 110.950905 112.427552
575.285714 107.260512 108.260578 109.363776 109.533027 110.977847 112.450861
575.428571 107.280229 108.298165 109.380478 109.558943 111.006354 112.471805
575.571429 107.300053 108.324882 109.394343 109.584321 111.034510 112.486583
575.714286 107.326952 108.348531 109.420507 109.610547 111.058203 112.505809
575.857143 107.377070 108.370399 109.452337 109.636327 111.085768 112.523221
576.000000 107.400701 108.404862 109.476020 109.662846 111.111535 112.555131
576.142857 107.441471 108.447419 109.489834 109.689829 111.163076 112.587408
576.285714 107.453811 108.464571 109.520996 109.717266 111.217628 112.601547
576.428571 107.471317 108.482199 109.542606 109.745300 111.256012 112.626102
576.571429 107.490295 108.514608 109.564559 109.773609 111.288653 112.636348
576.714286 107.508734 108.539498 109.584118 109.801272 111.314308 112.650631
576.857143 107.556149 108.562271 109.598616 109.830088 111.354000 112.672834
577.000000 107.584684 108.582766 109.611927 109.857643 111.388366 112.695364
577.142857 107.618448 108.608339 109.628246 109.886471 111.407640 112.705503
577.285714 107.661501 108.646125 109.657453 109.915826 111.453020 112.721077
577.428571 107.705050 108.666817 109.690999 109.946151 111.470806 112.730434
577.571429 107.751537 108.699449 109.717106 109.976793 111.506912 112.741315
577.714286 107.778661 108.730684 109.743831 110.009556 111.534077 112.763121
577.857143 107.801355 108.792599 109.769509 110.041377 111.556959 112.795317
578.000000 107.833838 108.828823 109.803211 110.072449 111.580043 112.817806
578.142857 107.887697 108.889623 109.834677 110.104475 111.607262 112.845667
578.285714 107.931482 108.920714 109.867168 110.136244 111.633968 112.891026
578.428571 107.976170 108.953808 109.895491 110.167970 111.662328 112.925787
578.571429 107.999015 108.985037 109.927237 110.200378 111.707359 112.979765
578.714286 108.031868 109.019801 109.950186 110.234339 111.733656 113.002055
578.857143 108.055177 109.054904 109.978197 110.265911 111.751264 113.040364
579.000000 108.113041 109.091458 110.006914 110.297881 111.778992 113.121034
579.142857 108.153704 109.122542 110.033702 110.330430 111.818741 113.147992
579.285714 108.187872 109.165310 110.062658 110.362322 111.854203 113.156638
579.428571 108.208388 109.188320 110.092393 110.394995 111.886243 113.179894
579.571429 108.233885 109.215454 110.122558 110.426245 111.910196 113.202936
579.714286 108.254353 109.248390 110.148119 110.458300 111.933814 113.237904
579.857143 108.278572 109.266580 110.175329 110.489510 111.965675 113.272449
580.000000 108.309245 109.293186 110.197267 110.522173 111.980864 113.286950
580.142857 108.325882 109.323135 110.227107 110.555773 112.002300 113.307820
580.285714 108.352194 109.354494 110.255386 110.589228 112.045583 113.325269
580.428571 108.382515 109.387152 110.279347 110.621394 112.084468 113.380007
580.571429 108.425115 109.410058 110.312923 110.653140 112.137721 113.433382
580.714286 108.451972 109.441510 110.360822 110.686751 112.172484 113.469203
580.857143 108.470168 109.484109 110.406763 110.719930 112.196049 113.507913
581.000000 108.501834 109.522326 110.437391 110.753119 112.231355 113.523419
581.142857 108.517732 109.569514 110.463740 110.785777 112.258163 113.560285
581.285714 108.534566 109.604824 110.509160 110.819097 112.297869 113.584990
581.428571 108.547731 109.633539 110.539037 110.850320 112.350377 113.612723
581.571429 108.565550 109.659159 110.569000 110.882551 112.385445 113.652519
581.714286 108.581305 109.677284 110.612121 110.914236 112.420530 113.699047
581.857143 108.603100 109.700325 110.658830 110.946987 112.456462 113.713796
582.000000 108.631805 109.727875 110.711691 110.979787 112.489861 113.736913
582.142857 108.666136 109.752694 110.740104 111.011849 112.516696 113.758303
582.285714 108.693805 109.774910 110.765222 111.044211 112.561246 113.800726
582.428571 108.725480 109.809015 110.801370 111.078027 112.600355 113.830571
582.571429 108.741689 109.833248 110.828729 111.111775 112.641344 113.878949
582.714286 108.764297 109.853790 110.866306 111.144968 112.675226 113.912484
582.857143 108.787646 109.888566 110.913975 111.177721 112.706436 113.935106
583.000000 108.817444 109.904847 110.953284 111.209978 112.747485 113.993882
583.142857 108.849144 109.926648 110.984800 111.242193 112.791001 114.009548
583.285714 108.870885 109.952048 111.023210 111.275381 112.832801 114.024740
583.428571 108.903668 109.980233 111.046882 111.307106 112.857867 114.161013
583.571429 108.925675 110.014350 111.089765 111.338979 112.893272 114.213006
583.714286 108.951263 110.047129 111.126724 111.372509 112.944560 114.267683
583.857143 108.970092 110.080601 111.154979 111.405229 112.985450 114.319618
584.000000 108.988880 110.098961 111.182187 111.437324 113.032677 114.344770
584.142857 109.041084 110.123472 111.218378 111.470707 113.059721 114.359155
584.285714 109.059340 110.153012 111.242286 111.504354 113.114026 114.400267
584.428571 109.081549 110.197463 111.273930 111.537978 113.148077 114.423000
584.571429 109.099168 110.223440 111.326964 111.572074 113.190180 114.462431
584.714286 109.133852 110.256678 111.371847 111.606944 113.253658 114.503474
584.857143 109.149491 110.282281 111.401715 111.643008 113.278952 114.526251
585.000000 109.202825 110.311447 111.434012 111.677257 113.317405 114.541014
585.144444 109.232544 110.336499 111.464605 111.713847 113.389356 114.566279
585.288889 109.258436 110.364752 111.497520 111.751005 113.427052 114.634482
585.433333 109.305299 110.405385 111.538933 111.788875 113.458187 114.679653
585.577778 109.374146 110.440960 111.603200 111.827607 113.500429 114.717718
585.722222 109.424726 110.483627 111.643392 111.864210 113.540452 114.750944
585.866667 109.477312 110.513846 111.691214 111.903141 113.586207 114.769122
586.011111 109.508014 110.544892 111.723770 111.941023 113.617546 114.812991
586.155556 109.552738 110.584250 111.754199 111.980471 113.640946 114.832007
586.300000 109.579264 110.619206 111.795443 112.020111 113.662517 114.865982
586.444444 109.647213 110.656403 111.846512 112.058650 113.690483 114.889912
586.588889 109.694384 110.689522 111.866973 112.098860 113.725487 114.914246
586.733333 109.720850 110.729376 111.925328 112.138668 113.765143 114.938093
586.877778 109.763193 110.758184 111.971852 112.177867 113.789803 114.972030
587.022222 109.807798 110.802002 112.010902 112.218128 113.821999 114.992718
587.166667 109.839926 110.828702 112.046176 112.257518 113.871432 115.012724
587.311111 109.879460 110.857214 112.085544 112.297263 113.906227 115.053855
587.455556 109.900449 110.887429 112.123679 112.336886 113.936686 115.074822
587.600000 109.921649 110.919706 112.174393 112.375612 113.976726 115.104766
587.744444 109.941130 110.955658 112.225516 112.415993 114.020270 115.124361
587.888889 110.034668 110.984793 112.255988 112.455897 114.046108 115.140378
588.033333 110.055626 111.024235 112.303583 112.496442 114.083424 115.170420
588.177778 110.090591 111.057747 112.351223 112.535473 114.113089 115.204356
588.322222 110.132986 111.085891 112.391795 112.573665 114.152454 115.245641
588.466667 110.167102 111.143164 112.445252 112.612676 114.197081 115.290174
588.611111 110.196892 111.171956 112.487862 112.652376 114.228078 115.335855
588.755556 110.219884 111.220196 112.541110 112.691721 114.265691 115.364721
