depth(m) lower_95(kyr) lower_68(kyr) median(kyr) mean(kyr) upper_68(kyr) upper_95(kyr)
0.390000 8.977324 9.805122 10.682574 10.717080 11.634561 12.575755
0.450000 11.774159 12.714282 13.739904 13.730443 14.710147 15.584203
0.480000 13.218078 14.043926 14.994013 14.985590 15.886979 16.637037
0.500000 13.738314 14.672210 15.610097 15.588743 16.435649 17.294238
0.510000 13.986691 14.962869 15.896174 15.849078 16.679602 17.502607
0.540000 14.740096 15.584585 16.515970 16.476265 17.288681 18.241687
0.570000 15.370187 16.183825 17.073967 17.087809 17.915855 19.011167
0.675000 17.010314 18.258798 19.378950 19.460290 20.608963 22.514261
0.780000 18.810274 20.511096 21.822259 21.965800 23.419444 25.813892
0.810000 19.520258 21.207519 22.589036 22.722536 24.251477 26.798032
0.870000 21.057086 22.559041 23.991550 24.233874 25.830723 28.635222
0.930000 22.906050 24.354757 25.637715 26.000030 27.746863 30.920868
1.020000 24.834880 26.469813 27.938285 28.253197 30.098079 33.061668
1.030000 25.033020 26.752668 28.244051 28.557941 30.396236 33.602406
1.120000 27.968611 29.433068 31.394734 31.618628 33.568477 37.382940
1.180000 29.519276 31.239513 33.130872 33.536818 35.788799 39.869791
1.210000 30.518140 32.298464 34.042861 34.576111 37.032123 41.205137
1.240000 31.479934 33.273028 35.014106 35.610951 38.278875 42.464496
1.270000 32.240734 34.161490 35.971103 36.606497 39.365855 43.295844
1.300000 33.035053 35.096025 37.047505 37.573152 40.275269 44.483443
1.330000 33.745191 35.864209 38.052540 38.525480 41.053001 46.208144
1.360000 34.482350 36.661637 39.175764 39.474021 41.966748 47.729803
1.390000 35.342100 37.472708 40.154343 40.385655 42.939770 48.609281
1.450000 36.686992 39.160541 42.058281 42.296458 44.935253 50.193470
1.590000 40.115884 42.978867 46.407054 46.816691 50.916077 55.035113
1.730000 43.168528 47.006833 51.280338 51.394310 56.108419 59.186735
1.870000 46.768933 51.696558 56.372502 55.967983 60.232574 62.647272
1.975000 49.725301 55.174220 60.211450 59.466114 63.402314 66.051442
2.080000 53.128379 58.963994 63.648763 62.899044 66.227983 68.623018
2.200000 57.916230 64.812740 67.241594 66.947529 69.613839 72.158471
2.320000 62.407227 69.063879 71.226547 71.273088 74.191273 77.251248
2.443333 69.045814 73.309243 76.984024 77.185013 81.380352 85.529609
2.566667 74.274727 79.488408 83.878833 83.216944 86.947855 88.802545
2.690000 85.624706 87.241612 88.960288 88.823418 90.422002 91.271211
2.720000 86.926272 88.447503 90.008851 89.809882 91.116413 91.908226
2.750000 88.021368 89.555807 90.788270 90.650692 91.765738 92.494827
2.780000 89.146081 90.423663 91.547724 91.422711 92.390192 93.022063
2.810000 90.059283 91.279113 92.313182 92.180753 93.032145 93.714542
2.840000 90.920076 92.099025 92.981572 92.893163 93.705215 94.463421
2.870000 91.734159 92.798805 93.562319 93.543152 94.321590 95.108738
2.900000 92.454894 93.464834 94.224525 94.234418 95.027348 95.969747
2.930000 93.248524 94.060337 94.836782 94.879194 95.694563 96.761519
2.960000 94.015665 94.783910 95.557353 95.639248 96.458677 97.678260
2.990000 94.867214 95.530249 96.427955 96.480556 97.407997 98.785304
3.020000 95.569315 96.359124 97.220061 97.345965 98.282971 99.673724
3.050000 96.254231 97.054099 98.010583 98.162858 99.276041 100.671392
3.080000 96.891788 97.769288 98.801980 98.942832 100.212421 101.409438
3.110000 97.573085 98.384709 99.584015 99.696382 101.052232 102.331025
3.140000 98.152974 99.098210 100.367618 100.454620 101.864067 103.031470
3.170000 98.692978 99.771267 101.194033 101.227745 102.740287 103.755470
3.230000 99.909251 101.149052 102.707903 102.694682 104.212904 105.320010
3.320000 101.387458 103.034152 104.672541 104.557434 105.983063 107.177799
3.380000 102.388112 104.233017 105.829309 105.710087 107.173523 108.445145
3.510000 104.612088 106.482049 108.043554 107.908514 109.262381 110.393986
3.640000 107.185620 108.935718 110.241687 110.092274 111.238036 112.241348
3.770000 109.961920 111.508809 112.408277 112.316390 113.183800 113.928875
3.800000 110.593581 112.069757 112.938957 112.860168 113.651124 114.442993
3.890000 112.964337 113.745309 114.458995 114.448256 115.167882 115.925391
3.950000 114.290893 114.964092 115.648321 115.655412 116.339002 117.007079
3.980000 114.994355 115.562015 116.230417 116.254776 116.959366 117.621542
4.050000 116.231058 116.849377 117.543306 117.539938 118.236696 118.912583
4.110000 117.277599 117.907090 118.544684 118.565561 119.214689 119.944017
4.140000 117.827930 118.475035 119.099397 119.134037 119.790599 120.561316
4.170000 118.418129 119.063773 119.725824 119.746112 120.396629 121.257372
4.200000 118.999866 119.624911 120.370169 120.426323 121.182486 122.365981
4.230000 119.608765 120.243830 120.977798 121.134479 121.968853 123.564112
4.260000 120.218426 120.857278 121.630589 121.857145 122.860353 124.836066
4.290000 120.700522 121.431064 122.322350 122.556906 123.674440 125.883748
4.320000 121.280382 122.059549 123.071237 123.312183 124.620654 126.518429
4.350000 122.053624 122.887700 123.959830 124.150161 125.526514 127.183980
4.380000 122.783061 123.673545 124.928890 125.055787 126.450824 128.008455
4.410000 123.592045 124.662514 125.959040 126.046990 127.470177 128.828854
4.440000 124.634759 125.931387 127.170630 127.214615 128.535242 129.965233
4.470000 126.265385 127.421586 128.703194 128.782226 130.245546 131.307698
4.500000 129.423234 130.264445 131.396530 131.352519 132.425881 133.150681
4.530000 130.958317 131.863566 132.743044 132.692288 133.543010 134.183370
4.560000 131.918244 132.941126 133.739287 133.636294 134.308512 134.886792
4.590000 132.857434 133.776712 134.409921 134.367763 134.985574 135.513215
4.620000 133.546780 134.366943 134.976649 134.946859 135.539448 136.089675
4.650000 134.124169 134.908549 135.492937 135.475327 136.079537 136.590559
4.680000 134.688940 135.401342 135.967213 135.961675 136.559264 137.123646
4.710000 135.227406 135.864091 136.422841 136.421585 137.003789 137.580116
4.740000 135.773886 136.362454 136.913725 136.937301 137.530446 138.213690
4.800000 136.608503 137.240512 137.866497 137.880456 138.527941 139.275955
4.830000 137.115043 137.732210 138.365537 138.398123 139.064979 139.794462
4.920000 138.346957 139.041157 139.738984 139.789967 140.516915 141.470683
5.010000 139.508892 140.343028 141.105667 141.185406 142.033541 143.087853
5.070000 140.471028 141.345282 142.166277 142.265281 143.171558 144.805255
5.100000 141.039647 141.886694 142.759409 142.915699 143.912099 145.746716
5.160000 142.148315 142.974406 144.078309 144.303409 145.595609 148.137317
