depth(m) lower_95(kyr) lower_68(kyr) median(kyr) mean(kyr) upper_68(kyr) upper_95(kyr)
0.040000 0.033516 0.183623 0.539534 0.633767 1.090839 1.720807
0.120000 0.211790 0.428039 0.789555 0.888236 1.372961 2.108338
0.200000 0.392710 0.641358 1.034660 1.129654 1.642884 2.364270
0.300000 0.603162 0.854917 1.312530 1.420328 2.002573 2.745494
0.400000 0.815168 1.076416 1.583937 1.701441 2.343469 3.177096
0.500000 1.011010 1.312852 1.884633 1.985698 2.680895 3.457039
0.600000 1.233184 1.544179 2.180153 2.265745 2.959614 3.898752
0.733333 1.535764 1.861957 2.556904 2.629973 3.344595 4.346931
0.866667 1.801143 2.189831 2.930229 3.001636 3.774505 4.686357
1.000000 2.094858 2.517664 3.310901 3.373650 4.163961 5.113783
1.100000 2.341095 2.777430 3.592832 3.663414 4.543554 5.354212
1.200000 2.587039 3.073839 3.896080 3.954983 4.885798 5.665356
1.300000 2.835632 3.379669 4.210933 4.256234 5.155154 5.900634
1.400000 3.051042 3.685803 4.507341 4.554830 5.473039 6.204744
1.500000 3.318719 3.993316 4.826164 4.851140 5.770520 6.459979
1.600000 3.610147 4.308255 5.137968 5.151466 6.070683 6.727928
1.700000 3.846655 4.628573 5.446929 5.452453 6.338738 6.971179
1.800000 4.123129 4.955935 5.727551 5.746607 6.618690 7.217330
1.900000 4.457459 5.281714 6.043991 6.050594 6.871157 7.459075
2.000000 4.810747 5.584411 6.333459 6.350133 7.147451 7.750991
2.100000 5.089892 5.913588 6.673478 6.652350 7.396904 7.991360
2.200000 5.382492 6.257100 7.023891 6.966345 7.654779 8.258227
2.300000 5.830699 6.616105 7.331356 7.288587 7.923571 8.554175
2.400000 6.197711 6.967395 7.672496 7.612742 8.230725 8.855081
2.500000 6.718076 7.317297 8.010651 7.964694 8.565735 9.178726
2.600000 6.998793 7.715830 8.361378 8.322665 8.913276 9.434535
2.700000 7.379324 8.064031 8.647655 8.637976 9.210776 9.735463
2.800000 7.680738 8.374809 8.970657 8.937225 9.527362 10.000695
2.900000 7.995260 8.659890 9.247082 9.225866 9.820777 10.276974
3.000000 8.292578 8.987607 9.526241 9.525558 10.117261 10.533943
3.100000 8.581277 9.317475 9.838724 9.838403 10.418591 10.830804
3.200000 8.989498 9.638674 10.168247 10.162362 10.739208 11.109163
3.300000 9.460409 9.965142 10.497874 10.491531 11.016377 11.411362
3.400000 9.819305 10.289907 10.832731 10.812707 11.308941 11.772160
3.500000 10.151725 10.635341 11.169566 11.141674 11.638372 12.089112
3.600000 10.499145 10.994137 11.535149 11.497909 11.936656 12.515747
3.700000 10.914837 11.390356 11.883580 11.872335 12.337312 12.840685
3.800000 11.263521 11.786395 12.251937 12.245453 12.737297 13.123898
3.900000 11.601621 12.123466 12.574670 12.589007 13.105409 13.408270
4.000000 11.859398 12.485224 12.887335 12.900688 13.379463 13.633862
4.040000 12.000399 12.621084 13.017504 13.033827 13.526670 13.763354
4.080000 12.143674 12.770224 13.163859 13.167040 13.659332 13.863567
4.100000 12.224501 12.839094 13.234122 13.232676 13.712052 13.919659
4.120000 12.359602 12.888080 13.294888 13.297116 13.779241 13.978487
4.160000 12.547100 12.996179 13.421725 13.421574 13.891674 14.079624
4.200000 12.771723 13.131100 13.576679 13.549920 13.999790 14.202806
4.240000 12.928399 13.251696 13.694654 13.676629 14.110153 14.329482
4.280000 13.071188 13.360760 13.842966 13.807098 14.246774 14.476481
4.300000 13.146492 13.427170 13.919607 13.876651 14.307771 14.539469
4.320000 13.221325 13.500110 13.995319 13.950973 14.377366 14.623812
4.360000 13.398203 13.653217 14.154772 14.099457 14.507449 14.765727
4.400000 13.554478 13.795795 14.297365 14.239989 14.644436 14.890002
4.440000 13.739989 13.941552 14.447395 14.391711 14.788813 15.012651
4.480000 13.876330 14.084251 14.610822 14.543386 14.946432 15.150332
4.500000 13.946455 14.162947 14.690959 14.616687 15.014804 15.210908
4.520000 14.007027 14.236386 14.761254 14.689703 15.086625 15.287456
4.560000 14.143377 14.404781 14.908493 14.843869 15.211980 15.426572
4.600000 14.309054 14.579992 15.049688 14.992515 15.332520 15.580086
4.640000 14.431479 14.743440 15.202222 15.140202 15.447502 15.754926
4.680000 14.576341 14.919776 15.352496 15.296048 15.580641 15.890415
4.700000 14.632643 15.015274 15.420746 15.373286 15.656581 15.969861
4.720000 14.723875 15.112092 15.500342 15.449899 15.737695 16.065158
4.760000 14.919105 15.329417 15.630111 15.615311 15.884320 16.235926
4.800000 15.155305 15.512094 15.766650 15.767105 16.024388 16.371274
4.840000 15.334712 15.671298 15.893880 15.911371 16.168923 16.538569
4.880000 15.545236 15.822877 16.023187 16.053096 16.302579 16.676092
4.900000 15.626996 15.891486 16.090532 16.121391 16.367902 16.740311
4.920000 15.721365 15.952171 16.160858 16.188971 16.439058 16.814442
4.960000 15.874382 16.082182 16.292768 16.324330 16.572970 16.931854
5.000000 16.020813 16.204322 16.427500 16.457321 16.707782 17.033597
5.040000 16.151922 16.318546 16.562160 16.587820 16.852163 17.156802
5.080000 16.275565 16.452937 16.689759 16.715222 17.000576 17.274921
5.100000 16.343216 16.517817 16.764249 16.784270 17.068057 17.321124
5.120000 16.411481 16.589158 16.843949 16.857160 17.138443 17.382779
5.160000 16.511311 16.718251 16.969587 16.992133 17.283748 17.540473
5.200000 16.630993 16.833296 17.114953 17.126827 17.426023 17.668348
5.240000 16.756313 16.953662 17.248685 17.264348 17.573103 17.816146
5.280000 16.893720 17.086909 17.396882 17.406335 17.721303 17.982900
5.300000 16.958032 17.158317 17.468844 17.479283 17.796326 18.050302
5.320000 17.016360 17.217095 17.559434 17.553535 17.874544 18.106868
5.360000 17.145896 17.375917 17.709819 17.700814 18.015922 18.253135
5.400000 17.268142 17.504940 17.886980 17.848348 18.156469 18.386512
5.440000 17.383376 17.629533 18.057550 18.001597 18.313874 18.526281
5.480000 17.484992 17.754468 18.214367 18.151180 18.466437 18.675333
5.500000 17.534309 17.835082 18.280052 18.220445 18.530739 18.753175
5.520000 17.606257 17.891090 18.356278 18.287606 18.597632 18.812121
5.560000 17.726622 18.006140 18.485150 18.409431 18.714284 18.924880
5.600000 17.851381 18.099929 18.598374 18.527728 18.839803 19.020292
5.640000 17.972646 18.218581 18.720785 18.651002 18.958250 19.142645
5.680000 18.084150 18.313260 18.833569 18.763410 19.069196 19.268607
5.700000 18.145085 18.371732 18.885970 18.821445 19.120735 19.316761
5.720000 18.197822 18.425283 18.939886 18.878023 19.174422 19.387736
5.760000 18.301371 18.526811 19.051075 18.987088 19.282367 19.521520
5.800000 18.407746 18.614178 19.149590 19.088821 19.382362 19.640233
5.840000 18.509026 18.712449 19.250202 19.192102 19.482158 19.780047
5.880000 18.601533 18.805890 19.356055 19.297019 19.583924 19.876089
5.900000 18.652143 18.858942 19.418959 19.353645 19.634301 19.947652
5.920000 18.711096 18.918058 19.484069 19.412181 19.689277 20.018454
5.960000 18.814385 19.034563 19.589864 19.519786 19.799848 20.116586
6.000000 18.923474 19.141315 19.689661 19.623153 19.900048 20.221772
6.040000 19.020400 19.253125 19.797096 19.727455 19.998148 20.341070
6.080000 19.103224 19.411493 19.897964 19.832732 20.101896 20.444433
6.120000 19.200079 19.567989 20.004516 19.941061 20.213607 20.581052
6.160000 19.285446 19.687334 20.103426 20.048096 20.318439 20.691755
6.200000 19.391895 19.829370 20.206570 20.156501 20.422773 20.795899
6.240000 19.476705 19.960216 20.310735 20.265576 20.527063 20.898208
6.280000 19.602174 20.076307 20.412229 20.374251 20.646384 20.998547
6.320000 19.687385 20.201316 20.518352 20.481029 20.753080 21.101856
6.360000 19.803936 20.324786 20.613636 20.588514 20.855121 21.202134
6.400000 19.902467 20.442219 20.723876 20.697549 20.960610 21.321329
6.440000 19.987405 20.556218 20.829612 20.804550 21.067069 21.423908
6.480000 20.100184 20.671296 20.938830 20.914063 21.199508 21.538863
6.520000 20.189903 20.777815 21.044689 21.024542 21.304641 21.647605
6.560000 20.308592 20.879883 21.147571 21.134618 21.439116 21.744678
6.600000 20.413148 20.989284 21.258369 21.248155 21.559678 21.852832
6.640000 20.527612 21.088946 21.372389 21.360968 21.677326 21.943713
6.680000 20.669540 21.204583 21.486944 21.477715 21.796277 22.055296
6.720000 20.803015 21.322180 21.598392 21.592983 21.928636 22.172428
6.760000 20.967805 21.428951 21.716612 21.709541 22.042798 22.289242
6.810000 21.107311 21.554814 21.865884 21.850205 22.177575 22.394224
6.840000 21.200993 21.629923 21.954006 21.935765 22.263669 22.477806
6.880000 21.346831 21.733523 22.071710 22.045244 22.376234 22.572960
6.920000 21.460111 21.828872 22.185676 22.157958 22.494036 22.677608
6.960000 21.558861 21.936048 22.301709 22.269357 22.601564 22.771925
7.000000 21.648710 22.045209 22.412238 22.380487 22.711143 22.867529
7.040000 21.748026 22.134354 22.522186 22.488292 22.817917 22.972761
7.080000 21.855065 22.246671 22.640439 22.597311 22.917158 23.096146
7.120000 21.955982 22.387549 22.748813 22.708739 23.019426 23.222987
7.160000 22.067450 22.504785 22.852161 22.816155 23.113272 23.302930
7.200000 22.169653 22.631504 22.976536 22.925855 23.225793 23.405082
7.240000 22.297589 22.725705 23.086884 23.034533 23.333927 23.503440
7.280000 22.398574 22.843082 23.195258 23.142656 23.433054 23.635949
7.320000 22.507814 22.954241 23.305128 23.250687 23.526946 23.760588
7.360000 22.619815 23.073189 23.412864 23.361212 23.620868 23.933534
7.400000 22.757063 23.189769 23.528212 23.478647 23.730886 24.083469
7.440000 22.881555 23.300296 23.634515 23.587863 23.823930 24.246749
7.480000 23.000996 23.419055 23.748847 23.701599 23.932397 24.354526
7.520000 23.150055 23.535738 23.845138 23.813934 24.038568 24.489424
7.560000 23.298185 23.662122 23.951949 23.929934 24.139359 24.600432
7.600000 23.458047 23.781202 24.057324 24.047361 24.240849 24.733569
7.640000 23.606099 23.918047 24.158347 24.163062 24.354511 24.896676
7.680000 23.749699 24.044506 24.266528 24.279257 24.461262 25.032672
7.720000 23.895561 24.173798 24.369712 24.395039 24.583980 25.154791
7.760000 24.030467 24.302066 24.460221 24.504290 24.685520 25.303356
7.840000 24.302019 24.502476 24.649303 24.718339 24.925572 25.531260
7.880000 24.423883 24.617726 24.748328 24.831580 25.075359 25.680057
7.900000 24.489843 24.669664 24.798137 24.889425 25.139298 25.766238
7.920000 24.552623 24.726652 24.848182 24.948191 25.211756 25.827223
7.960000 24.675169 24.822060 24.945758 25.057208 25.399301 25.990456
8.040000 24.850681 24.999259 25.117738 25.253964 25.700677 26.245119
8.080000 24.926861 25.090983 25.208421 25.360055 25.843856 26.418344
8.100000 24.986972 25.146126 25.256450 25.417469 25.911739 26.492580
8.120000 25.039910 25.197518 25.308700 25.472645 26.012098 26.533316
8.160000 25.135304 25.288950 25.403617 25.577884 26.166054 26.641264
8.200000 25.239915 25.379905 25.495661 25.682252 26.291849 26.758239
8.240000 25.352418 25.472513 25.591720 25.792245 26.424147 26.877242
8.280000 25.435284 25.558466 25.692027 25.897370 26.550415 27.009537
8.320000 25.524721 25.647202 25.785585 26.003282 26.693150 27.114210
8.360000 25.603867 25.737341 25.884851 26.107811 26.819795 27.231824
8.440000 25.774168 25.900617 26.065899 26.317963 27.057251 27.403867
8.480000 25.861814 25.992540 26.157541 26.425835 27.172469 27.514143
8.520000 25.940175 26.080267 26.260182 26.535182 27.288663 27.608785
8.560000 26.042725 26.171100 26.356497 26.643721 27.395425 27.722332
8.600000 26.125056 26.263498 26.471112 26.754882 27.509717 27.838035
8.640000 26.228472 26.357881 26.581672 26.868495 27.646088 27.959334
8.680000 26.326298 26.447252 26.703477 26.980406 27.761602 28.087506
8.720000 26.410327 26.552689 26.825568 27.096169 27.879622 28.186598
8.760000 26.511015 26.655472 26.948895 27.208922 27.983542 28.305091
8.840000 26.691047 26.854372 27.206302 27.433062 28.202927 28.575948
8.880000 26.789862 26.954613 27.354809 27.550876 28.311550 28.701628
8.920000 26.885904 27.049995 27.493067 27.672919 28.423095 28.844980
8.960000 26.993885 27.152025 27.630239 27.797596 28.539811 28.995057
9.000000 27.086652 27.273457 27.761693 27.921909 28.659440 29.109399
9.040000 27.174687 27.381629 27.914273 28.048525 28.782065 29.223246
9.080000 27.273193 27.495837 28.069037 28.181847 28.908893 29.363140
9.120000 27.408725 27.615643 28.221103 28.317559 29.037091 29.519062
9.160000 27.521886 27.733294 28.375099 28.452794 29.172004 29.663676
9.240000 27.721211 27.987762 28.656132 28.717606 29.484449 30.008047
9.280000 27.817081 28.098339 28.809343 28.856490 29.648526 30.181982
9.320000 27.940053 28.238605 28.954929 29.001281 29.800043 30.311031
9.360000 28.063668 28.375566 29.108520 29.152185 29.969911 30.459867
9.400000 28.191303 28.517085 29.279507 29.311504 30.146964 30.612881
9.440000 28.303928 28.641817 29.426266 29.457149 30.296185 30.769606
9.480000 28.425583 28.774137 29.582180 29.611019 30.430111 30.947025
9.520000 28.543728 28.920575 29.722315 29.774022 30.612190 31.162474
9.560000 28.715128 29.057774 29.898212 29.933935 30.780525 31.315476
9.600000 28.852525 29.177433 30.088249 30.099214 30.951779 31.454590
9.640000 28.970306 29.377628 30.298444 30.266781 31.108006 31.650685
9.680000 29.087570 29.553551 30.488297 30.443530 31.298805 31.841517
9.720000 29.225793 29.728673 30.712725 30.621891 31.490247 32.023121
9.760000 29.394495 29.854560 30.889475 30.796431 31.693205 32.176801
9.800000 29.544818 30.018254 31.086703 30.983314 31.886497 32.386336
9.840000 29.702330 30.167677 31.273271 31.174096 32.091106 32.573135
9.960000 30.148475 30.727928 32.250149 31.993930 32.816119 33.349989
10.000000 30.284361 30.888024 32.465303 32.189076 33.015328 33.522633
10.040000 30.421939 31.044148 32.664886 32.381259 33.192758 33.796726
10.080000 30.566605 31.225997 32.857723 32.565634 33.360075 33.963586
10.120000 30.722167 31.416748 33.044697 32.746747 33.545511 34.150136
10.160000 30.884228 31.651452 33.261701 32.936260 33.726615 34.345631
10.200000 31.071447 31.818603 33.422972 33.122710 33.932179 34.507452
10.240000 31.212279 32.023834 33.606998 33.311127 34.123955 34.722264
10.280000 31.401198 32.239653 33.787265 33.509838 34.347144 34.960952
10.360000 31.695826 32.659835 34.161304 33.921820 34.847144 35.493153
10.400000 31.823318 32.834553 34.340843 34.098589 35.023101 35.673163
10.440000 32.027941 33.061361 34.510280 34.277566 35.182269 35.824095
10.480000 32.200527 33.244188 34.687091 34.461380 35.395491 36.044942
10.520000 32.387851 33.410838 34.858274 34.640359 35.582634 36.247546
10.560000 32.565502 33.548197 35.042564 34.824768 35.775261 36.415546
10.600000 32.752275 33.743331 35.216580 35.006407 35.924181 36.660448
10.640000 32.997971 33.898789 35.382952 35.179847 36.088954 36.822961
10.680000 33.118835 34.067878 35.559259 35.354760 36.290599 37.091768
10.720000 33.256156 34.261732 35.728394 35.533732 36.514224 37.267516
10.760000 33.409583 34.432274 35.902694 35.709278 36.699897 37.458689
10.800000 33.610860 34.645265 36.108120 35.894011 36.888745 37.650518
10.840000 33.809314 34.801454 36.261975 36.075137 37.086964 37.806396
10.880000 33.939579 34.930630 36.453088 36.250367 37.284572 38.007765
10.920000 34.117257 35.152325 36.632175 36.431429 37.469323 38.167520
10.960000 34.331098 35.315009 36.801541 36.610920 37.667172 38.380699
11.000000 34.492135 35.494792 37.005632 36.793734 37.849454 38.568303
11.040000 34.700322 35.674767 37.169805 36.981012 38.036038 38.709495
11.080000 34.977403 35.892929 37.334228 37.162488 38.271577 38.852190
11.120000 35.260807 36.067257 37.533566 37.338914 38.454702 38.981084
11.160000 35.495875 36.350226 37.685963 37.517628 38.606652 39.101312
11.200000 35.699375 36.567740 37.843262 37.700844 38.796625 39.221202
11.240000 35.907302 36.812110 37.991130 37.878712 38.959834 39.352296
11.280000 36.215598 37.062228 38.132230 38.055130 39.103377 39.464706
11.320000 36.435723 37.296721 38.281312 38.233651 39.240432 39.652225
11.360000 36.577894 37.544135 38.418315 38.404542 39.377845 39.823100
11.400000 36.799660 37.771246 38.574645 38.575334 39.497219 39.934797
11.440000 37.076064 37.996171 38.743133 38.747849 39.632898 40.062322
11.480000 37.241799 38.213798 38.890962 38.914617 39.747358 40.173440
11.520000 37.434676 38.418435 39.041343 39.083732 39.863191 40.349154
11.560000 37.652968 38.611891 39.207906 39.248477 39.999512 40.476531
11.600000 37.945540 38.809187 39.378756 39.410441 40.133061 40.644122
11.640000 38.167969 39.006678 39.547338 39.583260 40.297375 40.752011
11.680000 38.402134 39.195891 39.727934 39.754953 40.449798 40.881332
11.720000 38.610561 39.387542 39.918094 39.931413 40.590795 41.064768
11.760000 38.871735 39.556895 40.091602 40.100028 40.765553 41.179555
11.800000 39.059169 39.718662 40.260104 40.268909 40.898390 41.331306
11.840000 39.300273 39.908953 40.446315 40.439831 41.043360 41.459672
11.880000 39.419521 40.073170 40.612747 40.602080 41.186092 41.574449
11.920000 39.600355 40.264906 40.798964 40.775600 41.322683 41.739859
11.960000 39.806865 40.427295 40.955216 40.940548 41.481551 41.868249
12.000000 39.993873 40.641607 41.150621 41.113478 41.630262 42.016769
12.040000 40.102440 40.829596 41.334651 41.286540 41.777867 42.182959
12.080000 40.219943 41.012062 41.521470 41.455824 41.944934 42.279983
12.120000 40.364597 41.218315 41.690777 41.628024 42.084212 42.382527
12.160000 40.530640 41.401374 41.868161 41.803001 42.233132 42.531517
12.200000 40.717148 41.580190 42.049433 41.970589 42.390473 42.693203
12.240000 40.934613 41.743396 42.206235 42.136508 42.552235 42.825280
12.280000 41.165419 41.920831 42.362035 42.297807 42.699414 42.987285
12.320000 41.380312 42.108528 42.520289 42.459883 42.833473 43.119764
12.360000 41.532593 42.300524 42.678234 42.628916 43.007295 43.262064
12.400000 41.701520 42.494376 42.836851 42.795028 43.148179 43.407053
12.440000 41.922442 42.676429 43.002391 42.959729 43.285604 43.525099
12.480000 42.118035 42.847450 43.161170 43.119935 43.440515 43.652819
12.500000 42.209604 42.932647 43.242310 43.197934 43.518077 43.721190
12.520000 42.294346 43.006329 43.317904 43.273784 43.594537 43.785539
12.560000 42.469671 43.153653 43.472117 43.429695 43.735214 43.920577
12.600000 42.678326 43.309528 43.628989 43.583260 43.878186 44.062848
12.640000 42.858150 43.453762 43.801990 43.739083 44.015385 44.207992
12.680000 42.995492 43.583915 43.957532 43.886340 44.150665 44.323135
12.700000 43.103613 43.650325 44.034805 43.960184 44.219837 44.413291
12.720000 43.201136 43.713487 44.104157 44.031612 44.289579 44.487334
12.760000 43.463312 43.869843 44.228775 44.165979 44.406003 44.609801
12.800000 43.587678 44.011440 44.346278 44.293027 44.516568 44.738102
12.840000 43.763269 44.170650 44.465771 44.415131 44.634226 44.856867
12.880000 43.902232 44.307102 44.580770 44.531662 44.737419 44.955215
12.920000 44.030646 44.435005 44.693376 44.651640 44.853929 45.045830
12.960000 44.155333 44.569248 44.813141 44.768996 44.961164 45.170625
13.000000 44.302991 44.692309 44.925809 44.889351 45.072627 45.331262
13.040000 44.426498 44.818534 45.033839 45.005189 45.174749 45.427105
13.080000 44.562084 44.947243 45.141478 45.123798 45.284843 45.543999
13.120000 44.738853 45.065921 45.256683 45.238567 45.393158 45.690093
13.160000 44.873129 45.182572 45.361958 45.352012 45.510619 45.836346
13.200000 44.987290 45.302849 45.471485 45.466421 45.615905 45.987990
13.240000 45.134830 45.417103 45.580122 45.581967 45.729771 46.108230
13.280000 45.272495 45.526482 45.689314 45.696109 45.841801 46.209121
13.320000 45.416569 45.641337 45.801098 45.814240 45.960211 46.336058
13.360000 45.566815 45.755899 45.913763 45.935036 46.090797 46.509877
13.400000 45.698629 45.874146 46.025464 46.055884 46.218039 46.648408
13.440000 45.825349 45.981322 46.132259 46.172001 46.352472 46.768130
13.480000 45.938786 46.090881 46.249353 46.296467 46.497111 46.908172
13.520000 46.047047 46.209056 46.372252 46.425749 46.646509 47.033796
13.560000 46.163122 46.316584 46.502730 46.553881 46.787558 47.161731
13.600000 46.282251 46.430916 46.644818 46.694980 46.968938 47.356394
13.640000 46.398950 46.550622 46.780492 46.834787 47.122826 47.469808
13.680000 46.491553 46.668284 46.951328 46.981425 47.295410 47.626363
13.720000 46.610539 46.788931 47.106755 47.125169 47.450031 47.743210
