depth(m) lower_95(kyr) lower_68(kyr) median(kyr) mean(kyr) upper_68(kyr) upper_95(kyr)
0.050000 3.706823 4.488730 5.216159 5.199232 5.903878 6.571751
0.150000 4.178823 4.895921 5.622425 5.615469 6.351782 7.016449
0.250000 4.603342 5.305971 6.042071 6.023473 6.742068 7.377041
0.350000 5.003653 5.684599 6.439255 6.422007 7.146166 7.829904
0.400000 5.226317 5.924319 6.660282 6.641162 7.351818 8.003145
0.500000 5.681026 6.298669 7.068133 7.059364 7.783009 8.448100
0.600000 6.173664 6.783314 7.498618 7.497386 8.215419 8.807601
0.700000 6.625637 7.254225 7.971726 7.958769 8.657826 9.314175
0.800000 7.021014 7.770137 8.427234 8.443177 9.172964 9.790901
0.900000 7.670768 8.306582 8.986047 8.995654 9.694824 10.288112
1.000000 8.231111 8.944143 9.618750 9.590947 10.250864 10.846169
1.100000 8.889050 9.515499 10.230943 10.191742 10.818229 11.452408
1.200000 9.509952 10.183224 10.819989 10.798278 11.385747 12.133282
1.300000 10.080248 10.784663 11.452567 11.445156 12.126366 12.793812
1.400000 10.692659 11.362653 12.065999 12.083967 12.831176 13.494608
1.500000 11.191301 11.982730 12.739689 12.760393 13.599866 14.197579
1.600000 12.164174 12.887424 13.625635 13.627803 14.381586 15.203753
1.700000 12.957344 13.714389 14.419791 14.422331 15.126495 15.776585
1.800000 13.721781 14.506446 15.259288 15.215288 15.883660 16.536691
1.900000 14.524783 15.437956 16.132373 16.096990 16.773974 17.461985
2.000000 15.582164 16.300339 16.998039 16.978492 17.631916 18.365634
2.100000 16.398139 17.081853 17.813656 17.807018 18.536947 19.326003
2.200000 16.893679 17.725658 18.512768 18.480083 19.207518 19.977281
2.300000 17.308187 18.317751 19.108422 19.057093 19.828529 20.475156
2.400000 17.756650 18.777571 19.643662 19.564870 20.363936 20.991021
2.500000 18.108272 19.187260 20.138264 20.054153 20.863864 21.577476
2.600000 18.487959 19.632401 20.607421 20.510158 21.374268 22.061019
2.700000 19.008929 20.059772 21.027454 20.948025 21.809112 22.567698
2.800000 19.500079 20.499898 21.449229 21.367009 22.188838 22.962957
2.900000 19.968443 20.871643 21.901057 21.818505 22.630981 23.415958
3.000000 20.371563 21.361091 22.375194 22.285457 23.076915 24.075561
3.100000 20.876759 21.901652 22.853499 22.784915 23.569875 24.676208
3.200000 21.431979 22.498587 23.316101 23.321395 24.140719 25.411597
3.300000 21.922635 23.011014 23.804938 23.842248 24.678992 25.876833
3.400000 22.308790 23.504169 24.251257 24.322683 25.229420 26.347519
3.500000 22.739886 23.884603 24.688148 24.765732 25.746737 26.853379
3.600000 23.156825 24.275042 25.102113 25.195516 26.218325 27.370026
3.700000 23.698283 24.758695 25.549817 25.645447 26.647535 27.726579
3.800000 24.133714 25.192037 26.028126 26.106108 27.135693 28.220294
3.900000 24.642252 25.616027 26.471562 26.561930 27.610862 28.780079
4.000000 25.263700 26.017342 26.926282 27.009251 28.092851 29.279428
4.100000 25.608638 26.455099 27.359075 27.455843 28.530913 29.650816
4.200000 26.101029 26.897595 27.846527 27.932208 29.011763 30.232811
4.300000 26.560715 27.381787 28.344464 28.425315 29.493200 30.649987
4.400000 27.048863 27.833267 28.825703 28.931082 30.056575 31.196320
4.500000 27.545382 28.325107 29.386652 29.470592 30.616857 31.770399
4.600000 27.983948 28.795316 30.012997 30.071963 31.289383 32.454573
4.700000 28.473128 29.326517 30.641648 30.677203 31.914594 33.192155
4.800000 28.934036 29.868650 31.293890 31.299898 32.580923 33.888193
4.900000 29.453013 30.535786 31.994427 31.977826 33.315104 34.726633
5.000000 30.072934 31.212616 32.638092 32.652224 33.985013 35.370705
5.100000 30.634386 31.927474 33.259669 33.312377 34.697735 36.137125
5.200000 31.246546 32.614300 33.957155 34.018823 35.415062 37.008358
5.300000 31.857467 33.355542 34.632927 34.747440 36.167736 38.108141
5.400000 32.588712 34.044878 35.308351 35.449084 36.819140 38.958945
5.500000 33.354751 34.710439 36.036271 36.109244 37.498990 39.601849
5.600000 34.045044 35.216992 36.646198 36.737375 38.171774 40.191680
5.700000 34.588198 35.784880 37.256867 37.369077 38.849267 40.790600
5.800000 35.266003 36.469990 37.879307 37.979796 39.442015 41.285633
5.900000 35.692931 37.066025 38.525963 38.608560 40.047915 41.688349
6.000000 36.217967 37.727073 39.225769 39.255587 40.683566 42.087589
6.100000 36.731531 38.368704 39.921408 39.894822 41.378530 42.585181
6.200000 37.180844 39.036366 40.534776 40.487518 41.889471 43.036951
6.300000 37.771217 39.667577 41.114844 41.076536 42.444113 43.559441
6.380000 38.236891 40.163275 41.581449 41.532743 42.880835 44.076370
6.460000 38.631351 40.666075 42.031184 41.983492 43.287233 44.444899
6.500000 38.875638 40.887757 42.244907 42.198434 43.483239 44.696816
6.600000 39.445269 41.398001 42.741185 42.702202 43.938065 45.326559
6.700000 40.162485 41.910167 43.221370 43.194021 44.334538 46.501649
6.800000 40.901268 42.487265 43.661846 43.692506 44.697529 47.505150
6.900000 41.675273 43.077786 44.137172 44.207583 45.161123 48.365401
7.033333 42.560971 43.781918 44.766856 44.851238 45.677862 49.461262
7.166667 43.415464 44.491411 45.379456 45.485130 46.193392 50.305193
7.300000 44.335639 45.175163 45.956203 46.100856 46.676627 50.955698
7.400000 44.810128 45.616693 46.393877 46.558776 47.106136 51.447453
7.500000 45.233721 46.085026 46.839303 47.007123 47.577277 51.896386
7.645455 45.767427 46.682670 47.504269 47.694537 48.374697 52.434240
7.790909 46.341980 47.267342 48.161792 48.369532 49.249309 53.075339
7.936364 46.838246 47.865915 48.827718 49.062893 50.143256 53.515179
8.081818 47.389540 48.480545 49.516993 49.758393 50.929876 54.054204
8.227273 47.952817 49.042263 50.204602 50.435364 51.715009 54.608131
8.372727 48.483912 49.658254 50.969591 51.130799 52.534607 55.025991
8.518182 49.035971 50.210789 51.709126 51.840592 53.404948 55.706999
8.663636 49.580729 50.897351 52.434501 52.526996 54.150052 56.212727
8.809091 50.208358 51.563949 53.177831 53.239901 54.883444 56.775920
8.954545 50.785150 52.294812 53.975969 53.976482 55.660141 57.391103
9.100000 51.403481 53.010337 54.792146 54.716307 56.491126 58.055478
9.200000 51.826915 53.642034 55.330791 55.244420 56.932088 58.467020
9.330000 52.396532 54.335960 55.994805 55.944941 57.633165 59.027702
9.460000 53.158708 55.023568 56.728585 56.669170 58.396860 59.631187
9.590000 53.958057 55.851665 57.448785 57.408263 59.096312 60.198986
9.720000 54.579986 56.686425 58.284490 58.197844 59.831806 60.751994
9.820000 55.402346 57.313511 58.952529 58.813870 60.338084 61.304134
9.920000 56.214747 57.903434 59.637997 59.428369 60.904188 61.721079
10.020000 56.993427 58.593908 60.325287 60.084782 61.495324 62.281464
10.120000 57.610342 59.249261 61.023794 60.744086 62.035605 62.807232
10.220000 58.385608 59.946813 61.679985 61.400487 62.601243 63.351269
10.320000 59.175354 61.045751 62.368506 62.138216 63.175331 64.002056
10.420000 60.241369 61.935373 63.056814 62.886530 63.845729 64.688969
10.520000 61.412041 62.821101 63.695372 63.620570 64.442567 65.483414
10.620000 62.584288 63.515661 64.272069 64.294626 65.117096 66.117048
10.720000 63.315756 64.137131 64.867359 64.941577 65.800391 66.823559
10.820000 63.933400 64.701360 65.463978 65.535430 66.432346 67.518294
10.920000 64.472188 65.242334 66.109292 66.149043 67.091798 68.246060
11.020000 65.065254 65.776464 66.676589 66.778830 67.853383 69.052292
11.120000 65.671813 66.360018 67.321423 67.488504 68.686494 70.038205
11.220000 66.173068 66.932185 67.988742 68.181960 69.489469 70.877751
11.320000 66.692809 67.491718 68.574114 68.768079 70.105118 71.585219
11.420000 67.258713 68.078259 69.194408 69.401167 70.774564 72.313028
11.520000 68.005743 68.768765 69.947403 70.155281 71.592370 73.167280
11.620000 68.596704 69.583609 70.987925 71.113135 72.611773 74.286559
11.720000 69.694915 70.855499 72.355565 72.453166 74.096897 75.611508
11.820000 70.837592 72.194056 73.858348 73.860599 75.468564 77.096691
11.920000 72.361476 73.819038 75.562598 75.434669 76.885496 78.442810
12.020000 73.647822 75.379953 77.013138 76.906377 78.338878 79.640020
12.120000 74.984825 76.859407 78.369915 78.243563 79.568530 80.706826
12.220000 76.419080 78.229553 79.553547 79.456459 80.585429 82.084510
12.320000 78.166861 79.755459 80.915805 80.872110 82.002472 83.466847
12.420000 79.558729 80.940453 82.138692 82.172794 83.429976 84.948921
12.520000 80.803378 81.926034 83.282449 83.370409 84.884399 86.409072
12.620000 81.825829 83.068133 84.643091 84.681000 86.282250 88.108521
12.720000 82.922724 84.386583 86.051167 86.118690 87.794830 89.783281
12.820000 85.117620 86.448518 88.291690 88.281963 90.003547 91.716815
12.920000 86.494453 88.255090 90.100032 89.942467 91.540010 92.858679
13.020000 87.899929 89.871315 91.659042 91.537375 93.142219 94.398381
13.120000 89.199940 91.306708 93.098607 93.037410 94.688284 96.291016
13.220000 90.689143 92.520078 94.372814 94.446042 96.323623 98.851791
13.320000 92.158977 93.797273 95.627100 95.864715 98.030762 101.063303
13.420000 94.460395 95.735152 97.468861 97.790897 100.113018 102.454213
13.520000 96.391917 97.873857 99.616095 99.868505 102.139397 103.966322
13.620000 98.353322 99.874393 102.128675 102.000546 103.914925 105.600130
13.720000 100.403080 102.641473 104.602184 104.523331 106.420509 108.106626
13.820000 102.756498 104.927232 106.603552 106.603936 108.511850 109.812020
13.920000 105.225825 106.747811 108.378387 108.344824 110.041940 111.252468
14.020000 106.930292 108.493711 110.180134 110.034190 111.462462 112.483534
14.120000 108.703079 110.590108 111.990607 111.826427 113.057115 114.238241
14.220000 110.910744 112.786641 113.982528 113.954789 115.268086 116.395318
14.320000 114.649418 115.871353 117.257113 117.252811 118.547379 120.126967
14.420000 117.496948 118.778294 120.068125 120.343869 121.938927 124.498763
14.520000 119.252189 120.688161 122.459181 122.678685 124.815269 126.973670
14.620000 120.773819 122.608748 125.235234 125.043112 127.280049 128.612310
14.720000 122.885928 125.842138 127.699868 127.403464 129.001030 130.138312
14.820000 126.086421 128.078018 129.414381 129.268856 130.515268 131.394095
14.920000 129.328161 130.214933 131.167502 131.131682 132.032755 132.868413
15.020000 130.819568 131.580236 132.415689 132.404193 133.181442 133.990867
15.120000 131.912951 132.765416 133.484022 133.488607 134.215306 134.914053
15.220000 132.852390 133.657505 134.464305 134.433047 135.152271 135.959929
15.320000 133.779475 134.564002 135.340188 135.309501 136.031969 136.784054
15.420000 134.708387 135.508830 136.303694 136.317620 137.065730 138.128009
15.520000 135.703442 136.696106 137.753632 138.025464 139.434684 141.655424
15.620000 136.477892 137.972199 139.878212 139.980358 142.060690 143.973380
15.720000 137.343648 139.295625 142.414239 142.064207 144.352722 146.151334
15.820000 138.834436 140.860765 143.848599 143.518123 145.662045 147.312006
15.920000 140.591930 142.723442 145.197948 144.911849 146.797977 148.385530
16.020000 142.266216 144.367363 146.427886 146.180580 147.934887 149.269822
16.120000 143.517189 145.371615 147.343580 147.224378 148.957682 150.430795
16.220000 144.480770 146.352501 148.256594 148.157958 149.804064 151.466129
16.320000 145.458301 147.322946 149.167859 149.058084 150.675586 152.293195
16.420000 146.348248 148.237235 150.054403 149.946003 151.488553 153.326284
16.520000 147.211378 149.153375 150.948690 150.828768 152.446728 154.402027
16.620000 148.063479 150.039834 151.807444 151.713889 153.356493 155.332753
16.720000 148.919704 150.951600 152.686056 152.629385 154.292587 156.422791
16.820000 149.954898 151.881923 153.578170 153.617780 155.376728 157.460798
16.920000 150.942195 152.808294 154.628065 154.668353 156.471429 158.497721
