depth(m) lower_95(kyr) lower_68(kyr) median(kyr) mean(kyr) upper_68(kyr) upper_95(kyr)
0.050000 5.948666 6.561425 7.223132 7.190012 7.799017 8.289255
0.150000 6.478217 7.147702 7.772054 7.731527 8.337436 8.797865
0.250000 6.963683 7.691901 8.296484 8.268131 8.840485 9.367768
0.310000 7.342141 8.028740 8.665074 8.624170 9.197088 9.688226
0.410000 7.936130 8.580770 9.204596 9.198986 9.811070 10.300473
0.510000 8.547375 9.231765 9.799454 9.801925 10.390744 10.873366
0.610000 9.214891 9.856724 10.427400 10.434418 11.013901 11.563592
0.710000 9.932785 10.549887 11.173176 11.162305 11.786428 12.382525
0.810000 10.639112 11.242061 11.888457 11.888874 12.545512 13.153534
0.910000 11.472194 12.066259 12.718861 12.724195 13.370635 14.091257
1.010000 12.220440 12.905652 13.546973 13.564642 14.274014 14.852479
1.110000 13.104686 13.773250 14.457726 14.480507 15.191666 15.967561
1.210000 13.896502 14.645129 15.345607 15.334180 16.040899 16.770949
1.310000 14.693361 15.411332 16.131506 16.130623 16.845561 17.620836
1.410000 15.769714 16.352424 17.184965 17.280829 18.096159 19.954970
1.510000 16.433861 17.231631 18.205279 18.452204 19.739430 21.984604
1.610000 17.226708 18.022979 19.134943 19.603679 21.420126 23.963179
1.710000 18.185855 19.040862 20.332548 20.787328 22.749646 25.132090
1.810000 19.127618 20.203278 21.972989 22.176750 24.158747 26.239978
1.910000 20.536748 21.934815 23.853533 23.929305 25.786796 27.909552
2.010000 22.081592 23.809306 25.627469 25.661226 27.521249 29.465109
2.110000 23.303973 25.228853 27.196106 27.162648 29.055834 31.308526
2.210000 24.942860 27.118991 28.773355 28.947523 30.943718 33.459180
2.310000 27.016135 28.858595 30.701775 31.001902 33.518506 36.013223
2.410000 29.024576 30.517354 32.431996 33.078159 36.177362 38.443964
2.510000 30.249706 31.926581 34.301904 34.837416 38.335829 40.722988
2.610000 31.402592 33.142626 36.266112 36.512454 40.031370 42.171290
2.710000 32.369311 34.193294 38.141300 38.071655 41.725659 43.277755
2.810000 33.497448 35.018819 40.454651 39.598980 43.148528 44.267329
2.910000 34.359677 35.700109 42.395052 41.060613 44.190309 45.132178
3.010000 35.108057 36.476813 44.043332 42.343494 45.169691 45.996248
3.110000 35.760251 37.196012 45.027454 43.332286 45.978343 46.669165
3.210000 36.510167 37.855060 45.762876 44.096092 46.616927 47.401264
3.310000 37.133727 38.558723 46.531154 44.824227 47.286502 48.035856
3.410000 37.812912 39.433108 47.232992 45.585554 48.083975 49.041316
3.510000 38.569946 40.309242 47.868742 46.319894 48.773826 50.021365
3.610000 39.275299 41.173328 48.552067 47.074365 49.515779 50.863182
3.710000 40.057976 42.003849 49.223415 47.816797 50.334927 51.579781
3.810000 40.743922 42.968784 49.958317 48.608501 51.175564 52.554604
3.910000 41.488461 44.272277 50.630802 49.446610 52.024759 53.444790
4.010000 42.411882 46.043674 51.376341 50.328960 52.828492 54.210339
4.110000 43.338313 47.695298 52.140031 51.242635 53.704513 55.062284
4.210000 44.244578 49.010520 52.904886 52.119892 54.511677 55.863408
4.310000 45.167171 50.374469 53.626279 52.980483 55.233178 56.679889
4.410000 46.060415 51.399921 54.390803 53.793942 55.948778 57.572268
4.510000 47.219261 52.636146 55.142404 54.619142 56.664538 58.296655
4.610000 48.489906 53.455241 55.931992 55.404887 57.404210 59.044119
4.710000 49.910264 54.385299 56.689964 56.228099 58.009797 59.724330
4.810000 51.461315 55.319638 57.444039 57.033548 58.767176 60.505726
4.910000 52.449068 56.261130 58.138128 57.836219 59.448543 61.311723
5.010000 53.397824 57.136559 58.870894 58.650296 60.288620 62.052596
5.110000 54.287740 57.965928 59.636471 59.439662 61.099564 62.657559
5.210000 55.213922 58.812623 60.387761 60.265688 61.956518 63.470448
5.310000 55.960022 59.657430 61.161795 61.114184 62.918104 64.467708
5.410000 57.243042 60.422159 61.960070 61.948353 63.823535 65.508684
5.510000 58.230862 61.264117 62.666240 62.723170 64.595891 66.334697
5.610000 59.426846 61.995995 63.351055 63.457666 65.310887 67.151825
5.710000 60.827845 62.826432 63.989665 64.192237 65.950829 67.793806
5.810000 61.781635 63.519115 64.742154 64.944708 66.691127 68.413301
5.910000 62.930676 64.259146 65.508123 65.715715 67.475722 69.052250
6.010000 63.770926 65.154986 66.391795 66.558164 68.134586 69.684176
6.110000 64.659132 66.039128 67.374284 67.411602 68.921513 70.195531
6.210000 65.642206 66.951355 68.257503 68.284194 69.725240 71.009654
6.310000 66.656714 67.853207 69.012641 69.089806 70.469956 71.717199
6.410000 67.629581 68.809755 69.840626 69.957554 71.236330 72.583894
6.510000 68.741283 69.623498 70.711130 70.818921 72.031851 73.569569
6.610000 69.534533 70.418082 71.529125 71.634724 72.891700 74.349540
6.710000 70.295938 71.207891 72.368418 72.469262 73.720905 75.197752
6.810000 71.096002 72.057855 73.259273 73.342369 74.602062 76.164175
6.910000 71.846762 72.925965 74.182744 74.268503 75.673260 76.983055
7.010000 72.798463 73.997151 75.219805 75.328990 76.814874 78.276970
7.110000 73.838820 75.141103 76.526405 76.579393 78.085395 79.450509
7.210000 75.170604 76.334697 77.876819 77.880543 79.396232 81.233321
7.310000 76.290200 77.437847 79.090540 79.239377 80.842488 84.078367
7.410000 77.317713 78.715644 80.363371 80.862894 83.238955 86.331559
7.510000 78.721359 80.211785 82.403376 82.860533 85.877440 87.711934
7.610000 80.188691 82.221107 85.613810 85.188866 87.591782 89.035136
7.710000 84.000924 86.164121 87.661285 87.529097 88.961842 90.085470
7.810000 86.335327 87.615326 88.957016 88.900596 90.093396 91.219866
7.910000 87.715659 88.946540 90.101774 90.091200 91.239287 92.281339
8.010000 89.063649 90.124728 91.281823 91.309117 92.416951 93.709701
8.110000 90.399180 91.572396 92.810323 92.904718 94.148740 96.207035
8.210000 92.488570 94.116584 95.776458 96.039532 97.919607 100.979328
8.310000 94.992627 96.646567 98.715830 98.946903 101.439596 103.557383
8.410000 97.518024 99.637213 101.963556 101.994118 104.250747 106.926045
8.510000 101.232101 103.376683 105.258887 105.279782 107.321291 109.072835
8.610000 104.035023 105.592395 107.110933 107.273182 109.202714 110.538834
8.710000 105.792791 107.312884 108.761555 108.835568 110.556722 111.959433
8.810000 107.628757 109.142491 110.501376 110.440171 111.715070 113.023117
8.910000 109.515330 110.975603 112.222854 112.167577 113.347218 114.826624
9.010000 111.817566 112.951316 113.974780 114.010123 115.142089 116.220719
9.110000 114.105320 114.967227 116.107517 116.226628 117.461384 118.649067
9.210000 116.582839 117.876954 119.276121 119.319071 120.727526 122.437565
9.310000 118.520702 119.900904 121.557941 121.566908 123.367528 124.796691
9.410000 120.042961 121.316021 122.960993 123.056264 124.884984 126.070728
9.510000 121.541159 123.038182 124.637188 124.581055 126.137125 127.076446
9.610000 122.975868 124.572237 126.148192 125.948743 127.217882 128.011783
9.710000 124.926717 126.312451 127.410055 127.253145 128.193504 128.772170
9.810000 126.529323 127.605376 128.487633 128.372118 129.121390 129.751318
9.910000 127.620767 128.519823 129.325478 129.241238 129.937831 130.481727
10.010000 128.553902 129.340468 130.117038 130.034571 130.692606 131.271120
10.110000 129.419984 130.170443 130.901759 130.844743 131.498065 132.094423
10.210000 130.254577 130.943376 131.644349 131.615144 132.232937 132.826362
10.310000 131.075600 131.821370 132.465991 132.423854 133.019381 133.596698
10.410000 131.891277 132.593016 133.186343 133.195628 133.800872 134.415676
10.510000 132.628141 133.302765 133.938228 133.924595 134.545029 135.190660
10.610000 133.335348 133.990798 134.618171 134.618518 135.264356 135.874316
10.710000 134.066519 134.668968 135.308098 135.323372 135.968128 136.649088
10.810000 134.787855 135.412217 136.112778 136.121484 136.821488 137.513042
10.910000 135.520772 136.147004 136.911236 136.925469 137.656158 138.499034
11.010000 136.238118 136.977150 137.773992 137.818002 138.612247 139.817255
11.110000 136.971852 137.802919 138.715862 138.741032 139.628600 140.755767
11.210000 137.614118 138.609235 139.643069 139.683610 140.718929 141.871392
11.310000 138.459697 139.449279 140.581517 140.650946 141.827935 143.278375
11.410000 139.145206 140.308309 141.512443 141.607528 142.882088 144.585492
11.510000 139.916614 141.078154 142.373173 142.513717 143.939488 146.031909
11.610000 140.742600 141.879535 143.281752 143.449941 144.962020 147.246560
11.710000 141.599487 142.849432 144.292278 144.489359 146.036545 148.651806
11.810000 142.338903 143.772838 145.377323 145.592395 147.445496 150.157890
11.910000 143.463939 145.005349 146.611210 146.885860 148.796313 151.689296
