depth(m) lower_95(kyr) lower_68(kyr) median(kyr) mean(kyr) upper_68(kyr) upper_95(kyr)
0.010000 0.003147 0.022101 0.073530 0.103718 0.192326 0.355530
0.025000 0.038740 0.063593 0.115595 0.147280 0.245142 0.397998
0.045000 0.084528 0.113850 0.170145 0.201916 0.305834 0.458299
0.060000 0.117699 0.149278 0.208526 0.242495 0.354983 0.505547
0.125000 0.229585 0.282934 0.359486 0.390067 0.528535 0.639875
0.175000 0.337301 0.396609 0.470620 0.507093 0.659202 0.749965
0.210000 0.419365 0.484575 0.552732 0.594719 0.748225 0.818758
0.225000 0.461567 0.523096 0.591904 0.636484 0.791256 0.856784
0.235000 0.495133 0.553981 0.620492 0.666415 0.818957 0.884126
0.245000 0.526055 0.583752 0.655473 0.696808 0.854007 0.910584
0.260000 0.570929 0.625308 0.701938 0.743427 0.895229 0.946049
0.275000 0.616959 0.667304 0.752860 0.789160 0.936461 0.984277
0.285000 0.650253 0.697483 0.789044 0.820195 0.964854 1.009862
0.295000 0.682640 0.729876 0.825475 0.851620 0.990959 1.034250
0.305000 0.710303 0.761101 0.865171 0.883703 1.017966 1.061204
0.345000 0.811300 0.871042 1.000704 0.993726 1.107247 1.157770
0.360000 0.851873 0.920328 1.055313 1.039177 1.146856 1.198967
0.375000 0.897826 0.974230 1.104308 1.086664 1.186501 1.237153
0.385000 0.931778 1.014092 1.139711 1.121116 1.214750 1.266352
0.395000 0.969887 1.049377 1.172701 1.154384 1.242878 1.296202
0.410000 1.020828 1.106775 1.221034 1.204371 1.285742 1.341024
0.425000 1.071977 1.163520 1.268331 1.253570 1.330815 1.392378
0.445000 1.147767 1.240302 1.326381 1.315879 1.387612 1.448999
0.460000 1.194449 1.290232 1.371565 1.363719 1.433717 1.491449
0.475000 1.247320 1.345573 1.420322 1.412920 1.481036 1.533741
0.485000 1.292454 1.382998 1.453150 1.447232 1.514453 1.575467
0.495000 1.329695 1.415372 1.486501 1.481153 1.548922 1.608734
0.505000 1.368464 1.447340 1.518872 1.515935 1.582308 1.640547
0.515000 1.407851 1.481479 1.552626 1.550303 1.618154 1.680467
0.545000 1.501480 1.573550 1.643180 1.643367 1.710455 1.791655
0.560000 1.548560 1.618808 1.690920 1.692793 1.764792 1.856317
0.575000 1.591816 1.662331 1.740417 1.741794 1.815274 1.906407
0.595000 1.656515 1.728177 1.807778 1.809415 1.889551 1.979354
0.610000 1.712718 1.777645 1.858432 1.861295 1.944693 2.036151
0.625000 1.753441 1.829559 1.911958 1.912541 1.995154 2.091400
0.645000 1.815773 1.899930 1.977225 1.982750 2.069380 2.159848
0.660000 1.860763 1.950754 2.031117 2.035490 2.123426 2.208702
0.675000 1.913867 2.004872 2.084566 2.090332 2.182314 2.269961
0.695000 1.993348 2.070830 2.155528 2.158925 2.251661 2.330928
0.715000 2.061393 2.135903 2.228491 2.229569 2.322836 2.398674
0.735000 2.134701 2.204862 2.301492 2.300292 2.392236 2.462562
0.745000 2.166503 2.242340 2.339153 2.336761 2.427928 2.500762
0.760000 2.214545 2.298639 2.392595 2.389231 2.474743 2.549475
0.775000 2.261721 2.351111 2.447381 2.442074 2.521844 2.601723
0.795000 2.339787 2.424595 2.517526 2.510211 2.585095 2.676675
0.810000 2.388116 2.474521 2.568315 2.563008 2.637304 2.745165
0.825000 2.443463 2.527054 2.617631 2.615941 2.689300 2.831512
0.845000 2.522432 2.603843 2.682252 2.686559 2.768612 2.904935
0.860000 2.569832 2.655239 2.728243 2.740732 2.824280 2.965041
0.875000 2.618066 2.703763 2.781105 2.794245 2.883836 3.035168
0.895000 2.698097 2.766188 2.853795 2.866605 2.968341 3.140483
0.915000 2.753701 2.831008 2.919525 2.939838 3.060504 3.222321
0.945000 2.838902 2.917395 3.022942 3.046294 3.183431 3.349176
0.960000 2.888591 2.965742 3.086962 3.103380 3.244797 3.416734
0.975000 2.938351 3.019862 3.150862 3.164535 3.312929 3.473068
0.995000 3.006814 3.096475 3.235249 3.245532 3.399014 3.545475
1.010000 3.056572 3.158050 3.307731 3.310948 3.464771 3.598481
1.025000 3.111986 3.222388 3.373587 3.375944 3.530922 3.655943
1.045000 3.175329 3.306308 3.462454 3.464069 3.618731 3.747053
1.060000 3.231557 3.373033 3.531774 3.528865 3.683714 3.812164
1.075000 3.296406 3.440549 3.602122 3.593700 3.745031 3.857504
1.095000 3.375464 3.528694 3.689200 3.678537 3.821411 3.936446
1.115000 3.461518 3.621100 3.771972 3.763624 3.906409 4.006260
1.145000 3.602617 3.764129 3.907114 3.893910 4.025427 4.108182
1.160000 3.667693 3.839413 3.970001 3.957999 4.083475 4.162173
1.175000 3.722363 3.905137 4.034690 4.021106 4.143202 4.210262
1.185000 3.756236 3.943565 4.080608 4.063109 4.181072 4.248096
1.195000 3.794932 3.997020 4.127520 4.106870 4.216362 4.290629
1.210000 3.862386 4.078752 4.189481 4.170437 4.267127 4.332189
1.230000 3.942922 4.172215 4.273873 4.251967 4.336386 4.394737
1.235000 3.968866 4.193173 4.293540 4.271575 4.357002 4.417769
1.245000 4.007540 4.234072 4.328827 4.309023 4.388854 4.451599
1.260000 4.083315 4.296489 4.379297 4.362877 4.439517 4.495649
1.275000 4.155689 4.346900 4.427061 4.415814 4.491791 4.552728
1.285000 4.207000 4.380873 4.462262 4.450758 4.526964 4.593019
1.295000 4.255477 4.416859 4.492098 4.484022 4.558191 4.621985
1.315000 4.329590 4.481344 4.554455 4.546715 4.623575 4.691400
1.345000 4.445784 4.559512 4.634426 4.632893 4.708607 4.795613
1.360000 4.498626 4.605566 4.681262 4.679607 4.755152 4.841980
1.375000 4.541394 4.650795 4.725480 4.725036 4.803425 4.879660
1.410000 4.642037 4.742248 4.817794 4.819052 4.899066 4.999503
1.460000 4.786682 4.871026 4.946096 4.951063 5.028338 5.126662
1.510000 4.915909 5.001434 5.076809 5.083223 5.161977 5.270806
1.525000 4.957301 5.046811 5.123349 5.128332 5.206521 5.314372
1.545000 5.027641 5.110029 5.183751 5.190419 5.265295 5.383113
1.560000 5.075210 5.151674 5.232259 5.238385 5.319375 5.444280
1.575000 5.111623 5.199336 5.277670 5.285926 5.368100 5.502510
1.595000 5.191610 5.263259 5.340732 5.349814 5.430672 5.597045
1.615000 5.250819 5.323494 5.401837 5.413180 5.496785 5.688008
1.645000 5.341687 5.409124 5.493031 5.512095 5.610133 5.814934
1.660000 5.388321 5.458061 5.547560 5.564026 5.667652 5.868633
1.675000 5.438492 5.506398 5.596613 5.617796 5.729185 5.926785
1.685000 5.468793 5.539035 5.637189 5.657048 5.775702 5.978469
1.710000 5.555118 5.618817 5.722080 5.752310 5.891997 6.075564
1.745000 5.650089 5.725533 5.856540 5.885130 6.059153 6.235365
1.760000 5.699419 5.778804 5.923456 5.948081 6.123377 6.299764
1.775000 5.748236 5.831444 5.991736 6.012171 6.193098 6.368681
1.785000 5.780388 5.873351 6.034784 6.054520 6.238519 6.415355
1.795000 5.819774 5.921155 6.085380 6.099235 6.277757 6.460692
1.845000 5.997948 6.138259 6.328058 6.324711 6.498514 6.696294
1.860000 6.052371 6.214594 6.395949 6.396476 6.569505 6.752441
1.875000 6.125244 6.299757 6.469909 6.468496 6.645422 6.819321
1.895000 6.239175 6.400132 6.567920 6.567423 6.733426 6.895006
1.910000 6.317478 6.475383 6.637547 6.638025 6.802383 6.954356
1.925000 6.375457 6.542991 6.708194 6.706789 6.871528 7.024819
1.935000 6.416939 6.587085 6.750916 6.752364 6.920208 7.064369
1.945000 6.479199 6.633030 6.797362 6.795858 6.961366 7.116741
1.960000 6.546632 6.700525 6.864670 6.859144 7.021182 7.191664
1.975000 6.606859 6.771298 6.929848 6.924938 7.079696 7.250615
1.995000 6.670171 6.844678 7.012155 7.008388 7.162662 7.333003
2.015000 6.741935 6.922596 7.090722 7.087503 7.249703 7.426073
2.060000 6.906284 7.079625 7.242557 7.245236 7.411325 7.624803
2.075000 6.947671 7.132438 7.296414 7.300662 7.466448 7.674859
2.110000 7.061799 7.252858 7.411083 7.423117 7.600249 7.823283
2.125000 7.117206 7.300810 7.464499 7.477135 7.665331 7.880622
2.160000 7.223629 7.410138 7.582957 7.597362 7.804094 8.019425
2.175000 7.266962 7.460353 7.632543 7.646013 7.852257 8.063313
2.317500 7.585692 7.802906 8.026756 8.027889 8.246849 8.528757
2.460000 7.911092 8.141333 8.400309 8.398164 8.617887 9.008104
2.537500 8.093965 8.356833 8.609648 8.618297 8.847973 9.342252
2.615000 8.292926 8.564722 8.824369 8.842013 9.064238 9.693662
2.737500 8.563174 8.939228 9.155417 9.188880 9.396559 10.106125
2.860000 8.869238 9.337699 9.492801 9.562183 9.732103 10.691600
2.875000 8.918079 9.398315 9.544821 9.616512 9.790143 10.781192
2.885000 8.965420 9.431406 9.581496 9.655704 9.836524 10.812113
2.895000 9.006852 9.468180 9.621180 9.697381 9.891632 10.874555
2.960000 9.340967 9.689566 9.879219 9.983054 10.308102 11.104964
2.995000 9.458324 9.817135 10.044924 10.147245 10.533730 11.221495
3.010000 9.579113 9.876008 10.125782 10.219785 10.605677 11.290326
3.060000 9.814597 10.085570 10.414771 10.493024 10.945741 11.534537
3.160000 10.179307 10.511220 10.967395 11.025987 11.551238 12.083618
3.260000 10.555448 10.967422 11.529775 11.547621 12.092442 12.698792
3.360000 10.959684 11.447810 12.034228 12.048996 12.624368 13.224351
3.460000 11.419119 11.956357 12.557085 12.567750 13.178510 13.819604
3.560000 11.860036 12.473357 13.080631 13.105399 13.773445 14.435624
3.660000 12.343828 13.038877 13.654276 13.692587 14.368468 15.057323
3.760000 12.959194 13.690549 14.365835 14.336412 14.990825 15.571090
3.860000 14.000215 14.628688 15.239574 15.244891 15.899084 16.433828
3.920000 14.505391 15.108557 15.698309 15.716868 16.369028 16.806488
3.960000 14.854614 15.415108 16.055229 16.044737 16.679346 17.202951
4.020000 15.308949 15.930234 16.639430 16.648310 17.378611 18.046748
4.060000 15.563485 16.216296 16.932435 16.957983 17.689161 18.370329
4.205000 16.727919 17.464093 18.380497 18.447309 19.414803 20.680618
4.312500 17.250121 18.175707 19.136961 19.200815 20.194119 21.619668
4.420000 17.741619 18.785740 19.867167 19.903831 20.937563 22.327228
4.520000 18.263897 19.358660 20.496484 20.530571 21.730169 23.088733
4.620000 18.767235 19.900216 21.156356 21.176443 22.421118 24.013942
4.720000 19.186824 20.488332 21.823868 21.856489 23.174431 24.908483
4.820000 19.680375 21.060104 22.483844 22.512800 23.935838 25.772154
4.920000 20.320586 21.687573 23.151899 23.199714 24.732318 26.536494
5.020000 20.814194 22.249330 23.802746 23.891648 25.507505 27.416651
5.120000 21.340173 22.933857 24.529803 24.598527 26.325959 28.146558
5.220000 21.905418 23.586053 25.335843 25.365804 27.138048 29.124885
5.320000 22.663950 24.291387 26.190582 26.175537 27.986324 29.964139
5.440000 23.610260 25.301551 27.357699 27.368251 29.325445 31.174015
5.560000 24.677028 26.522497 28.624531 28.616231 30.759837 32.660825
5.680000 25.650730 27.758308 29.912425 29.906069 32.107099 34.055236
5.800000 26.640745 28.977444 31.124732 31.136374 33.449170 35.369124
5.920000 28.198701 30.238035 32.408992 32.428693 34.567678 36.618694
6.020000 29.090201 31.057632 33.291306 33.325069 35.563180 37.731437
6.120000 29.757977 31.805344 34.156338 34.200511 36.683776 38.558837
6.220000 30.466929 32.700871 35.025741 35.031956 37.570758 39.259242
6.320000 31.424997 33.492691 35.820550 35.848238 38.342673 39.936167
6.420000 32.195220 34.291113 36.670345 36.671258 39.159818 40.545660
6.520000 32.966071 34.990872 37.602901 37.422012 39.834595 41.075493
6.620000 33.687912 35.761982 38.376330 38.135643 40.438250 41.613190
6.720000 34.361457 36.429064 39.008233 38.822995 41.101600 42.282269
6.820000 34.895528 37.203492 39.809533 39.481794 41.638057 42.816356
6.920000 35.613354 37.873602 40.460007 40.115597 42.130225 43.346084
7.020000 36.092853 38.669983 41.065384 40.753986 42.722597 43.877167
7.120000 36.859273 39.367912 41.752820 41.405738 43.295406 44.401818
7.220000 37.521332 40.300746 42.296265 42.039706 43.802432 44.945111
7.320000 37.976881 41.050087 42.904659 42.690830 44.403568 45.613523
7.420000 38.834100 41.681198 43.568171 43.368044 45.023092 46.324157
7.520000 39.640848 42.388054 44.333295 44.071180 45.758272 46.990263
7.620000 40.343143 43.025388 45.113501 44.767574 46.448228 47.570735
7.720000 41.033560 43.486706 45.724701 45.405442 47.224052 48.477501
7.820000 41.552398 43.965378 46.329371 46.003056 47.917477 49.207052
7.920000 42.231949 44.427950 46.845407 46.595602 48.557816 49.789056
8.020000 42.885174 44.926556 47.400395 47.160653 49.181951 50.595567
8.120000 43.471266 45.491933 47.909177 47.724361 49.759413 51.216460
8.253333 44.238439 46.218740 48.546594 48.443591 50.558322 51.964289
8.386667 45.001778 46.911351 49.257709 49.164395 51.276969 52.650849
8.520000 45.659408 47.717943 50.030189 49.898381 52.025501 53.342287
8.653333 46.315297 48.518590 50.639498 50.614450 52.781478 54.115501
8.786667 46.931295 49.265137 51.332616 51.333689 53.524316 54.845647
8.920000 47.454652 50.034119 52.021965 52.032402 54.177435 55.414097
9.020000 48.030430 50.609096 52.614025 52.581445 54.696880 56.003579
9.120000 48.778748 51.227656 53.138145 53.147617 55.269729 56.576548
9.220000 49.511909 51.839520 53.706259 53.737061 55.841189 57.242271
9.320000 50.193328 52.412565 54.286007 54.301935 56.423295 57.798805
9.420000 50.832164 52.952009 54.874924 54.864366 57.019969 58.299836
9.520000 51.544512 53.481455 55.415719 55.415865 57.548401 58.846826
9.620000 52.082720 54.082712 56.000274 55.986386 58.105270 59.504274
9.720000 52.723108 54.624685 56.556655 56.554559 58.665138 60.057072
9.820000 53.364435 55.250010 57.108270 57.148744 59.271616 60.756138
9.920000 53.941999 55.804730 57.637953 57.728185 59.849876 61.444662
10.020000 54.570537 56.416190 58.213927 58.328042 60.426170 62.140129
10.070000 54.887722 56.737700 58.497605 58.657430 60.737664 62.618268
10.170000 55.731890 57.337200 59.089804 59.326585 61.419358 63.876780
10.220000 56.170674 57.626934 59.451985 59.668412 61.764095 64.588105
10.295000 56.710277 58.109497 59.910352 60.186731 62.179862 65.646622
10.370000 57.328455 58.659081 60.416811 60.730838 62.664187 66.804190
10.470000 57.998550 59.395547 61.095485 61.472437 63.389707 67.747884
10.570000 58.920551 60.197368 61.830480 62.254569 64.069853 68.999639
10.670000 59.817003 61.073378 62.646894 63.130955 65.126803 69.622599
10.770000 60.723772 62.102249 63.627406 64.122450 66.343650 70.400277
10.870000 62.351646 63.847154 65.419079 65.725909 67.463590 70.931042
10.970000 64.760843 65.881003 67.160965 67.405968 68.826535 71.476109
11.015000 65.582026 66.626354 67.886202 68.066627 69.443116 71.861062
11.070000 66.791130 67.749314 68.827873 68.991031 70.214762 72.244037
11.120000 67.838634 68.722189 69.728508 69.828887 70.932607 72.735319
11.145000 68.310565 69.067214 70.050853 70.199216 71.292248 72.932539
11.170000 68.734438 69.483686 70.451425 70.581417 71.649864 73.229576
11.215000 69.410942 70.236307 71.214366 71.319992 72.361406 73.785238
11.270000 70.002766 70.916630 71.961780 72.039073 73.191881 74.355428
11.320000 70.555483 71.565889 72.638421 72.673566 73.799278 74.803037
11.370000 71.185581 72.260620 73.350651 73.378902 74.461740 75.537290
11.420000 71.865197 72.979648 74.105872 74.105492 75.215505 76.460443
11.470000 72.495514 73.643829 74.791873 74.787362 75.885538 77.162850
11.515000 72.926576 74.164356 75.354734 75.334831 76.440040 77.829369
11.570000 73.613711 74.844273 75.963143 75.966842 77.126885 78.366281
11.620000 74.347835 75.377581 76.541668 76.551226 77.748398 78.829717
11.670000 74.819360 75.968735 77.086218 77.135866 78.386309 79.344566
11.715000 75.379498 76.457738 77.668528 77.643782 78.828884 79.781217
11.770000 75.894150 77.044229 78.303473 78.215415 79.380324 80.197576
11.820000 76.521160 77.598179 78.804776 78.722728 79.858319 80.660781
11.870000 77.143190 78.141995 79.321171 79.234026 80.297083 81.095643
11.970000 78.172098 79.169756 80.143847 80.108382 80.984908 81.870842
12.020000 78.796855 79.653006 80.585557 80.569750 81.407829 82.324171
12.070000 79.354510 80.180567 81.047706 81.049673 81.896918 82.846970
12.115000 79.745766 80.585601 81.459098 81.460194 82.345424 83.399302
12.170000 80.262084 81.024388 81.894833 81.924592 82.849972 83.838119
12.220000 80.621853 81.433764 82.257100 82.336739 83.329695 84.347955
12.270000 81.065271 81.896054 82.696384 82.788895 83.773887 84.812024
12.370000 81.969054 82.754148 83.597500 83.679655 84.681265 85.702393
12.420000 82.371149 83.260257 84.121442 84.185036 85.138124 86.191271
12.470000 82.865422 83.752865 84.705960 84.765710 85.781794 86.851035
12.515000 83.336420 84.390939 85.392270 85.399828 86.426203 87.515104
12.620000 85.402109 86.282111 87.249205 87.350391 88.458514 89.682365
12.670000 86.204901 87.017533 88.060977 88.130170 89.290547 90.309642
12.715000 86.730095 87.570537 88.709202 88.733366 89.931585 90.825961
12.770000 87.397023 88.294253 89.424299 89.411002 90.528205 91.333205
12.820000 87.973423 88.907665 90.037392 90.005207 91.084210 91.853201
12.920000 89.208090 90.159335 91.101954 91.091693 92.017090 92.640619
12.970000 89.897056 90.847893 91.729893 91.686202 92.564631 93.115810
13.015000 90.502536 91.448005 92.276592 92.237828 93.080470 93.674203
13.070000 91.343563 92.229801 93.031939 93.009025 93.770062 94.617957
13.095000 91.742890 92.548162 93.311711 93.315170 94.060217 94.955332
13.145000 92.371186 93.143882 93.990933 94.029841 94.910764 95.942529
13.215000 93.188503 93.963673 94.861019 95.052106 96.132255 98.000335
13.270000 93.742550 94.583889 95.642049 95.879780 97.187215 99.476632
13.320000 94.270082 95.156912 96.314890 96.650380 98.191394 100.677414
13.370000 94.829552 95.728016 97.195903 97.512101 99.338715 101.906708
13.415000 95.217008 96.244309 98.056467 98.257369 100.322328 102.566161
13.470000 95.947948 97.074014 99.250278 99.348236 101.591224 103.601995
13.545000 97.656743 99.320012 101.270361 101.285884 103.337169 104.921857
13.570000 98.010924 99.713528 101.642665 101.669873 103.728591 105.300807
13.670000 102.751188 104.010788 105.065082 105.047818 106.084287 107.261248
13.720000 103.700170 104.835765 105.775454 105.781747 106.730275 107.881731
13.770000 104.360436 105.468731 106.436639 106.406095 107.359135 108.512629
13.815000 104.991254 105.963626 106.962086 106.917565 107.809564 108.891797
13.870000 105.584270 106.573494 107.566865 107.511198 108.384710 109.302707
13.920000 106.378354 107.245058 108.087401 108.085313 108.924731 109.712943
13.970000 106.887337 107.894300 108.684442 108.660934 109.439105 110.172151
14.015000 107.466228 108.457100 109.225466 109.173948 109.871613 110.487771
14.070000 108.367373 109.136778 109.794210 109.752677 110.395378 110.923258
14.120000 108.975515 109.575611 110.255053 110.219717 110.829417 111.372158
14.140000 109.160714 109.779794 110.453485 110.409573 110.987023 111.536161
14.170000 109.468055 110.104876 110.718282 110.688777 111.235532 111.758447
14.175000 109.518629 110.158249 110.768552 110.734674 111.271682 111.790210
14.270000 110.723365 111.213811 111.666102 111.656169 112.102684 112.466614
14.290000 110.948180 111.451356 111.841868 111.843003 112.271293 112.620404
14.320000 111.284667 111.732543 112.111008 112.119454 112.532259 112.898172
14.325000 111.312009 111.774708 112.159605 112.162430 112.562965 112.937043
14.370000 111.735682 112.125648 112.532312 112.518242 112.898101 113.241352
14.405000 112.023018 112.384059 112.796000 112.786029 113.162555 113.566513
14.440000 112.275388 112.635509 113.058101 113.046744 113.412169 113.854563
14.475000 112.496256 112.902887 113.300540 113.295448 113.670837 114.120414
14.515000 112.786536 113.184884 113.580154 113.569379 113.959802 114.374828
14.590000 113.270892 113.704870 114.071771 114.078353 114.479241 114.872081
14.675000 113.949165 114.306832 114.663038 114.710667 115.152982 115.595967
14.705000 114.187855 114.558053 114.921253 114.966680 115.423553 115.893698
14.715000 114.270472 114.639486 115.014382 115.051932 115.499051 115.973498
14.740000 114.442918 114.827236 115.225757 115.256475 115.709985 116.154765
14.855000 115.162078 115.478965 115.958313 115.971591 116.455249 116.828588
14.890000 115.341565 115.696461 116.198746 116.195755 116.683732 117.162096
14.925000 115.515019 115.898706 116.401213 116.396529 116.889165 117.377691
15.057500 116.152501 116.515469 117.040780 117.038711 117.525451 118.026291
15.190000 116.789667 117.137550 117.677699 117.656085 118.152980 118.618419
15.297500 117.246451 117.624418 118.154388 118.133693 118.634623 119.081695
15.405000 117.741707 118.121449 118.638378 118.620186 119.090106 119.523409
15.465000 118.027929 118.423890 118.915413 118.899899 119.361196 119.799787
15.565000 118.488624 118.846283 119.375749 119.348194 119.786957 120.362521
