depth(m) lower_95(kyr) lower_68(kyr) median(kyr) mean(kyr) upper_68(kyr) upper_95(kyr)
22.160000 694.996316 699.165003 701.979965 703.649115 706.946609 727.889168
22.260000 699.067952 702.441191 705.990785 706.823712 709.024104 729.835638
22.360000 703.367597 706.581843 708.957799 709.894809 711.088914 731.658858
22.410000 705.239382 708.295000 710.330195 711.309896 712.034492 732.360547
22.460000 707.652346 710.066209 711.696938 712.721574 713.058948 733.683299
22.510000 709.931883 711.886300 713.117584 714.193304 714.135660 734.611057
22.560000 712.444480 713.941134 714.730272 715.984411 715.738091 735.982138
22.610000 714.437314 715.466707 716.349674 717.754507 718.028167 736.962542
22.660000 715.906284 717.022653 718.423520 719.709969 720.593094 738.338470
22.760000 718.289090 720.583360 723.215415 725.019909 730.606772 740.343458
22.860000 720.683401 723.244881 732.966910 731.387063 738.511408 742.528163
22.910000 721.765035 724.118885 735.257103 733.201591 740.263409 743.545754
22.970000 723.105048 725.874882 737.576514 735.453750 742.388395 744.580310
23.010000 724.084058 728.005132 739.112798 736.834642 743.405596 745.488177
23.110000 727.879613 738.049781 743.911372 742.440344 745.872407 747.843112
23.160000 730.378973 740.417506 745.367908 744.146929 747.309779 749.011633
23.260000 739.324097 744.582341 747.680726 747.055092 749.581290 751.106756
23.360000 744.389686 747.483959 749.760502 749.380246 751.351872 752.705595
23.410000 745.519705 748.609425 750.706231 750.423308 752.274676 753.600935
23.460000 746.690664 749.797035 751.676361 751.443122 753.072126 754.372718
23.510000 748.481942 750.874453 752.623579 752.406470 753.917018 755.050621
23.560000 749.965641 751.967253 753.552233 753.385505 754.762917 755.803007
23.610000 751.342248 753.132176 754.542858 754.378758 755.622195 756.659088
23.660000 752.772632 754.279963 755.526247 755.402020 756.512543 757.494410
23.710000 753.939591 755.251724 756.499772 756.419047 757.527232 758.540348
23.760000 755.171080 756.353716 757.420988 757.439139 758.562979 759.634692
23.810000 756.213607 757.382970 758.461265 758.504353 759.651172 760.909791
23.860000 757.357907 758.412818 759.619818 759.645027 760.879449 762.093598
23.910000 758.304450 759.423431 760.709249 760.754127 762.077415 763.518927
23.960000 759.274865 760.440569 761.801500 761.862635 763.275965 764.694152
24.010000 760.304951 761.458981 762.943352 762.928454 764.307205 765.738986
24.060000 761.209996 762.403403 763.927129 763.922439 765.418888 766.723064
24.110000 762.044923 763.303104 764.843433 764.826405 766.340338 767.723951
24.160000 762.846510 764.179114 765.724764 765.657801 767.114517 768.362776
24.260000 764.380134 765.772859 767.344586 767.211825 768.553306 769.557217
24.310000 765.084112 766.608054 768.170988 768.041986 769.369454 770.718958
24.360000 765.910718 767.484195 769.004170 768.908240 770.238957 771.688727
24.410000 766.885276 768.348276 769.895590 769.837315 771.332077 772.692835
24.470000 768.121774 769.537613 771.077584 771.126187 772.715124 774.106800
24.510000 769.404204 770.618373 772.211051 772.238247 773.855241 775.151079
24.560000 770.688149 771.980399 773.590354 773.601742 775.187288 776.528467
24.610000 772.185668 773.492159 775.064091 774.987736 776.364012 777.859837
24.660000 773.578688 775.135786 776.532078 776.469275 777.733043 779.231186
24.710000 775.071660 776.494736 777.832324 777.796615 779.086241 780.589665
24.760000 776.320895 777.616219 778.944288 778.950229 780.235237 781.798266
24.810000 777.416127 778.712787 780.012364 779.978958 781.240917 782.624166
24.860000 778.280918 779.653291 780.938510 780.924552 782.203108 783.499648
24.910000 779.252018 780.619297 781.896896 781.877598 783.182780 784.392306
24.960000 780.184169 781.500568 782.821942 782.803266 784.108116 785.170580
25.010000 781.182112 782.447477 783.791030 783.764145 785.113940 786.046766
25.060000 782.254481 783.508077 784.846170 784.747271 785.946437 786.786995
25.110000 783.252007 784.603032 785.863311 785.725897 786.811568 787.614697
25.160000 784.260624 785.734055 786.967379 786.801144 787.840609 788.526688
25.210000 785.323242 786.866844 787.924003 787.792092 788.717550 789.300738
25.260000 787.022236 788.261347 789.086337 788.979473 789.707409 790.323248
25.360000 790.124720 790.652514 791.288949 791.261123 791.836442 792.354363
25.410000 791.029971 791.555600 792.160415 792.122417 792.649470 793.201414
25.460000 791.753864 792.327733 792.866472 792.886035 793.427419 794.047387
25.560000 792.943390 793.596171 794.320979 794.324060 795.006543 795.750206
25.610000 793.653259 794.368825 795.127852 795.096335 795.818765 796.528872
25.660000 794.432858 795.149834 795.924036 795.887698 796.572836 797.327560
25.710000 795.129763 795.980274 796.702500 796.688190 797.363972 798.133722
25.760000 795.975789 796.811910 797.513953 797.498869 798.195212 798.875517
25.810000 796.744843 797.626133 798.334669 798.298422 798.980110 799.592319
25.860000 797.548256 798.434762 799.123784 799.103560 799.801809 800.376036
25.910000 798.491913 799.233898 799.912730 799.891248 800.555638 801.206763
25.970000 799.411366 800.134489 800.825737 800.795193 801.497349 802.034581
26.010000 800.024415 800.758100 801.448645 801.430521 802.108131 802.719851
26.060000 800.876533 801.594041 802.242891 802.233515 802.880785 803.454860
26.110000 801.667139 802.385773 803.017406 803.021581 803.713007 804.242270
26.160000 802.547182 803.149255 803.784125 803.784522 804.425833 804.984322
26.210000 803.321071 803.900637 804.557135 804.538483 805.170979 805.795711
26.260000 804.073135 804.659891 805.300199 805.306679 805.935521 806.606071
26.310000 804.786295 805.393552 806.063629 806.039917 806.703425 807.285883
26.360000 805.478201 806.131665 806.804932 806.791014 807.426613 808.084225
26.410000 806.262410 806.917172 807.573765 807.559941 808.209244 808.806220
26.460000 806.997022 807.675975 808.359085 808.342872 809.004122 809.634988
26.510000 807.739359 808.473597 809.157295 809.162646 809.832594 810.548738
26.560000 808.538401 809.268238 809.962186 809.988190 810.684612 811.580132
26.610000 809.412721 810.065146 810.753886 810.817929 811.527200 812.598186
26.660000 810.089287 810.815092 811.570857 811.653700 812.415145 813.556474
26.710000 810.831515 811.626937 812.366724 812.593787 813.358096 815.933376
26.760000 811.591438 812.397504 813.214019 813.647270 814.390871 820.663915
26.810000 812.355631 813.141413 814.051055 814.840151 815.496491 825.703042
26.860000 813.131392 813.978793 814.970292 816.112707 816.955419 827.427750
26.910000 813.934901 814.953752 816.101786 817.439795 818.437806 828.658352
27.010000 816.185778 817.439296 819.460364 821.559681 830.054643 832.894458
27.060000 817.605381 819.296509 821.391433 823.394390 831.789294 834.495128
27.100000 818.695783 820.794123 822.964877 824.805352 832.800665 835.792617
27.175000 821.319584 824.527465 829.313579 829.558352 834.783984 838.058425
27.250000 823.595251 830.419943 834.776358 833.946170 837.226022 840.345093
27.300000 826.666286 832.505859 836.975478 836.087272 838.964139 841.792176
27.350000 829.758775 834.961607 838.692165 838.057393 840.898175 843.268199
27.400000 832.080988 837.278114 840.612119 840.112404 843.038367 845.188496
27.450000 833.952775 839.749744 842.800963 842.266886 845.030101 846.910474
27.550000 842.375238 845.173958 847.363114 847.171029 848.937790 852.751892
27.600000 843.847695 846.829423 848.790502 848.725935 850.269001 854.835663
27.650000 845.532577 848.240661 850.266055 850.283999 852.116793 856.344044
27.750000 848.688868 851.383222 853.492072 853.602350 855.929410 859.478785
27.875000 852.752269 855.726774 858.632231 858.525522 861.426501 863.685732
28.000000 860.058101 862.490480 864.304983 864.088881 865.615552 867.032885
28.050000 865.759661 866.698620 867.551713 867.595159 868.512476 869.694301
28.100000 867.297239 867.986763 868.847669 868.983088 869.853349 871.465653
28.150000 868.220209 868.933318 869.749422 870.027387 871.002737 873.716539
28.200000 869.065792 869.756551 870.567613 870.986881 872.096632 876.307002
28.250000 869.871169 870.642300 871.503331 872.017275 873.223529 877.737733
28.300000 870.780396 871.459527 872.410842 873.077321 874.605764 879.187048
28.350000 871.644291 872.437883 873.495689 874.167039 875.980866 880.365383
28.400000 872.498176 873.411962 874.557206 875.267076 877.254195 881.418440
28.475000 873.681602 874.764935 876.237970 876.900064 879.338579 883.297055
28.550000 875.153404 876.322032 877.904729 878.576993 881.216065 884.697082
28.600000 876.091397 877.366905 879.061266 879.739619 882.539550 885.634956
28.650000 877.401673 878.617469 880.462524 881.085063 884.169599 886.820626
28.700000 878.370491 879.868225 881.963566 882.529341 885.639929 888.062265
28.750000 879.522187 881.178592 883.817588 884.079939 887.267850 889.069196
28.800000 880.676134 882.447317 885.567469 885.599668 888.778582 890.330730
28.850000 881.899074 883.932943 887.426144 887.099484 889.974890 891.567422
28.900000 883.194593 885.736849 889.144101 888.708675 891.272050 892.829697
29.000000 887.330127 890.125342 892.315647 892.249272 894.342220 896.868503
29.050000 890.370937 892.663839 894.826820 894.858859 896.864301 900.127789
29.100000 892.958848 895.762334 898.363407 898.559917 901.375745 904.459993
29.200000 896.962726 900.261918 905.841328 905.808440 910.580052 915.447966
29.250000 899.341249 902.638927 908.813550 908.483997 914.386338 916.780363
29.350000 906.655899 913.197302 917.904797 916.635612 919.306915 920.913227
29.425000 910.354987 917.061190 919.727340 919.010992 921.237392 922.874491
29.500000 917.380921 919.499243 921.376707 921.270619 923.019713 925.021034
29.575000 919.851844 921.395325 923.147109 923.207398 925.018578 927.408074
29.650000 921.593095 923.321461 924.974221 925.169180 927.271771 929.782341
29.750000 925.357430 926.834680 928.818895 929.010036 931.326381 933.341653
29.800000 926.909836 928.684379 931.238250 931.118163 933.391699 935.335695
29.850000 928.759725 930.909332 933.145940 933.076402 935.209456 936.899890
29.900000 930.849353 933.014618 935.199136 935.095772 937.102983 938.768612
29.950000 933.234031 934.840432 937.287380 937.219634 939.329939 941.490075
30.000000 934.568522 936.935750 939.473657 939.343348 941.548540 943.511355
30.050000 935.585963 938.729132 941.429261 941.233760 943.665822 945.807695
30.080000 936.171558 939.608201 942.574059 942.359620 944.919460 947.382974
30.130000 937.264289 941.485946 945.244391 945.074467 948.256596 952.543950
30.205000 938.742126 944.356720 950.629714 950.710410 956.451426 962.605200
30.280000 940.091165 948.922756 958.482274 956.604475 960.393074 973.509172
30.355000 941.592375 954.737852 962.888864 961.911710 969.411453 977.550612
30.430000 942.747386 958.818691 968.623865 966.774428 973.621671 980.370696
30.480000 944.138232 959.896599 970.556082 968.717734 975.567533 981.842474
30.530000 945.978912 960.728445 973.318341 970.745771 977.546563 982.809888
30.630000 958.606502 962.435709 979.232480 975.361258 981.723105 984.753039
30.680000 960.712725 963.599238 982.046145 977.674610 984.071826 985.862855
30.740000 962.776606 964.879365 983.794171 979.361823 985.803239 987.099523
30.780000 963.814861 965.872548 984.736577 980.341244 986.824129 988.006323
30.890000 966.399639 968.277707 987.076392 982.646603 988.984635 990.192898
30.930000 967.395253 969.315601 988.075100 983.606176 989.916700 991.180013
30.980000 968.612458 970.551128 989.467862 984.919054 991.264171 992.530075
31.030000 969.561158 971.781189 990.542496 986.060468 992.400922 993.747952
31.080000 970.656742 972.851154 991.659862 987.128151 993.480442 994.849429
31.130000 971.852707 974.096000 992.827581 988.233608 994.555765 995.800100
31.180000 972.931247 975.192922 993.875607 989.300190 995.654780 996.793100
31.230000 974.227395 976.294474 994.988695 990.385075 996.708720 997.901206
31.280000 975.466716 977.531480 996.143471 991.467534 997.783951 998.896175
31.330000 976.433826 978.626551 997.214126 992.535537 998.841342 999.865519
31.380000 977.571734 979.843405 998.257287 993.626256 999.917677 1000.986856
31.430000 978.798454 981.059767 999.458511 994.784968 1001.064559 1002.350023
31.505000 981.091230 984.095458 1001.180451 997.087636 1003.494596 1005.556814
31.580000 983.843400 988.060829 1003.002918 999.535021 1006.300953 1007.964536
31.655000 987.398104 992.283024 1005.334518 1002.064958 1008.393075 1010.062426
31.730000 992.620347 996.120349 1007.706805 1004.536381 1010.277200 1011.728391
31.780000 994.841510 998.389341 1009.172609 1006.031198 1011.414466 1012.834645
31.830000 997.354760 1000.680215 1010.358172 1007.524415 1012.550179 1013.869353
31.880000 1001.941493 1003.843786 1011.469970 1009.423640 1013.498936 1014.799713
31.930000 1003.864501 1006.612425 1012.633939 1011.169449 1014.511095 1015.841888
31.980000 1005.740262 1008.795091 1013.832390 1012.601901 1015.512448 1016.767000
32.055000 1008.136317 1010.889117 1015.358709 1014.366794 1016.975300 1018.123387
32.130000 1010.212713 1012.846128 1016.908483 1016.092282 1018.386803 1019.705705
32.180000 1011.337803 1014.114053 1018.018470 1017.190423 1019.369324 1020.669512
32.230000 1012.498536 1015.540980 1019.070186 1018.331193 1020.388849 1021.731331
32.280000 1014.187783 1017.048674 1020.093365 1019.470383 1021.431144 1022.742867
32.330000 1015.350495 1018.294196 1021.194961 1020.620006 1022.479169 1023.863931
32.390000 1016.785838 1019.882814 1022.399282 1021.960065 1023.790203 1025.144694
32.530000 1020.641300 1023.087283 1025.120369 1024.828729 1026.467067 1027.636790
32.580000 1022.138697 1024.448376 1026.146543 1025.959243 1027.492541 1028.631472
32.630000 1023.740140 1025.656370 1027.275204 1027.145562 1028.623872 1029.758689
32.680000 1025.323001 1026.989052 1028.467257 1028.373861 1029.717245 1030.828927
32.730000 1027.072939 1028.516301 1029.847129 1029.809401 1031.134280 1032.294038
32.780000 1028.615641 1030.159946 1031.485317 1031.489396 1032.779922 1034.497226
32.830000 1031.593004 1033.249793 1034.807234 1035.078377 1036.903006 1040.253431
32.880000 1033.652015 1035.272272 1037.355793 1037.534099 1039.675467 1042.650307
32.980000 1036.649184 1038.777686 1041.476210 1041.481826 1044.305568 1046.346347
33.030000 1038.015058 1040.652366 1043.550684 1043.414535 1046.205860 1048.222694
33.080000 1039.877041 1042.605069 1045.389598 1045.235012 1047.835672 1049.576768
33.130000 1041.731081 1044.544762 1047.198689 1046.957801 1049.364411 1051.013136
33.180000 1043.266541 1046.354528 1048.770879 1048.562541 1050.845361 1052.367435
33.230000 1045.258719 1047.921804 1050.331707 1050.115279 1052.282865 1053.570577
33.280000 1047.281790 1049.648124 1051.936809 1051.660060 1053.633803 1054.945804
33.330000 1049.330506 1051.556151 1053.400581 1053.207502 1054.998253 1056.239358
33.380000 1051.326045 1053.191423 1054.879104 1054.721819 1056.229860 1057.357186
33.430000 1053.107838 1054.725731 1056.204294 1056.066095 1057.439141 1058.367587
33.480000 1054.775766 1056.203760 1057.507482 1057.416849 1058.611087 1059.610919
33.530000 1056.472677 1057.520181 1058.733167 1058.667406 1059.773455 1060.632174
33.580000 1057.684355 1058.811045 1059.995135 1059.910198 1060.980648 1061.865703
33.630000 1058.865864 1060.048977 1061.169675 1061.142901 1062.182798 1063.200037
33.680000 1060.064930 1061.249105 1062.412374 1062.364304 1063.437520 1064.527963
33.730000 1061.232092 1062.487550 1063.695041 1063.671040 1064.805703 1066.068077
33.846667 1063.594048 1064.828975 1066.233948 1066.263927 1067.685175 1069.013208
33.963333 1065.947304 1067.193880 1068.825049 1068.874733 1070.529061 1071.914171
34.080000 1068.231654 1069.701877 1071.445112 1071.434023 1073.211219 1074.772011
34.130000 1069.342197 1070.796782 1072.745343 1072.682009 1074.421013 1076.050743
34.180000 1070.553426 1072.061637 1074.102327 1074.043066 1075.883255 1077.786114
34.230000 1071.811165 1073.290222 1075.575934 1075.655325 1077.825944 1080.733954
34.272000 1073.100647 1074.554618 1076.762042 1076.942243 1079.392370 1082.114784
34.280000 1073.340221 1074.777241 1077.047227 1077.228885 1079.652242 1082.404963
34.330000 1075.027347 1076.755751 1079.291539 1079.582220 1082.267964 1085.599037
34.455000 1080.046972 1084.593382 1092.261508 1093.063241 1102.818138 1110.518837
34.580000 1094.087431 1096.956167 1098.703925 1107.194778 1127.651062 1133.010835
34.630000 1096.662653 1099.000521 1100.567697 1109.907286 1132.036972 1136.148609
34.680000 1098.828820 1100.532589 1102.039522 1111.951043 1135.212620 1138.620519
34.730000 1100.622882 1101.902708 1103.496079 1113.874484 1138.019008 1141.131233
34.780000 1101.910653 1103.219059 1104.694332 1115.307803 1139.803904 1143.161314
34.830000 1103.074211 1104.362611 1105.953485 1116.697265 1141.598198 1144.897181
34.880000 1104.754406 1105.832778 1107.254603 1118.183728 1143.499684 1146.402264
34.930000 1106.110660 1107.310306 1108.685685 1119.650080 1144.981382 1148.471020
34.980000 1107.510356 1108.731484 1110.111540 1121.099022 1146.425154 1149.610021
35.030000 1108.970651 1110.231945 1111.709996 1122.635619 1147.876318 1150.882888
35.080000 1110.543541 1111.757333 1113.793847 1124.434560 1149.266139 1152.153911
35.130000 1112.479310 1114.121042 1119.231143 1127.776765 1150.636774 1153.510799
35.180000 1113.796078 1116.111473 1129.733626 1131.798457 1151.990780 1155.015010
35.230000 1115.145264 1117.979880 1134.219664 1135.457794 1153.543674 1156.581405
35.280000 1116.163172 1120.057500 1137.582846 1138.426124 1155.219292 1158.349194
35.330000 1117.753904 1123.996037 1139.363205 1140.553521 1156.638604 1160.244434
35.390000 1119.962088 1130.333741 1141.305597 1143.085544 1158.652556 1162.732763
35.430000 1121.144393 1132.238208 1142.629612 1144.705486 1159.973338 1164.328860
35.555000 1128.911073 1137.810427 1147.266718 1150.913002 1166.266650 1169.590359
35.680000 1136.943929 1142.770416 1152.329798 1157.504230 1172.434722 1175.273866
35.730000 1138.874697 1144.490508 1154.810337 1159.702953 1174.501592 1177.462883
35.780000 1140.837054 1146.252884 1158.396592 1161.963305 1176.516133 1179.199706
35.830000 1143.144667 1148.301861 1162.751598 1164.312261 1178.555240 1180.968057
35.880000 1144.771239 1150.377215 1171.088202 1167.317647 1180.223168 1182.340551
35.930000 1146.740105 1152.314465 1177.246045 1170.355951 1181.990468 1183.573223
35.980000 1148.516626 1155.117800 1180.354175 1173.325844 1183.492666 1185.089645
36.030000 1150.634107 1160.874019 1182.584813 1176.645196 1185.131107 1186.643190
36.080000 1153.487614 1170.833142 1184.565844 1179.797737 1186.762231 1187.943397
36.130000 1156.531293 1176.778888 1186.630825 1183.111172 1188.332864 1189.325324
36.180000 1159.263305 1183.452936 1188.800756 1186.144382 1189.936627 1190.703939
36.230000 1162.530928 1189.791988 1191.183126 1189.506943 1192.068145 1193.337464
36.330000 1192.085752 1193.434735 1194.848946 1194.999775 1196.272720 1200.211290
36.380000 1194.261707 1195.525582 1197.099145 1197.459062 1199.385653 1202.688596
36.480000 1196.892542 1199.522131 1201.886709 1201.944704 1204.560612 1206.615136
36.530000 1199.065148 1201.774624 1204.408507 1204.267515 1206.863959 1208.681324
36.580000 1201.761130 1204.515751 1206.928388 1206.740230 1208.987636 1210.868672
36.630000 1206.531505 1208.560087 1210.310329 1210.434950 1212.236123 1215.025310
36.680000 1208.832040 1210.722831 1213.029171 1213.068599 1215.442320 1218.376291
36.730000 1210.694286 1212.638009 1215.520291 1215.465406 1218.161172 1220.708307
36.780000 1212.471743 1214.433082 1217.903873 1217.835192 1220.925194 1223.277106
36.830000 1214.009189 1216.858861 1220.354076 1220.385348 1223.782529 1226.558111
36.890000 1215.962069 1219.572980 1223.147117 1227.406554 1242.398730 1243.744542
36.930000 1217.455265 1221.559055 1225.055638 1230.223782 1243.932090 1245.365513
36.970000 1218.979611 1223.343312 1227.533446 1232.930356 1245.927989 1247.647927
37.070000 1243.334592 1244.793717 1246.332747 1246.646910 1248.795622 1251.026921
