depth(m) lower_95(kyr) lower_68(kyr) median(kyr) mean(kyr) upper_68(kyr) upper_95(kyr)
31.670000 714.050424 715.060118 715.895701 715.890297 716.774453 717.653557
31.770000 715.925134 716.625107 717.394189 717.430190 718.241601 719.073792
31.870000 717.210670 717.991504 718.751116 718.786302 719.565895 720.488555
31.970000 718.526549 719.288280 720.112532 720.127834 720.901384 721.961191
32.070000 719.900129 720.640090 721.451799 721.528013 722.413838 723.521653
32.170000 721.313733 722.069166 722.987975 723.131596 724.056310 725.738155
32.270000 722.851095 723.655460 724.691630 725.138640 726.530247 730.699217
32.370000 724.231735 725.278215 726.832816 727.611519 730.258239 734.374852
32.470000 725.679823 727.111986 729.557202 730.348242 734.282126 736.814806
32.570000 727.337763 729.364616 733.322005 733.169352 736.794146 738.613758
32.670000 729.166491 732.144015 736.362472 735.861189 738.982618 740.508358
32.770000 731.625644 735.321273 739.116446 738.339413 740.912770 742.340509
32.870000 734.729061 738.379066 741.295592 740.715087 742.692496 743.881596
32.970000 738.721163 741.705600 743.352504 743.034097 744.366445 745.417561
33.070000 743.130255 744.553849 745.501873 745.503227 746.460194 747.653576
33.170000 745.125292 746.191372 747.282198 747.340216 748.415096 749.957320
33.270000 746.669609 747.823477 748.980851 749.114251 750.359723 752.444424
33.370000 748.121694 749.324868 750.710734 750.829788 752.252983 754.414939
33.470000 749.636628 750.915079 752.391477 752.532737 754.119424 756.343166
33.603333 751.692077 753.156516 754.756802 754.958492 756.791940 759.513210
33.736667 753.831506 755.237833 757.050659 757.364984 759.534575 762.390428
33.870000 755.970494 757.581247 759.474206 759.822540 762.254326 764.923753
33.970000 757.557994 759.260587 761.592652 761.888448 764.563751 767.137934
34.070000 759.272151 761.196302 763.844417 764.040995 767.003603 769.103260
34.170000 761.398921 763.573240 766.396273 766.521288 769.469254 772.259195
34.270000 763.741883 766.083982 769.171799 769.320098 772.327361 776.350494
34.370000 766.716259 769.227066 772.239823 772.441974 775.523611 779.647207
34.470000 771.145455 773.475796 776.725976 777.083559 780.920946 784.773200
34.560000 773.711538 776.728607 780.585794 780.761662 785.128465 787.587688
34.660000 776.781396 780.597164 785.581630 784.719054 788.377540 789.354666
34.760000 781.023548 786.246120 789.701278 788.773928 790.948239 791.982093
34.860000 790.049406 791.449497 792.383806 792.281435 793.131725 794.063547
34.960000 791.995874 793.035384 793.951483 793.980990 794.988618 796.103042
35.060000 793.674411 794.540849 795.495671 795.555647 796.555694 797.777958
35.160000 795.117544 796.039849 797.149053 797.133071 798.193387 799.341192
35.260000 796.592686 797.627934 798.725855 798.741850 799.874540 801.240343
35.360000 798.098355 799.272429 800.456784 800.466327 801.604218 803.061988
35.460000 799.877825 801.103995 802.305435 802.381349 803.666610 805.173801
35.560000 801.746897 803.135668 804.569051 804.801935 806.499956 808.761131
35.693333 804.223089 805.893566 808.447200 808.976146 812.053848 816.856967
35.826667 806.749964 809.376336 813.488822 813.668825 818.054906 821.634207
35.960000 809.514155 814.809598 818.861981 818.566380 822.785216 825.122410
36.060000 810.954713 818.701261 823.288640 822.089724 825.482483 827.594953
36.160000 812.465782 824.372010 826.368364 825.352230 828.141766 830.820172
36.260000 814.087794 826.644516 828.634922 827.816927 830.712316 834.338556
36.360000 816.217173 828.755278 831.155657 830.617906 834.133160 838.286584
36.460000 820.230975 830.796994 834.101073 833.487136 837.161695 840.664371
36.560000 825.959837 832.875975 837.631435 836.652135 840.135613 843.237579
36.660000 830.763317 836.130544 840.825061 840.169142 843.882655 847.689824
36.760000 833.890931 839.627585 844.052909 843.597493 847.448601 851.884499
36.893333 838.006098 843.648365 847.832950 847.676845 851.793743 856.263716
37.026667 843.425759 848.409962 851.949927 851.950947 855.698014 860.350717
37.160000 850.377687 853.185645 856.437826 856.477481 860.056042 863.711940
37.260000 855.614456 858.019395 861.219624 861.011684 863.864746 866.158534
37.360000 868.228439 870.583368 872.536955 872.426645 874.267757 875.992876
37.460000 871.936135 873.443077 875.282566 875.211550 876.958138 878.277368
37.560000 874.057405 875.587165 877.415854 877.378211 879.039612 880.596673
37.660000 875.802804 877.704572 879.639824 879.586701 881.403680 883.249509
37.760000 877.665201 879.673836 881.698512 881.612903 883.543901 885.605764
37.860000 879.174217 881.433881 883.570483 883.480263 885.440269 887.391811
37.960000 880.885900 883.281152 885.452176 885.329627 887.288501 889.064224
38.060000 882.719860 885.294572 887.488412 887.241577 889.166589 890.479460
38.160000 884.542530 887.469715 889.493139 889.196554 890.899510 892.348042
38.260000 886.465360 889.553177 891.455968 891.204481 892.853232 894.283648
38.360000 888.731591 891.792481 893.380054 893.240667 894.812694 896.461373
38.460000 891.709852 893.865382 895.322805 895.308172 896.657528 898.713212
38.560000 894.330552 896.008794 897.413809 897.702303 899.101046 903.837008
38.660000 896.931471 898.370316 899.927558 900.621118 902.909925 908.339280
38.760000 898.853947 900.582568 902.736064 903.653830 907.296021 912.581448
38.860000 900.973360 902.812530 905.875482 906.767096 911.247801 915.685207
38.993333 903.660602 906.009853 910.668844 911.291474 917.152086 920.439698
39.126667 906.079773 909.719755 915.399202 915.697455 921.724956 924.268649
39.260000 909.106401 913.844989 921.000134 919.706414 925.267695 927.188323
39.360000 911.876435 917.110554 924.440178 922.599727 927.365694 929.057795
39.460000 916.404448 920.633944 926.786049 925.414728 929.314677 931.032999
39.560000 920.956133 925.002575 929.117980 928.308845 931.243368 932.948437
39.660000 926.347077 928.684797 931.611821 931.264191 933.559693 935.327578
39.760000 929.507351 931.803555 933.733576 933.758898 935.760445 937.817306
39.860000 932.519871 934.476512 936.305908 936.416890 938.396262 940.790909
39.960000 934.975637 936.908320 938.996080 939.100382 941.368682 943.553137
40.060000 938.353860 940.252817 942.565069 942.683264 944.970905 947.679048
40.160000 941.874363 944.569863 947.028241 947.085241 949.565760 952.509845
40.260000 945.908554 948.469219 951.219532 951.099678 953.720354 955.388150
40.360000 949.998148 953.073026 955.502908 955.066818 956.877357 957.835493
40.460000 957.346625 958.430093 959.181821 959.175023 959.947254 961.171863
40.560000 960.574823 961.845744 963.072672 963.267424 964.917201 966.427632
40.660000 962.887549 964.563503 966.719551 966.697602 968.774747 970.516660
40.760000 965.227505 967.418239 969.489494 969.605314 971.822239 973.857528
40.860000 968.878441 970.845870 973.333262 973.257174 975.646480 977.276526
40.960000 971.382881 973.510854 976.244697 975.948366 978.009678 979.688186
41.060000 973.439077 976.064550 978.595473 978.270005 980.131859 981.520931
41.160000 975.707111 978.868306 980.698154 980.483463 981.961135 983.292277
41.260000 978.636434 981.403796 982.770005 982.694002 983.981396 985.533047
41.360000 980.797301 983.318896 984.684932 984.688446 986.013254 987.462391
41.460000 983.199428 985.282483 986.652021 986.704664 987.902000 989.450959
41.560000 985.773969 987.249427 988.594923 988.702480 989.856107 991.472453
41.660000 987.960394 989.318201 990.721778 990.856869 992.066898 993.774818
41.760000 990.353900 991.588100 993.083048 993.328843 994.729279 997.475519
41.860000 992.301442 993.859206 995.489636 995.771099 997.297928 1000.581804
41.960000 994.346707 996.262392 997.979027 998.412556 999.956963 1005.209384
42.060000 997.102610 999.161686 1000.644068 1001.266915 1002.540251 1010.141791
42.160000 1001.017025 1002.303561 1003.980676 1004.883621 1007.758867 1013.351465
42.260000 1003.407449 1005.173880 1007.904483 1008.658239 1012.368254 1017.792504
42.360000 1006.192878 1008.794463 1012.016677 1012.481275 1016.446279 1021.065305
42.460000 1009.953216 1013.400382 1016.486088 1017.067844 1021.522182 1024.570007
42.560000 1012.799397 1016.940502 1020.768117 1020.761934 1025.004365 1027.602789
42.660000 1015.997799 1020.811227 1024.802762 1024.274655 1027.807974 1029.880492
42.760000 1019.544966 1024.955998 1028.193295 1027.676993 1030.485707 1032.606313
42.860000 1025.379420 1029.368138 1031.496960 1031.204367 1033.147411 1035.636625
42.960000 1029.696602 1032.452041 1034.699508 1034.831380 1037.421805 1040.775865
43.060000 1033.571986 1035.439299 1038.040605 1038.245044 1041.040152 1044.352894
43.160000 1035.893488 1038.141346 1041.048431 1041.185576 1044.296418 1047.267985
43.260000 1037.826218 1040.603209 1043.935342 1043.862746 1047.079825 1049.724097
43.360000 1040.364014 1043.291182 1046.566833 1046.449519 1049.598025 1051.920143
43.460000 1042.901858 1045.799444 1049.078135 1048.821326 1051.798304 1053.752848
43.560000 1045.454950 1048.229089 1051.451984 1051.192843 1053.976647 1055.886012
43.660000 1047.910250 1050.719565 1053.746134 1053.484259 1056.165243 1057.905173
43.760000 1050.162442 1053.011372 1056.006782 1055.750853 1058.428283 1060.089521
43.860000 1052.842590 1055.440225 1058.263587 1058.026101 1060.569003 1061.993022
43.960000 1055.887050 1058.258141 1060.799881 1060.527735 1062.720408 1064.066561
44.060000 1060.609228 1062.726755 1064.456805 1064.424965 1065.954123 1068.489505
44.160000 1064.988214 1066.221049 1067.858290 1068.360532 1070.687992 1074.015247
44.170000 1065.366416 1066.587354 1068.263124 1068.736868 1071.109912 1074.274990
44.270000 1067.811182 1069.498866 1072.362403 1072.247083 1074.822807 1077.161341
44.370000 1070.295239 1072.705701 1076.523265 1076.168421 1078.946134 1082.056482
44.470000 1073.249899 1076.707299 1080.092867 1079.936062 1082.929376 1085.877702
44.570000 1078.049931 1080.998302 1083.808451 1083.695935 1086.452611 1088.558738
44.670000 1082.536228 1084.935687 1087.323132 1087.254942 1089.614344 1091.282686
44.770000 1085.785271 1088.052039 1090.225227 1090.051731 1091.967549 1093.424048
44.870000 1088.669904 1090.609210 1092.554220 1092.354088 1094.047658 1095.177578
44.970000 1091.530191 1093.302387 1094.894100 1094.753208 1096.101367 1097.198767
45.070000 1094.208863 1096.180626 1097.500972 1097.358010 1098.512758 1099.590814
45.170000 1096.434618 1098.485069 1099.733578 1099.591484 1100.773831 1101.947803
45.270000 1098.987376 1100.609878 1101.741754 1101.690999 1102.806338 1103.898936
45.370000 1101.921561 1102.971411 1103.964612 1104.104029 1105.222145 1107.096188
45.470000 1104.437922 1105.760672 1107.224407 1107.409467 1109.225161 1110.817485
45.570000 1106.894772 1109.516542 1111.260992 1111.108323 1112.783021 1114.531678
45.670000 1111.453807 1113.243299 1114.809393 1114.844537 1116.501720 1118.236760
45.770000 1114.270937 1116.537116 1118.497961 1118.336099 1120.041447 1121.606892
45.870000 1119.385984 1121.668605 1123.098325 1123.199429 1124.983473 1126.847679
45.970000 1122.714498 1124.752042 1126.335911 1126.489059 1128.310607 1130.468221
46.070000 1125.704290 1127.444539 1129.697121 1129.879320 1132.112665 1135.594599
46.170000 1127.769339 1129.503197 1132.106199 1132.339334 1135.098381 1138.776587
46.270000 1129.732766 1131.674724 1134.239316 1134.635415 1137.767114 1141.332986
46.370000 1131.852045 1133.805238 1136.332506 1136.988812 1140.667133 1143.953887
46.470000 1134.079121 1136.212717 1139.433938 1139.824506 1143.529517 1147.545521
46.570000 1136.322035 1139.461882 1142.877853 1143.288692 1147.242533 1151.143772
46.670000 1139.464224 1144.346936 1148.173350 1148.143406 1152.318826 1155.878113
46.770000 1145.510983 1149.480476 1153.611028 1153.172359 1156.765646 1160.277573
46.870000 1149.733902 1154.525880 1157.758916 1157.687151 1160.959431 1163.938978
46.970000 1154.566161 1158.161069 1160.983535 1161.032007 1164.017765 1167.818669
47.070000 1157.448190 1160.780396 1163.637730 1163.643083 1166.454549 1170.485427
47.170000 1160.276126 1163.497254 1166.126335 1166.270042 1168.815684 1173.752849
47.270000 1162.792064 1166.057314 1168.602105 1168.820051 1171.377431 1176.591322
47.370000 1165.029168 1168.642781 1171.301217 1171.509069 1174.364253 1179.788530
47.470000 1167.080656 1171.317430 1173.978256 1174.250143 1177.231619 1182.406809
47.570000 1169.678991 1173.798895 1176.887166 1177.011887 1180.328837 1184.539672
47.670000 1172.805855 1176.720358 1180.056528 1180.113271 1183.758785 1186.572131
47.770000 1175.965357 1179.928220 1183.935350 1183.470326 1186.927929 1188.436448
47.870000 1180.164840 1184.673465 1187.856154 1187.142109 1189.441785 1190.498536
47.970000 1189.285086 1190.837089 1191.846457 1191.851121 1192.914834 1194.438569
48.070000 1191.766985 1192.668648 1193.847724 1194.011498 1195.242436 1197.387859
48.170000 1193.610379 1194.671575 1195.885016 1196.201379 1197.755757 1200.826803
48.270000 1195.468964 1196.843090 1198.351888 1198.712363 1200.832286 1203.260155
48.370000 1197.311294 1199.022662 1201.175686 1201.237596 1203.562247 1205.523876
48.470000 1199.687625 1201.356836 1203.907207 1203.756049 1205.966822 1207.527981
48.570000 1201.904172 1203.949868 1206.355766 1206.110895 1208.022796 1209.752628
48.670000 1204.316206 1206.463853 1208.343140 1208.259175 1209.999064 1211.668257
48.770000 1206.877082 1208.591699 1210.302296 1210.408477 1212.027639 1215.264746
48.870000 1209.892480 1211.216255 1212.765823 1212.992032 1214.694996 1217.543077
48.970000 1211.759937 1213.333790 1215.157590 1215.333693 1217.418295 1219.777617
49.070000 1213.866633 1215.483256 1217.517470 1217.583084 1219.670169 1221.569305
49.170000 1215.997731 1217.788877 1219.938586 1219.863587 1221.872348 1223.524211
49.270000 1218.453948 1220.435300 1222.423667 1222.312220 1224.161049 1225.580190
49.370000 1221.225736 1223.156431 1224.827469 1224.787274 1226.347376 1228.408907
49.470000 1224.287612 1226.086431 1227.816313 1228.184713 1230.064463 1234.889382
49.570000 1228.129602 1230.038500 1232.424164 1232.920644 1236.272238 1239.531085
49.670000 1231.530608 1234.226178 1236.872697 1237.020792 1240.430906 1241.816204
49.710000 1233.406259 1235.866685 1238.555237 1238.542922 1241.670509 1242.708398
49.770000 1237.900588 1239.594634 1241.551088 1241.346037 1243.051293 1243.912964
49.810000 1242.067621 1243.437056 1244.184642 1244.088217 1244.903727 1245.549913
49.910000 1244.900211 1245.585921 1246.294756 1246.385807 1247.209436 1248.274799
50.010000 1246.464209 1247.227769 1248.171694 1248.304732 1249.411662 1250.874282
50.110000 1247.838999 1248.784209 1249.903807 1249.973141 1251.172003 1252.752171
50.210000 1249.310896 1250.396012 1251.506608 1251.596160 1252.792777 1254.514298
50.310000 1250.899337 1251.925192 1252.988800 1253.171480 1254.442671 1256.444788
50.410000 1252.577711 1253.546779 1254.757333 1255.009518 1256.603963 1258.352348
50.510000 1254.252808 1255.385802 1256.877284 1257.051757 1258.822724 1261.000865
50.610000 1255.827893 1257.259338 1258.989462 1259.198690 1261.134806 1263.849743
50.710000 1257.599082 1259.416501 1260.949176 1261.227790 1263.063975 1266.174193
50.810000 1259.802098 1261.547560 1263.513806 1263.686013 1266.093724 1268.325101
50.910000 1261.578918 1263.236947 1266.160560 1265.995368 1268.520154 1270.615506
51.010000 1263.289847 1265.545937 1269.017660 1268.750082 1271.475795 1273.830109
51.110000 1265.005420 1267.785919 1271.233487 1271.053547 1274.108493 1276.032280
51.210000 1267.104756 1269.872021 1273.302076 1273.098018 1276.274661 1278.167654
51.310000 1269.954288 1272.448344 1275.347974 1275.288687 1278.219912 1279.823973
51.410000 1272.321281 1274.876279 1277.801511 1277.575617 1280.095982 1281.704965
51.510000 1274.937087 1278.090938 1280.555620 1280.237985 1282.350405 1284.210626
51.610000 1278.466364 1281.768077 1284.372044 1284.156508 1286.460881 1288.499466
51.710000 1283.854478 1286.105410 1287.948625 1287.784925 1289.363179 1291.012765
51.810000 1287.179095 1288.514422 1289.866137 1289.907718 1291.303538 1293.128047
51.910000 1288.995600 1290.420285 1291.625954 1291.756045 1293.064285 1295.446678
52.010000 1290.827729 1292.175692 1293.499933 1293.735699 1295.495256 1297.602711
52.110000 1292.831673 1294.112074 1295.674409 1295.787889 1297.517475 1299.201396
52.210000 1294.726686 1296.420089 1297.940344 1297.919934 1299.418853 1300.905247
52.310000 1296.609127 1298.529184 1300.068040 1299.951072 1301.321320 1302.586329
52.410000 1299.127479 1300.558179 1301.868858 1301.818118 1303.001528 1304.257743
52.510000 1301.132329 1302.311852 1303.431874 1303.429735 1304.468107 1306.079524
52.610000 1302.825083 1303.836627 1304.767342 1304.877859 1305.777931 1307.673379
52.710000 1304.359309 1305.231462 1306.080594 1306.236014 1307.112097 1309.515266
52.810000 1305.769970 1306.556304 1307.421525 1307.619074 1308.548170 1310.949315
52.910000 1307.004221 1307.797052 1308.728910 1308.956204 1310.011987 1312.509900
53.010000 1308.249919 1309.113863 1310.168954 1310.439646 1311.613561 1314.574396
53.110000 1309.657279 1310.585210 1311.752842 1312.099164 1313.608759 1316.251449
53.210000 1310.862345 1312.159913 1313.513042 1313.856961 1315.617209 1318.294369
53.310000 1312.444372 1313.808979 1315.406429 1315.673575 1317.666930 1319.896462
53.410000 1314.046465 1315.287503 1317.147016 1317.314591 1319.295920 1321.617801
53.510000 1315.551259 1316.943600 1318.712556 1318.835643 1320.721431 1322.996992
53.610000 1316.863258 1318.525505 1320.344828 1320.377582 1322.213798 1324.309044
53.710000 1318.384058 1320.147054 1321.940030 1321.942543 1323.729783 1325.837026
53.810000 1320.006903 1321.783614 1323.573648 1323.576396 1325.408263 1327.199743
53.910000 1321.713704 1323.561144 1325.398325 1325.368881 1327.177249 1328.735949
54.010000 1323.745719 1325.733981 1327.614771 1327.494885 1329.176758 1330.759964
54.110000 1325.927328 1327.706329 1329.560735 1329.468801 1331.112783 1332.648479
54.210000 1327.896632 1329.639570 1331.444232 1331.323877 1332.869891 1334.335417
54.310000 1329.778149 1331.424863 1333.175990 1333.023689 1334.534296 1335.921840
54.410000 1331.520804 1333.296184 1334.799921 1334.744326 1336.157131 1337.603258
54.510000 1333.388909 1335.260035 1336.532590 1336.466165 1337.771212 1339.222507
54.610000 1335.318615 1336.847032 1338.110808 1338.083123 1339.385870 1340.551270
54.710000 1337.130903 1338.493247 1339.720444 1339.718090 1340.979987 1342.239224
54.810000 1338.671482 1340.069253 1341.240785 1341.257030 1342.448374 1343.594964
54.910000 1340.351167 1341.601127 1342.599342 1342.656363 1343.769981 1344.942892
55.010000 1342.168411 1343.145032 1344.201709 1344.244571 1345.383938 1346.392602
55.110000 1343.863635 1344.932255 1346.094215 1346.315629 1347.473644 1350.443782
55.210000 1346.832100 1348.156749 1350.060248 1350.465845 1353.049432 1355.466401
55.310000 1348.687815 1350.896189 1354.132053 1353.807989 1356.317580 1358.283484
55.410000 1350.727491 1353.586981 1358.046532 1357.317856 1360.152577 1362.170944
55.510000 1352.767505 1356.166065 1360.013292 1359.569576 1362.414382 1364.463537
55.610000 1355.573379 1359.005836 1361.929843 1361.728357 1364.335098 1366.599762
55.710000 1358.719096 1361.634699 1363.894483 1363.867915 1366.197790 1368.633570
55.810000 1361.229081 1363.684350 1366.031744 1366.044558 1368.472360 1371.080474
55.910000 1363.762115 1365.931132 1368.225866 1368.388485 1370.937733 1373.906088
56.010000 1367.219404 1369.305816 1371.927779 1372.007821 1374.808815 1376.893473
56.110000 1369.267241 1371.999215 1375.500795 1375.125096 1378.066267 1379.606997
56.210000 1371.567865 1375.812863 1378.690310 1378.320083 1380.809428 1382.889930
56.310000 1375.862252 1379.180075 1381.669716 1381.399715 1383.787290 1385.422869
56.410000 1380.253912 1382.337058 1384.976662 1384.765622 1386.807556 1389.105989
56.510000 1382.932035 1385.687517 1388.116554 1388.339069 1391.083865 1394.454357
56.610000 1387.336600 1389.068089 1391.781847 1391.868137 1394.652711 1397.708518
56.710000 1389.788581 1391.897628 1394.870547 1394.934575 1397.890796 1400.206279
