depth(m) lower_95(kyr) lower_68(kyr) median(kyr) mean(kyr) upper_68(kyr) upper_95(kyr)
26.200000 695.286160 702.798172 706.191290 705.430567 708.407619 709.810829
26.300000 701.013985 705.659767 708.644810 708.010399 710.293719 711.400495
26.400000 705.508115 708.688398 710.871704 710.422344 712.084324 712.969939
26.500000 709.524970 711.830981 713.002928 712.799445 713.829167 714.641440
26.600000 713.353582 714.296337 715.034495 715.024748 715.740983 716.621050
26.700000 715.367975 716.233401 716.946048 716.971634 717.730944 718.585221
26.800000 717.066935 717.806480 718.632366 718.632340 719.454125 720.300851
26.900000 718.621809 719.406594 720.226328 720.262691 721.059702 722.071128
27.000000 720.222157 721.069169 721.971626 721.999630 722.866750 723.931773
27.100000 722.058480 722.982106 723.923375 724.106051 725.138726 727.576516
27.200000 723.779438 724.786777 726.156011 726.672558 728.540288 733.019997
27.300000 725.602572 726.932447 729.031683 729.814580 733.226289 736.631057
27.400000 727.708359 729.426908 733.234123 733.221678 736.922546 739.235954
27.500000 729.950414 733.017203 736.929720 736.506846 739.715545 741.283539
27.600000 732.747139 736.573323 740.010839 739.406592 742.031034 743.208755
27.690000 736.145588 739.684346 742.387721 741.850346 743.912413 744.978244
27.790000 739.664655 742.754008 744.505279 744.226515 745.828021 746.849427
27.890000 743.515852 745.165623 746.405523 746.363418 747.590072 748.640134
27.990000 745.710213 747.011243 748.233555 748.215587 749.438842 750.698982
28.090000 747.587525 748.761866 750.020386 750.010615 751.247604 752.401627
28.190000 749.436939 750.585128 751.830931 751.841482 752.989221 754.400677
28.290000 751.201846 752.487812 753.677632 753.678256 754.874584 756.237699
28.390000 753.160133 754.449539 755.610840 755.648237 756.836753 758.259070
28.490000 755.321121 756.530990 757.713919 757.868648 759.236548 761.278764
28.590000 757.329960 758.492176 760.021230 760.211646 761.967224 764.220172
28.690000 759.202791 760.761064 762.641072 762.825649 765.135509 766.945973
28.790000 761.549499 763.316276 765.623007 765.645613 767.999028 769.599346
28.890000 764.158847 766.725132 769.302580 769.123855 771.264453 773.452478
28.910000 764.724947 767.527948 769.881329 769.819300 771.917865 774.343377
28.990000 768.925980 770.799302 772.787073 773.186339 775.099502 780.458390
29.010000 769.716419 771.562185 773.564264 773.970853 775.921431 781.570532
29.090000 772.337153 774.772023 779.961110 780.996643 787.577600 788.662598
29.110000 773.075254 775.470877 781.009237 781.919818 788.415996 789.338843
29.210000 779.729658 789.835209 790.913513 790.407346 791.801837 792.547021
29.310000 789.280202 792.195142 793.281454 793.171780 794.523535 795.677054
29.410000 793.630357 794.362574 795.457159 795.545288 796.783746 798.094257
29.510000 795.447115 796.304839 797.517140 797.647173 799.016768 800.520929
29.610000 797.155327 798.344546 799.692720 799.814407 801.379696 802.807356
29.710000 799.301747 800.687247 802.184491 802.236986 803.877287 805.480058
29.810000 801.851137 803.285999 804.768743 804.846145 806.418811 808.036845
29.910000 804.660888 806.270768 807.966649 807.980896 809.819136 811.391319
30.010000 807.712937 809.691716 811.606355 811.766172 813.654967 816.478307
30.110000 810.887518 813.159925 815.945704 816.331565 819.557069 824.080879
30.210000 813.206230 816.648167 822.043080 821.242648 825.013907 827.655084
30.310000 815.647140 823.753491 826.776886 825.942131 828.429444 830.771582
30.410000 818.202853 827.146126 829.730375 829.153205 831.916214 834.776153
30.510000 821.585713 829.837226 832.492623 832.088017 835.122436 838.007782
30.610000 825.678226 832.451964 835.177155 834.982785 837.919502 840.862087
30.710000 831.314927 835.373593 838.105417 838.040515 840.929289 843.778983
30.810000 835.773138 838.578653 841.362902 841.762287 844.965176 851.702778
30.910000 839.783570 842.223093 845.769752 847.269419 852.599482 857.359895
31.010000 844.587189 847.784976 855.968193 855.472029 863.067970 865.109741
31.110000 851.630154 864.989767 866.534065 865.333410 867.625351 868.995277
31.210000 867.976089 869.026723 870.120565 870.156998 871.247751 872.441697
31.310000 870.590476 871.599656 872.563682 872.648152 873.747875 875.240030
31.410000 872.746302 873.707215 874.827354 874.860560 875.989243 877.634898
31.510000 874.658055 875.714971 876.861086 876.991059 878.308900 879.924835
31.610000 876.539839 877.695156 879.105201 879.261443 880.816005 883.062124
31.710000 878.342489 879.690045 881.437923 881.754437 883.972129 886.461370
31.810000 880.368270 882.063269 884.467054 884.695781 887.650165 889.779080
31.910000 882.708758 884.978907 888.243218 888.104776 891.135241 892.651543
32.010000 886.019899 888.940827 892.269807 891.908797 894.424858 896.448077
32.110000 890.065839 893.363435 895.656839 895.787055 897.707100 905.483638
32.210000 894.613967 896.897248 899.484608 900.800572 906.331358 910.535556
32.310000 898.509357 901.446577 906.315707 906.809117 912.606354 914.980424
32.410000 903.173341 908.111534 914.200682 912.689345 916.568194 917.607593
32.510000 912.729601 917.155404 918.436037 918.210307 919.599982 920.891167
32.610000 918.342666 919.621915 920.856648 920.858592 922.074866 923.259140
32.710000 920.764764 921.953103 923.153060 923.181146 924.401115 925.834668
32.810000 923.176543 924.346800 925.538943 925.642423 927.015851 928.372995
32.910000 925.339654 926.470374 927.821914 927.917021 929.420214 931.106901
33.010000 927.615426 928.854152 930.264061 930.356291 931.969138 933.580801
33.110000 930.011113 931.186076 932.723759 932.815477 934.317402 936.298132
33.210000 932.593863 933.890194 935.664885 935.743815 937.481232 939.464109
33.310000 935.592960 937.347022 939.662555 940.082274 942.504434 947.684398
33.410000 938.423219 941.044856 943.713833 944.241691 947.499616 953.312251
33.510000 943.442885 947.163355 951.076749 950.917677 954.830621 956.863693
33.610000 947.319013 954.183215 958.141323 956.881503 959.057736 960.087412
33.710000 960.489878 961.284564 962.012405 962.163310 963.136398 964.350473
33.810000 962.542935 963.484843 964.567230 964.610467 965.784450 967.026521
33.910000 964.651723 965.739760 966.879229 966.996908 968.233259 969.705485
34.010000 966.818338 968.074316 969.476044 969.659266 971.036163 973.749254
34.110000 969.155318 970.597758 972.285783 972.825036 974.989554 979.827398
34.210000 971.445220 973.471147 975.918590 976.651506 980.466438 983.561765
34.310000 974.468295 977.349835 981.129243 980.866678 983.968119 986.327641
34.410000 980.628516 982.914721 984.985126 984.995876 986.959244 989.014561
34.510000 984.941989 986.662570 988.433030 988.527436 990.198586 992.592270
34.570000 987.045262 989.094346 990.847245 991.043324 992.859353 995.715045
34.610000 988.666929 990.676717 992.565882 992.829746 994.903987 998.538717
34.670000 991.484322 993.408560 996.182699 996.313192 999.229560 1000.981146
34.710000 993.389787 996.095936 999.503687 998.933836 1001.198368 1002.418137
34.770000 1001.662216 1002.439101 1003.242704 1003.439791 1004.483742 1006.048723
34.870000 1004.130253 1005.113818 1006.387204 1006.664568 1008.251437 1010.610897
34.970000 1006.273291 1007.617685 1009.211554 1009.621989 1011.706791 1015.288626
35.070000 1008.566618 1010.272284 1012.221970 1012.776210 1015.309840 1019.626003
35.170000 1011.413326 1013.209056 1015.783733 1016.624935 1020.420674 1025.871353
35.270000 1014.039147 1016.151036 1019.896059 1020.788085 1026.757220 1029.707115
35.370000 1016.634387 1019.658262 1026.443300 1025.513873 1030.743087 1032.439625
35.470000 1020.997111 1025.306402 1031.098390 1030.038982 1033.596744 1036.281262
35.570000 1030.442734 1032.872586 1034.575645 1034.744239 1036.709933 1039.521085
35.670000 1034.244481 1035.662779 1037.369818 1037.594219 1039.648896 1042.239697
35.770000 1036.507765 1038.064886 1039.834320 1040.098791 1042.265947 1044.733847
35.870000 1038.600096 1040.371481 1042.307206 1042.524624 1044.860530 1047.194843
35.970000 1040.781779 1042.685849 1044.772797 1044.938678 1047.303840 1049.629293
36.070000 1043.132513 1045.128409 1047.308514 1047.412859 1049.686119 1052.018814
36.170000 1045.446778 1047.725065 1049.816056 1049.904918 1052.264904 1054.150435
36.270000 1048.257885 1050.598389 1052.901405 1052.862981 1055.262848 1057.095804
36.370000 1051.456123 1054.226012 1056.646917 1056.487565 1058.670479 1060.787767
36.470000 1058.187747 1060.504084 1062.807150 1063.387357 1065.403951 1074.019810
36.570000 1064.303486 1065.957259 1070.638412 1070.793968 1076.229330 1079.517523
36.670000 1069.224521 1072.524371 1077.831689 1077.408837 1081.639393 1083.838093
36.770000 1077.522402 1081.233718 1084.420063 1083.979961 1086.626177 1088.460536
36.870000 1083.400688 1086.049827 1088.000959 1087.790492 1089.646248 1091.076775
36.970000 1087.324428 1089.208083 1090.725679 1090.599332 1091.986129 1093.152457
37.070000 1090.211505 1091.853685 1093.017556 1092.956667 1094.142885 1095.112500
37.170000 1092.738688 1094.053127 1095.161822 1095.089597 1096.203088 1096.951206
37.270000 1094.835096 1096.002596 1096.958469 1096.931868 1097.849304 1098.754864
37.370000 1096.731502 1097.671465 1098.619247 1098.608797 1099.548037 1100.454324
37.470000 1098.516383 1099.388896 1100.376863 1100.428655 1101.397346 1102.668364
37.570000 1100.407011 1101.374087 1102.383263 1102.701644 1103.707849 1109.144077
37.670000 1103.178464 1104.049181 1105.906375 1107.714420 1112.217800 1113.874532
37.770000 1106.502507 1111.975536 1114.571248 1114.059822 1116.423385 1117.984750
37.870000 1114.494107 1116.730157 1118.564031 1118.331327 1119.936696 1120.883349
37.970000 1118.926429 1120.519710 1121.588137 1121.565377 1122.573750 1123.873455
38.070000 1121.924099 1122.954709 1123.881472 1123.978535 1125.030794 1126.458742
38.170000 1123.839864 1124.922301 1126.019072 1126.112539 1127.319611 1128.645354
38.270000 1125.837374 1127.021118 1128.147475 1128.268072 1129.503574 1131.252449
38.370000 1128.065644 1129.161595 1130.385985 1130.530841 1131.876107 1133.675348
38.470000 1130.149091 1131.283824 1132.709645 1132.878470 1134.421239 1136.500721
38.570000 1132.041732 1133.407330 1135.117282 1135.271651 1136.842331 1140.530449
38.670000 1134.256327 1135.788035 1137.703626 1137.928225 1139.699813 1143.486982
38.770000 1136.366552 1138.365636 1140.460874 1140.724096 1143.009849 1146.753162
38.870000 1138.597683 1140.986289 1143.163772 1143.569429 1146.567344 1149.745134
38.970000 1141.199704 1144.013404 1146.182396 1146.916378 1150.505196 1153.718518
39.070000 1143.767980 1146.394552 1149.327639 1150.068008 1153.796419 1159.655200
39.170000 1146.080999 1148.881257 1152.820391 1153.628717 1158.328733 1169.878840
39.270000 1148.334921 1151.154770 1156.310519 1158.109294 1167.433065 1174.910770
39.370000 1150.608275 1153.319495 1160.793235 1162.958538 1174.076764 1178.795465
39.470000 1152.696812 1155.910425 1169.983948 1167.629327 1178.369252 1181.559616
39.570000 1155.113771 1159.648216 1174.692104 1172.321898 1181.674914 1183.676231
39.670000 1158.052734 1168.876157 1179.244026 1176.887677 1184.006620 1185.576755
39.770000 1163.726267 1175.648475 1183.181949 1181.259605 1186.427559 1187.534348
39.870000 1174.460956 1181.828218 1186.930331 1185.394070 1188.655423 1189.632934
39.970000 1182.639710 1187.802494 1189.792753 1189.168196 1190.784376 1191.653138
40.070000 1191.248558 1191.990608 1192.783757 1192.862510 1193.799717 1195.005007
40.170000 1193.321133 1194.152632 1195.142448 1195.244934 1196.329219 1197.863009
40.270000 1195.126257 1196.092637 1197.141291 1197.282638 1198.531978 1199.892575
40.370000 1197.027149 1198.029963 1199.241679 1199.317905 1200.656798 1201.859219
40.470000 1198.857617 1200.040387 1201.373032 1201.334939 1202.610541 1204.006096
40.570000 1200.609019 1201.894308 1203.328958 1203.239863 1204.489985 1205.698488
40.670000 1202.624346 1203.951522 1205.259237 1205.249676 1206.528522 1207.775237
40.770000 1204.593927 1205.969793 1207.379488 1207.346489 1208.645869 1210.136305
40.870000 1206.446083 1207.991351 1209.607357 1209.873896 1211.856077 1215.030964
40.970000 1208.653224 1210.053704 1212.029410 1212.658927 1215.839063 1218.241051
41.070000 1211.017945 1212.968436 1215.675067 1215.900167 1219.073513 1221.324308
41.170000 1214.203237 1217.316466 1219.925204 1219.687193 1222.123675 1223.896104
41.270000 1220.874180 1222.564913 1224.246604 1224.065946 1225.493546 1226.417746
41.280000 1221.273837 1223.027793 1224.705174 1224.526516 1225.921647 1226.991974
41.370000 1225.467930 1226.779341 1228.187932 1228.861761 1230.869250 1235.966692
41.380000 1225.793630 1227.139346 1228.598026 1229.277102 1231.343635 1236.446139
41.470000 1228.116096 1229.632012 1233.014701 1233.156298 1236.784577 1239.377114
41.480000 1228.432293 1230.007053 1233.500142 1233.563362 1237.107881 1239.649104
41.570000 1231.151182 1234.569106 1238.433527 1237.752562 1240.616053 1241.919178
41.670000 1241.831513 1242.588533 1243.147199 1243.073995 1243.633728 1244.283435
41.770000 1244.192373 1245.231387 1252.674772 1250.926297 1255.984553 1260.032984
41.870000 1245.139671 1254.270080 1256.026138 1256.061650 1260.629297 1263.362193
41.970000 1247.003086 1256.375433 1258.109984 1258.306677 1263.026249 1265.547486
42.070000 1249.453951 1258.185925 1260.151157 1260.414768 1265.064266 1267.393854
42.170000 1255.209528 1260.447903 1262.195645 1262.941924 1267.103122 1269.494501
42.270000 1260.914052 1263.214583 1265.069126 1265.874812 1269.405579 1271.602502
42.370000 1263.797464 1265.772897 1268.169405 1268.606969 1271.910836 1273.919653
42.470000 1266.344901 1268.369224 1271.134937 1271.288198 1274.499146 1276.220954
42.570000 1268.699192 1270.924075 1274.108487 1273.867992 1276.736778 1278.329063
42.670000 1271.270502 1273.531783 1276.686135 1276.401463 1278.970919 1280.446148
42.770000 1274.259891 1276.613729 1279.592107 1279.170964 1281.130592 1282.723655
42.870000 1277.270905 1280.543959 1282.673086 1282.502133 1284.249324 1286.592763
42.970000 1281.302494 1284.192068 1286.221622 1287.025630 1290.060576 1296.653188
43.065000 1284.023418 1287.593767 1291.267550 1291.600494 1296.447400 1299.496936
43.160000 1285.720724 1292.768560 1296.246530 1296.056891 1300.102840 1302.296334
43.260000 1290.215342 1296.561768 1300.238806 1299.595315 1302.645741 1304.238994
43.360000 1295.338898 1300.345526 1303.119006 1302.617965 1305.007620 1306.985321
43.460000 1299.665458 1303.675017 1305.568432 1305.410846 1307.419370 1309.559406
43.560000 1302.887643 1306.186800 1307.862282 1307.776706 1309.550331 1311.711826
43.660000 1306.184534 1308.575064 1310.067881 1310.086615 1311.652628 1314.110158
43.760000 1309.447106 1311.115998 1312.363418 1312.500587 1313.917477 1316.418353
43.860000 1311.872779 1313.193258 1314.570934 1314.797552 1316.471194 1318.794060
43.960000 1314.124623 1315.379575 1316.871898 1317.146223 1319.124536 1321.366597
44.060000 1316.131052 1317.765499 1319.437616 1319.819569 1322.202664 1325.030861
44.160000 1318.464479 1319.917921 1321.860636 1322.230776 1324.603657 1328.478265
44.260000 1320.443264 1322.075192 1324.024125 1324.525748 1326.920985 1331.253961
44.360000 1322.527396 1324.291011 1326.452767 1327.095831 1329.950037 1334.655022
44.455000 1324.550745 1326.619345 1329.317447 1330.301489 1334.799971 1338.607410
44.550000 1326.987355 1329.460689 1333.222812 1333.720514 1339.031255 1341.334661
44.650000 1329.972026 1333.420909 1339.038275 1338.167568 1341.941699 1343.459525
44.750000 1333.539419 1340.409724 1343.325842 1342.526672 1344.687844 1345.938239
44.850000 1342.848138 1344.628308 1345.977357 1345.906490 1347.282529 1348.686668
44.950000 1346.822036 1347.803637 1349.000893 1349.184199 1350.641273 1352.331145
45.050000 1348.920738 1350.111476 1351.732813 1351.750437 1353.385888 1355.109792
45.150000 1351.036071 1352.350477 1354.138110 1354.087524 1355.743958 1357.149247
45.250000 1353.190795 1354.868440 1356.494607 1356.459802 1358.094940 1359.615344
45.350000 1355.541283 1357.563213 1359.240769 1359.255535 1360.998933 1362.853719
45.450000 1358.409362 1360.036031 1362.159023 1362.291362 1364.437329 1366.803020
45.550000 1363.010116 1365.277698 1367.931260 1367.897328 1370.487206 1372.877959
45.650000 1366.710562 1369.299116 1372.043646 1371.787982 1374.217387 1375.933826
45.750000 1370.447782 1372.772591 1375.345066 1375.036302 1377.111834 1378.515369
45.850000 1373.605179 1376.455778 1378.194948 1377.971830 1379.445567 1381.612033
45.950000 1377.561948 1379.731957 1380.945237 1381.074285 1382.246202 1385.876319
46.040000 1379.944051 1381.918730 1383.205938 1383.392406 1384.794219 1388.223675
46.140000 1382.752829 1384.587450 1386.020983 1386.284333 1388.054789 1391.032683
46.240000 1386.978237 1388.702300 1390.818468 1390.984294 1393.215014 1396.325336
46.340000 1390.272749 1392.200786 1394.702633 1394.748098 1397.236024 1399.560435
46.440000 1393.096337 1395.855936 1398.475631 1398.349269 1400.657042 1402.580049
46.540000 1397.780253 1400.575241 1402.714185 1402.434010 1404.356041 1405.815743
46.640000 1403.071553 1404.764123 1406.271603 1406.373454 1407.955335 1409.859487
46.720000 1406.058454 1407.520832 1409.184850 1409.649104 1411.733930 1415.346045
46.740000 1406.656519 1408.194229 1410.006980 1410.457429 1412.662269 1416.509510
46.820000 1408.975727 1410.827456 1413.817092 1413.902814 1416.668793 1420.945956
46.920000 1412.677061 1415.784613 1419.115912 1419.525794 1423.542668 1428.375522
47.020000 1417.909179 1422.115944 1427.699767 1427.404634 1432.827377 1435.073771
47.120000 1421.941598 1426.255819 1431.723092 1431.026133 1435.681440 1437.695395
47.220000 1426.384443 1430.095487 1435.138683 1434.233721 1437.892597 1439.836542
47.320000 1431.192014 1433.915416 1438.030948 1437.370953 1440.110462 1442.075350
47.420000 1433.728676 1436.965871 1440.841646 1440.156408 1442.576724 1444.063127
47.520000 1436.293048 1440.240149 1443.406471 1442.745645 1444.853823 1446.078347
47.620000 1438.788305 1443.790220 1445.740784 1445.204655 1446.951791 1447.835716
47.720000 1442.578983 1446.638102 1447.855938 1447.528240 1448.763907 1449.571894
47.820000 1446.548774 1449.150028 1450.005962 1449.810932 1450.656166 1451.427368
47.920000 1451.449057 1452.064234 1452.640123 1452.732197 1453.339966 1454.644907
48.020000 1454.010785 1454.772651 1455.701408 1455.937521 1457.119227 1458.839604
48.120000 1456.189772 1457.307447 1458.936332 1458.975487 1460.605039 1462.003216
48.220000 1459.008195 1460.509721 1462.030401 1462.072146 1463.648041 1465.101282
48.320000 1461.966823 1463.646743 1465.259689 1465.378186 1467.107801 1469.115096
48.420000 1465.584756 1467.086749 1469.393149 1469.648092 1471.954872 1475.755316
48.520000 1468.056459 1469.754607 1472.252661 1472.731888 1475.929391 1479.594166
48.620000 1470.443530 1472.177955 1475.142666 1475.646758 1479.494144 1482.546026
48.720000 1472.704132 1474.895836 1478.490322 1478.729243 1482.590819 1485.400034
48.820000 1474.908639 1477.627229 1482.070014 1481.743864 1485.346303 1487.598300
48.920000 1477.875596 1481.155141 1485.348466 1484.770308 1487.897706 1490.027886
49.020000 1480.939334 1484.820919 1488.290158 1487.801359 1490.572569 1492.068972
49.120000 1484.771381 1489.043022 1490.889475 1490.537475 1492.207172 1493.955620
49.220000 1490.383166 1491.865762 1493.197837 1493.404525 1494.645993 1498.407302
49.320000 1492.646633 1493.876460 1495.449802 1496.171615 1498.718589 1503.197912
49.420000 1494.993459 1496.510328 1498.801475 1499.517264 1503.057600 1506.497521
49.520000 1497.411687 1499.651144 1503.007292 1503.101476 1506.482627 1509.492680
49.620000 1500.546742 1503.550304 1506.951117 1506.792029 1509.736171 1512.641977
49.720000 1505.505509 1508.040949 1510.301148 1510.566146 1513.208532 1516.500774
49.820000 1509.807809 1511.506014 1514.043421 1514.245588 1517.047271 1519.824248
49.920000 1512.167085 1514.225488 1517.092672 1517.325115 1520.312322 1523.187081
50.020000 1514.551476 1516.892764 1520.205811 1520.230357 1523.472459 1526.125181
