depth(m) lower_95(kyr) lower_68(kyr) median(kyr) mean(kyr) upper_68(kyr) upper_95(kyr)
28.200000 698.137704 702.984959 706.891299 706.342636 709.450693 710.872551
28.300000 703.705699 707.338564 709.875345 709.398694 711.568693 712.488552
28.400000 708.603634 710.907967 712.628231 712.302948 713.591882 714.376946
28.500000 712.648622 714.013154 714.986265 714.942755 715.907379 716.786532
28.600000 714.920421 716.086323 717.166253 717.178916 718.256152 719.302064
28.700000 717.121517 718.251868 719.301413 719.308101 720.356449 721.490259
28.800000 719.333321 720.481952 721.454446 721.482737 722.481383 723.809403
28.900000 721.520740 722.392513 723.447728 723.621378 724.690018 726.901088
29.000000 723.291301 724.282870 725.522041 725.985146 727.609305 731.701093
29.100000 725.119251 726.289001 728.207334 728.876377 732.039164 735.618389
29.200000 727.140432 728.671151 731.545218 732.016426 735.846755 738.123593
29.300000 729.319256 731.916148 735.593078 735.319125 738.534773 739.936898
29.400000 732.655640 735.690766 738.875268 738.416268 740.868361 741.971458
29.500000 736.380771 739.606838 741.798985 741.349963 742.981016 743.886565
29.600000 740.716131 743.180086 744.197557 744.036348 744.996447 745.945303
29.700000 745.148547 745.817157 746.548478 746.574541 747.299428 748.244006
29.800000 746.870987 747.735762 748.642345 748.672211 749.554619 750.684980
29.900000 748.750788 749.660858 750.646615 750.663137 751.667153 752.641055
30.000000 750.597488 751.539626 752.541852 752.559588 753.607107 754.528453
30.100000 752.483616 753.558516 754.474490 754.462803 755.385273 756.377317
30.200000 754.690711 755.667001 756.549351 756.612508 757.564102 758.849185
30.300000 756.910950 757.959873 759.035910 759.278237 760.554158 763.183009
30.400000 759.384859 760.717986 762.760997 763.112096 765.641050 768.432205
30.500000 762.050130 764.763336 767.901952 767.743349 770.495156 773.367728
30.600000 769.969729 771.627344 773.748954 773.907874 776.196869 778.916972
30.700000 773.222359 775.103662 777.081625 777.247948 779.438527 781.733061
30.800000 775.539679 777.749375 780.024691 780.131584 782.469926 785.330819
30.900000 777.780483 780.091042 782.476894 782.814619 786.133115 788.651578
31.033333 780.405080 783.021064 785.605948 787.267407 792.263754 801.924954
31.166667 784.012377 786.243163 788.398465 791.780673 800.893095 810.019811
31.300000 788.228939 790.033039 791.410309 796.412068 810.230167 815.618297
31.400000 790.487858 793.159491 797.083611 800.845465 814.266129 820.158515
31.500000 792.953102 797.413718 803.035471 805.210809 818.603149 822.736958
31.600000 795.830749 803.052716 806.719773 809.310378 822.690249 824.974448
31.700000 802.858923 806.083059 808.841817 812.206992 825.479685 827.135641
31.800000 806.970284 809.017452 811.124221 814.847075 827.146052 828.835028
31.900000 810.152431 811.824660 813.475262 817.321889 829.047919 830.622748
32.000000 812.950231 814.329270 815.948229 819.816655 831.034355 832.833727
32.100000 815.084363 816.564688 818.795014 822.351798 832.864322 834.696016
32.200000 816.898135 818.971696 822.521911 825.132286 834.710402 836.779830
32.300000 819.086716 822.664585 826.121393 828.307656 836.772302 838.788956
32.400000 821.786264 826.385327 829.770324 831.411661 838.685267 840.482846
32.500000 824.704032 829.818023 833.541725 834.516163 840.579341 842.911684
32.600000 828.133874 832.643290 836.793980 837.319675 842.608293 845.695777
32.700000 831.038577 835.642701 840.164138 840.165111 844.579285 849.177991
32.800000 834.066320 838.922513 843.489913 843.121169 846.893229 852.124376
32.900000 836.678781 842.283504 847.162072 846.441533 849.756187 854.690723
33.000000 839.360080 845.220295 850.969726 849.944658 852.898171 858.526661
33.100000 843.866613 851.432800 853.870062 853.908901 857.343663 864.203630
33.200000 849.616432 856.933830 860.753899 860.306279 863.791479 866.699883
33.300000 866.273867 867.857146 869.449280 869.391794 870.997292 872.258500
33.400000 868.905586 870.509289 871.996034 871.991397 873.444396 874.997072
33.500000 871.233566 872.746888 874.247984 874.194084 875.586203 877.241900
33.600000 873.143965 874.721086 876.235161 876.225056 877.696571 879.426304
33.700000 874.890973 876.646167 878.214916 878.275129 879.927299 881.596133
33.800000 876.697967 878.697932 880.436821 880.442995 882.314760 883.919482
33.900000 878.562342 880.690733 882.641069 882.744396 884.786778 886.924210
34.000000 880.815507 882.870533 885.337915 885.290417 887.607615 889.521772
34.100000 883.314317 885.545516 888.286958 887.994209 890.291136 891.952072
34.200000 885.741129 888.782134 891.263031 890.995172 893.064532 894.660362
34.300000 889.609963 892.745738 894.623202 894.529977 896.400727 898.218737
34.400000 893.897178 896.128874 898.105597 898.580364 901.153653 906.070260
34.500000 897.051061 899.332124 902.507964 902.947911 906.970729 910.389726
34.600000 899.966122 903.192546 907.788182 907.448079 911.598195 913.517172
34.700000 903.311577 908.484752 913.004018 912.003745 915.204738 916.427326
34.800000 907.896010 915.344460 917.058003 916.415830 918.052030 919.223150
34.900000 918.109219 918.995256 919.918171 919.965432 920.985653 922.205992
35.000000 920.194228 921.289060 922.338145 922.371702 923.444133 924.591373
35.100000 922.528114 923.852897 924.972411 925.002421 926.149900 927.551341
35.200000 925.409067 926.637645 928.065599 928.148146 929.537279 931.631612
35.300000 928.094734 929.612619 931.217202 931.257362 932.876942 934.570582
35.400000 931.821059 933.424120 935.003639 935.129087 936.894065 939.003344
35.500000 934.922723 936.797868 938.830106 938.912413 941.096038 942.922285
35.600000 938.692562 940.706701 942.877863 942.740399 944.655923 946.259638
35.700000 943.596913 945.457121 946.911343 947.041019 948.616282 951.633485
35.800000 947.003988 948.753837 950.633569 950.726083 952.670420 954.842238
35.900000 950.174117 952.504685 954.721094 954.445941 956.262312 957.435114
36.000000 955.444278 957.929643 958.775242 958.692978 959.673225 960.640649
36.100000 961.334312 962.290864 963.552031 963.701774 965.186854 966.691933
36.200000 964.809896 966.679019 968.110823 968.087263 969.517385 971.092845
36.300000 968.269045 969.726369 971.415364 971.512343 973.401357 974.981956
36.400000 971.155785 972.836738 975.185005 975.025871 977.062952 978.696051
36.500000 974.131946 976.562242 978.707623 978.402766 980.052138 981.285795
36.600000 977.397050 980.527651 981.823662 981.643328 982.802122 984.555434
36.700000 981.161274 983.129538 984.531329 984.506021 985.828807 987.692370
36.800000 984.535410 986.109832 987.394700 987.459444 988.795900 990.576793
36.900000 988.114992 989.612564 991.189456 991.377183 993.242777 995.745008
37.000000 990.819629 992.787008 995.021036 995.014858 997.240431 999.280655
37.100000 993.554763 995.966034 999.528597 999.019369 1000.935042 1005.652168
37.200000 996.699477 1002.040662 1004.684713 1004.786057 1008.193969 1011.885129
37.300000 999.568351 1006.426667 1009.696132 1009.607145 1013.534404 1017.049723
37.400000 1004.928237 1010.038548 1013.609407 1013.465136 1017.428574 1019.840282
37.500000 1010.133172 1013.701064 1018.319586 1017.532867 1020.818395 1023.063675
37.600000 1014.876894 1018.119672 1022.267058 1021.644519 1024.434927 1026.236423
37.700000 1018.709601 1023.214453 1025.823232 1025.422802 1027.708038 1029.042438
37.800000 1024.144269 1027.343196 1029.262538 1029.017777 1030.684498 1032.209536
37.900000 1029.741707 1031.582183 1032.963241 1033.144083 1034.640648 1038.199388
38.000000 1033.080035 1034.687135 1036.532244 1037.067447 1039.702518 1043.598909
38.100000 1035.173062 1037.195354 1039.847041 1040.299760 1043.839096 1047.131403
38.200000 1037.786129 1039.956550 1043.133259 1043.458428 1047.289638 1050.019338
38.300000 1040.533156 1042.980933 1046.663997 1046.719455 1050.466837 1052.897262
38.400000 1043.635429 1046.267967 1050.146042 1049.975651 1053.573678 1055.582088
38.500000 1046.911850 1049.835579 1053.871911 1053.373421 1056.417298 1058.216072
38.600000 1051.062378 1054.825311 1057.685727 1057.264573 1059.696762 1061.553488
38.700000 1056.984710 1059.375759 1061.051662 1060.979473 1062.635690 1064.560231
38.800000 1060.671450 1062.319442 1063.739375 1063.865438 1065.389003 1068.273413
38.900000 1063.757058 1065.076105 1066.585808 1067.035759 1069.217160 1072.499533
39.000000 1066.270240 1067.757802 1070.290631 1070.425804 1072.927544 1076.030558
39.100000 1069.136226 1071.445872 1074.291224 1074.136073 1076.597720 1079.480668
39.200000 1072.659419 1076.613852 1078.692457 1078.710195 1081.036061 1083.448308
39.300000 1077.516017 1080.111448 1082.055524 1082.052385 1084.080684 1086.245907
39.400000 1081.129376 1083.153221 1085.154890 1085.092382 1087.017056 1088.996647
39.500000 1084.010025 1085.870630 1087.751969 1087.789613 1089.800136 1091.785167
39.600000 1086.563937 1088.208485 1090.148346 1090.166547 1092.082757 1093.921902
39.700000 1088.652863 1090.470432 1092.275778 1092.297245 1094.084876 1095.712158
39.800000 1090.710719 1092.554261 1094.233316 1094.342094 1096.169124 1097.975962
39.900000 1092.881384 1094.698865 1096.221347 1096.357869 1098.167431 1100.068182
40.000000 1095.104845 1096.894145 1098.425306 1098.472688 1100.112124 1101.729466
40.100000 1097.342013 1099.263106 1100.694730 1100.673102 1102.086194 1103.504365
40.200000 1100.239472 1101.787356 1103.090031 1103.127298 1104.442407 1106.440854
40.300000 1104.176128 1105.499118 1107.242971 1107.382322 1109.236346 1111.171668
40.400000 1107.756104 1110.452056 1112.331457 1112.262166 1114.112113 1116.230509
40.500000 1113.987396 1115.651448 1117.468735 1117.454254 1119.289950 1120.733544
40.600000 1117.883827 1119.996570 1121.321102 1121.261373 1122.463910 1124.717216
40.700000 1122.090678 1123.049865 1124.172679 1124.373787 1125.711245 1127.803112
40.800000 1124.309383 1125.709849 1127.101393 1127.320196 1129.022048 1131.306155
40.900000 1126.620956 1128.358652 1130.210769 1130.505337 1132.815562 1135.485918
41.000000 1129.969336 1131.555551 1134.056704 1134.396354 1137.334065 1140.793885
41.100000 1132.526803 1134.418838 1137.187885 1137.780498 1141.510007 1144.330175
41.200000 1135.536795 1137.724830 1141.129977 1141.431225 1145.175439 1149.269074
41.300000 1138.367177 1141.487147 1145.778595 1145.524239 1149.196614 1153.181851
41.400000 1143.289232 1146.762689 1151.505575 1151.170670 1155.077663 1158.436577
41.500000 1148.316884 1152.915337 1157.111050 1156.942547 1160.878100 1164.080920
41.600000 1152.851704 1157.623279 1161.864643 1161.490641 1165.383848 1168.199565
41.700000 1156.837796 1161.282636 1165.829625 1165.283063 1168.686968 1171.415714
41.800000 1160.069498 1165.135159 1169.382744 1168.720465 1171.850600 1174.670291
41.900000 1163.072001 1169.019387 1172.302241 1171.771240 1174.775688 1177.520809
42.000000 1165.976944 1171.663395 1174.956371 1174.529847 1177.651478 1179.975220
42.100000 1169.017621 1174.285199 1177.439901 1177.143061 1180.416148 1182.385883
42.200000 1172.173157 1176.983543 1179.948539 1179.723153 1182.846482 1184.620899
42.300000 1176.002846 1179.984752 1182.803784 1182.487577 1185.229448 1186.773976
42.400000 1179.323192 1183.065063 1185.752133 1185.330432 1187.629901 1188.857951
42.500000 1183.972339 1187.085211 1188.935480 1188.545337 1190.028450 1191.022135
42.600000 1190.739902 1191.843919 1192.797178 1192.866703 1193.963401 1195.234746
42.700000 1193.433794 1194.337522 1195.416741 1195.520519 1196.662115 1198.336913
42.800000 1195.548225 1196.707590 1197.892105 1197.981009 1199.241671 1200.968286
42.900000 1197.472161 1198.843034 1200.159565 1200.236111 1201.639091 1203.393606
43.000000 1199.698313 1201.134974 1202.425280 1202.518179 1203.981962 1205.546583
43.100000 1201.902591 1203.364631 1204.895391 1204.846043 1206.286201 1207.756091
43.200000 1204.424449 1205.883248 1207.321496 1207.310888 1208.676606 1210.225632
43.300000 1207.512521 1208.711556 1210.110948 1210.223816 1211.692715 1213.935750
43.338000 1208.414563 1209.776173 1211.251919 1211.383083 1213.063311 1215.305822
43.400000 1209.995946 1211.401586 1212.953781 1213.181542 1215.200290 1217.244683
43.500000 1212.510533 1213.869172 1215.821092 1215.928039 1217.906792 1219.979687
43.600000 1215.073808 1216.645317 1218.799328 1218.657516 1220.564719 1222.471305
43.700000 1217.765187 1219.795632 1221.748052 1221.674133 1223.568407 1225.341170
43.800000 1220.791133 1222.597614 1224.310925 1224.460083 1226.310699 1228.814466
43.900000 1223.734010 1225.277956 1226.792980 1227.184513 1229.247485 1232.595363
44.000000 1227.130169 1228.499026 1230.424368 1230.956663 1233.789990 1236.556596
44.100000 1229.890750 1231.557822 1234.622296 1234.558870 1237.545017 1238.997530
44.200000 1232.368170 1235.952580 1239.032208 1238.337524 1240.431997 1241.272907
44.300000 1235.717384 1241.145115 1242.429096 1241.921526 1243.133265 1243.900585
44.400000 1244.090803 1244.863293 1245.727584 1246.484703 1247.405710 1254.657167
44.500000 1246.343475 1247.738061 1250.049867 1250.788632 1254.107463 1258.515762
44.600000 1249.382643 1251.600048 1254.730130 1254.939504 1258.197315 1261.633397
44.700000 1253.490669 1256.199742 1259.242143 1259.042918 1261.331023 1265.262370
44.800000 1256.418995 1260.370985 1263.294054 1263.193802 1265.663818 1270.018073
44.900000 1258.860603 1263.393896 1266.054767 1266.392696 1269.995933 1273.717125
45.000000 1262.681026 1266.295282 1268.881581 1269.473491 1273.424264 1276.919258
45.100000 1265.438755 1269.243702 1272.670419 1272.803614 1276.829851 1279.220911
45.200000 1269.175117 1272.806256 1276.467040 1276.259861 1279.800086 1281.596678
45.300000 1272.772438 1276.749871 1280.300655 1279.686293 1282.387077 1283.881184
45.400000 1277.217809 1281.413543 1283.664491 1283.313397 1285.173143 1286.756955
45.500000 1282.365164 1284.836566 1286.491917 1286.514518 1287.887057 1292.904403
45.600000 1286.643543 1288.140489 1289.599207 1289.890149 1291.498870 1296.169791
45.700000 1288.826409 1290.997785 1292.775282 1293.142962 1295.410917 1299.012264
45.800000 1291.711874 1293.862268 1296.145279 1296.393496 1299.181388 1301.851733
45.900000 1294.380920 1296.670670 1299.343666 1299.551884 1302.561081 1305.401137
46.000000 1297.083959 1299.887367 1302.365833 1302.674151 1306.062341 1308.368017
46.100000 1300.827420 1302.953633 1306.125771 1306.011346 1308.925964 1311.719439
46.200000 1304.148438 1306.241629 1309.681525 1309.812296 1312.587702 1317.807524
46.300000 1307.359399 1311.160335 1313.633342 1313.908497 1317.139287 1320.909080
46.400000 1312.168557 1314.970701 1317.973691 1318.143155 1321.393633 1323.973561
46.500000 1317.855065 1321.224997 1324.338523 1324.164074 1327.174340 1329.584591
46.600000 1322.036163 1325.127929 1327.717453 1327.705983 1330.297771 1332.985226
46.700000 1325.215067 1327.734370 1330.403159 1330.456361 1333.026872 1336.157461
46.800000 1327.745955 1330.223828 1332.993853 1333.051814 1335.549853 1339.499500
46.925000 1330.515905 1333.209408 1336.200869 1336.249083 1338.873758 1342.896869
47.050000 1333.837015 1336.463878 1339.168612 1339.358156 1342.123708 1346.190341
47.175000 1337.300437 1340.033084 1342.288975 1342.565121 1345.239624 1349.081471
47.300000 1342.453156 1343.874558 1345.579768 1345.992211 1348.125953 1351.876582
47.400000 1346.053670 1347.542963 1349.489687 1349.824788 1352.410045 1354.582464
47.500000 1349.011635 1350.897045 1353.523276 1353.377294 1355.692167 1357.349416
47.600000 1352.017607 1354.706148 1357.170532 1356.860919 1358.832793 1360.712551
47.700000 1356.904937 1358.938410 1360.552653 1360.630297 1362.558587 1364.108759
47.800000 1361.076194 1362.579698 1364.308676 1364.305796 1365.913429 1367.899693
47.900000 1363.937544 1365.356515 1366.954693 1366.981463 1368.591171 1370.013806
48.000000 1366.355806 1367.805939 1369.411206 1369.411182 1370.991473 1372.476095
48.100000 1368.724042 1370.301297 1371.902130 1371.900730 1373.442961 1375.460155
48.200000 1371.020032 1372.725886 1374.274317 1374.391052 1375.882737 1379.231803
48.300000 1374.008892 1375.589294 1376.989213 1377.193649 1378.416847 1382.753179
48.400000 1378.808041 1380.035626 1382.162457 1382.342702 1384.668459 1386.818527
48.500000 1382.213152 1385.212569 1387.143562 1387.100367 1389.119880 1391.080131
48.600000 1387.392228 1389.079714 1390.921974 1390.991652 1392.850467 1395.018894
48.700000 1389.965126 1391.824234 1393.837859 1393.861817 1395.984348 1397.613747
48.800000 1392.362520 1394.292362 1396.474069 1396.449700 1398.585804 1400.166354
48.900000 1395.054183 1397.023645 1399.124649 1399.066122 1401.049714 1402.632181
49.000000 1397.846040 1400.329061 1402.206220 1402.047888 1403.758860 1405.326377
49.100000 1402.343022 1404.100862 1405.593208 1405.544612 1406.991101 1408.680711
49.200000 1405.504777 1406.922337 1408.424582 1408.501606 1409.993814 1412.083771
49.300000 1408.242329 1409.934864 1411.514245 1411.622594 1413.304640 1415.151166
49.400000 1411.026627 1412.870195 1414.761779 1414.916277 1416.836678 1420.205763
49.500000 1414.967170 1416.683245 1418.493986 1419.081212 1422.109568 1424.816012
49.600000 1417.360962 1419.846995 1422.195934 1422.557274 1425.899540 1427.723500
49.700000 1420.928837 1423.852936 1427.277862 1426.823411 1429.399219 1431.519186
49.800000 1425.077795 1429.353281 1431.467871 1431.646078 1434.301774 1438.281751
49.900000 1430.475395 1432.755202 1435.816530 1435.944879 1439.279134 1441.659307
50.000000 1433.308982 1435.910063 1440.088747 1439.505534 1442.579801 1444.248192
50.100000 1435.970609 1439.075939 1443.474822 1442.718660 1445.480018 1446.750731
50.200000 1438.456679 1443.334263 1446.107403 1445.442764 1447.527679 1448.379174
50.300000 1441.037838 1446.458778 1448.197428 1447.765989 1449.387263 1450.248833
50.400000 1445.665555 1449.207817 1450.379293 1450.167697 1451.420619 1452.360937
50.500000 1450.908648 1451.839372 1452.554256 1452.603752 1453.421223 1454.538310
50.600000 1452.946729 1454.010850 1455.106822 1455.133695 1456.275024 1457.801596
50.700000 1455.000504 1456.412740 1457.604823 1457.659639 1458.923797 1460.247796
50.800000 1457.439174 1459.008021 1460.167910 1460.229311 1461.494135 1462.936296
50.900000 1460.164870 1461.427460 1462.654252 1462.710063 1464.082150 1465.303657
51.000000 1462.665660 1463.892707 1465.311591 1465.407402 1466.963443 1468.454347
51.100000 1465.607042 1467.116201 1468.832702 1468.967055 1470.676516 1473.236013
51.200000 1469.228720 1471.034773 1473.180282 1473.516496 1476.139033 1479.864571
51.300000 1472.083621 1474.042401 1476.634060 1477.010053 1480.207031 1483.725473
51.400000 1474.527256 1476.619524 1479.858357 1480.050983 1483.675082 1486.348040
51.500000 1476.973567 1479.381072 1483.030318 1482.923424 1486.591873 1488.740671
51.600000 1479.027154 1482.026547 1486.277452 1485.878057 1489.429317 1491.072257
51.740000 1482.743982 1486.403598 1491.163712 1491.251637 1495.648923 1501.302321
51.880000 1486.574770 1491.410342 1496.256129 1496.571609 1502.231408 1507.332749
52.020000 1491.061922 1496.499673 1502.403629 1502.131746 1507.280171 1511.387410
52.160000 1497.560506 1503.603250 1508.049213 1507.789204 1512.186619 1515.471076
52.300000 1508.099645 1510.397575 1513.055213 1513.187020 1516.254634 1518.914592
52.400000 1511.456533 1513.640067 1516.221074 1516.277469 1518.986546 1521.251222
52.500000 1514.433744 1516.898108 1519.293985 1519.235180 1521.670353 1523.680092
52.600000 1517.030498 1519.790126 1522.178468 1522.064240 1524.356850 1526.499867
52.700000 1520.204799 1522.977789 1525.136407 1525.036523 1527.171330 1529.173332
52.800000 1523.609628 1525.936077 1528.045079 1527.942847 1529.900409 1531.696619
52.900000 1527.221280 1529.334939 1531.165653 1531.073506 1532.794153 1534.438716
53.000000 1531.962701 1533.635040 1535.276426 1535.390414 1537.191307 1539.509031
53.100000 1535.609247 1537.402620 1539.280629 1539.172198 1540.879750 1542.516507
53.200000 1539.204787 1541.438286 1542.899764 1542.855209 1544.317999 1546.021747
53.300000 1541.678347 1543.960928 1545.555993 1545.602802 1547.306989 1549.278361
