depth(m) lower_95(kyr) lower_68(kyr) median(kyr) mean(kyr) upper_68(kyr) upper_95(kyr)
60.200000 858.786096 861.466473 862.971084 862.595410 863.730410 864.335222
60.300000 864.052914 864.673762 865.258192 865.213646 865.799997 866.299801
60.400000 865.628329 866.187065 866.694715 866.688117 867.220905 867.782907
60.500000 867.109042 867.699201 868.303829 868.331185 868.953726 869.782056
60.600000 868.831968 869.360310 870.105985 870.178749 870.989724 871.942768
60.700000 870.608008 871.389071 872.214879 872.339534 873.322750 874.664908
60.800000 872.223748 873.120242 874.042133 874.150817 875.230156 876.556808
60.900000 873.895219 874.865528 875.807731 875.926944 877.036508 878.546155
61.000000 875.707548 876.784887 878.136215 878.315608 879.692068 882.093571
61.100000 878.293096 879.839576 881.685093 882.164950 884.497661 889.379076
61.200000 881.025919 883.193581 885.617136 886.069195 889.523046 892.413992
61.300000 883.331465 885.767069 888.949452 889.074605 892.615382 894.371519
61.400000 885.543514 887.994728 892.445324 891.643272 894.514925 895.899243
61.500000 887.931115 890.913293 894.455584 893.936727 896.347613 898.283118
61.600000 891.082807 894.123147 896.435795 896.340012 898.596249 901.801889
61.700000 894.542416 896.617209 898.314006 898.758410 901.129924 904.794184
61.800000 897.132488 898.871558 900.713110 901.334714 904.374413 907.240611
61.900000 899.395089 900.902810 903.715550 904.019833 907.363463 909.515987
62.000000 901.255045 903.564637 906.927736 906.767447 909.939889 911.664386
62.100000 903.565155 907.214413 910.132887 909.666112 912.056610 913.396248
62.200000 909.245972 911.574024 913.022582 912.809804 914.239670 915.021189
62.300000 912.652209 914.249114 915.450984 915.219213 916.246080 916.968392
62.400000 915.796957 916.812963 917.687516 917.748399 918.710550 920.158806
62.500000 917.799654 918.586168 919.531749 919.625164 920.738833 921.912731
62.600000 919.353262 920.141062 921.263267 921.291219 922.439363 923.506955
62.700000 920.927966 921.939928 923.107385 923.138143 924.284620 925.649150
62.800000 923.353124 924.449458 925.833296 926.091864 927.685366 930.388137
62.900000 926.025237 927.303656 928.974203 929.323331 931.557433 933.771715
63.000000 928.006382 929.768431 931.860213 931.887984 933.932565 936.465481
63.100000 930.389879 932.774306 934.994927 935.034182 937.315075 939.888595
63.200000 934.143641 936.109595 938.066559 938.153778 940.307705 942.336918
63.300000 937.526115 939.188150 941.382358 941.265746 943.299128 944.546717
63.400000 940.767158 942.789814 944.458274 944.224237 945.629812 946.578436
63.500000 944.148269 945.704533 946.835994 946.742817 947.806899 948.741460
63.600000 946.450118 947.567001 948.617877 948.565851 949.543103 950.401678
63.700000 948.075973 949.099175 950.113368 950.057276 950.957491 951.880759
63.800000 949.560591 950.524015 951.539303 951.473511 952.374440 953.154141
63.900000 951.081213 952.023978 952.877910 952.875221 953.724569 954.569418
64.000000 952.560288 953.480861 954.306215 954.255225 955.038342 955.648114
64.100000 954.118075 954.946787 955.644315 955.587166 956.220257 956.783449
64.200000 955.687208 956.346644 956.945841 956.894354 957.453065 957.894696
64.300000 957.266828 958.016421 958.558211 958.542410 959.110606 959.525160
64.400000 959.546996 959.943138 960.418504 960.452029 960.928044 961.536477
64.500000 961.392757 961.963125 962.649928 962.815548 963.713720 965.179944
64.600000 962.874236 963.651481 964.884781 965.039840 966.446725 967.854493
64.700000 964.519929 965.905152 967.376614 967.352200 968.751783 970.135527
64.800000 968.025373 969.137547 970.332664 970.394114 971.689581 973.163063
64.900000 969.797315 971.072388 972.489574 972.499598 973.945166 975.381054
65.000000 971.711493 973.079390 974.681994 974.648269 976.174491 977.602055
65.100000 973.938530 975.545816 976.896288 976.909028 978.355288 979.517655
65.200000 976.237106 977.933365 979.335814 979.242725 980.548022 981.579241
65.300000 979.363661 980.939875 982.096118 982.253897 983.811924 985.335793
65.400000 983.108633 984.078583 985.784942 985.608749 986.899290 987.809028
65.500000 985.497097 987.018506 988.215428 988.089270 989.157207 989.957364
65.600000 988.799254 989.991230 991.314136 991.400299 992.835435 994.552612
65.700000 990.800684 992.150476 993.841098 993.851965 995.527775 996.971422
65.800000 992.687568 994.490940 996.313558 996.132890 997.666114 998.792734
65.900000 994.942664 996.815355 998.415447 998.171684 999.496837 1000.214933
66.000000 996.776472 999.272635 1000.433550 1000.202163 1001.251970 1001.848970
66.100000 999.602652 1001.231842 1002.144846 1002.096485 1003.062770 1003.974323
66.200000 1002.464539 1003.098089 1003.820247 1003.901325 1004.694582 1005.832689
66.300000 1003.811007 1004.641698 1005.411588 1005.513788 1006.421788 1007.772459
66.400000 1005.257062 1006.074318 1006.977780 1007.173839 1008.271433 1010.230416
66.500000 1006.586543 1007.569565 1008.618008 1008.860098 1010.195505 1012.448352
66.600000 1007.971523 1009.065512 1010.233145 1010.523467 1012.018933 1014.639830
66.700000 1009.632823 1010.609180 1011.987752 1012.454734 1014.379145 1017.539016
66.800000 1011.262039 1012.428700 1014.111300 1014.689852 1017.696489 1019.781358
66.900000 1012.988597 1014.273479 1017.068021 1017.214846 1020.285466 1021.895894
67.000000 1014.602115 1016.166291 1020.598458 1019.845436 1022.654937 1024.601518
67.100000 1016.172205 1018.098211 1023.060444 1022.264946 1025.205823 1026.878242
67.200000 1018.123835 1020.384234 1025.121688 1024.348237 1027.196047 1028.392442
67.300000 1020.374363 1024.015093 1027.243137 1026.597530 1028.811670 1029.937904
67.400000 1024.135273 1027.577540 1029.287006 1028.971621 1030.486731 1031.455068
67.500000 1029.275549 1030.755439 1031.929112 1031.864318 1033.034123 1034.246735
67.600000 1033.307030 1034.270713 1035.535123 1035.795296 1037.312862 1039.810444
67.700000 1035.155340 1036.419464 1038.237259 1038.387881 1040.387296 1042.692415
67.800000 1036.704340 1038.361016 1040.396726 1040.550055 1042.803124 1044.876091
67.900000 1038.342860 1040.239368 1042.578864 1042.588861 1044.881101 1046.852365
68.000000 1040.034873 1042.204264 1044.606538 1044.544355 1046.955887 1048.895365
68.100000 1042.135209 1044.237167 1046.631129 1046.713699 1049.258009 1051.463462
68.200000 1043.998685 1046.502776 1049.218594 1049.291773 1052.186661 1054.564284
68.300000 1046.313881 1049.180811 1052.463764 1052.192562 1055.212848 1057.096957
68.400000 1050.997641 1053.578352 1057.003767 1056.431196 1058.721168 1060.705069
68.500000 1059.525934 1061.226243 1063.034667 1062.817765 1064.256100 1065.346902
68.600000 1064.332823 1065.459024 1066.568935 1066.824783 1068.162805 1071.165465
68.700000 1066.367520 1067.708620 1069.140092 1069.356270 1071.213089 1073.236774
68.800000 1067.947065 1069.535575 1071.613987 1071.565329 1073.616593 1075.279724
68.900000 1069.426905 1071.516197 1073.952542 1073.696612 1075.634610 1077.227117
69.000000 1071.311878 1073.830356 1076.388596 1076.137331 1078.140358 1080.343905
69.100000 1073.084044 1076.010380 1078.520970 1078.430784 1080.877779 1083.187769
69.200000 1075.510101 1078.266659 1080.841540 1080.832672 1083.229001 1085.714879
69.300000 1078.340744 1081.407619 1084.084933 1084.102747 1086.944511 1089.594466
69.400000 1081.785878 1084.885031 1087.585696 1087.514943 1090.318155 1092.110019
69.500000 1085.422880 1088.518995 1091.102408 1090.777898 1092.958031 1094.209973
69.600000 1089.061184 1091.242176 1093.108178 1092.956043 1094.700196 1095.814636
69.700000 1091.337783 1093.297823 1094.730552 1094.645257 1096.067808 1097.261079
69.800000 1093.582900 1094.911234 1096.263707 1096.180043 1097.339236 1098.583615
69.900000 1095.276473 1096.429875 1097.640824 1097.605145 1098.700810 1099.872702
70.000000 1096.496701 1097.761014 1098.953570 1098.912027 1100.110834 1101.145215
70.100000 1097.864158 1099.141348 1100.230335 1100.241627 1101.392188 1102.371206
70.200000 1099.619140 1100.738507 1101.832902 1101.797673 1102.880187 1103.657168
70.300000 1101.293446 1102.361122 1103.527457 1103.497646 1104.558743 1105.586694
70.400000 1103.098815 1104.104530 1105.112780 1105.108727 1106.057334 1107.166335
70.500000 1104.490727 1105.446896 1106.420969 1106.431888 1107.395009 1108.354281
70.600000 1105.705628 1106.706224 1107.704555 1107.687211 1108.704140 1109.631612
70.700000 1106.732488 1107.964554 1108.943373 1108.924428 1109.938224 1110.830192
70.800000 1108.155295 1109.282805 1110.170170 1110.164017 1111.050493 1111.879360
70.900000 1109.553611 1110.581297 1111.467216 1111.429581 1112.262549 1113.163055
71.000000 1111.086052 1111.850879 1112.680800 1112.708775 1113.553339 1114.454537
71.100000 1112.215269 1113.087860 1113.928487 1113.956273 1114.806804 1115.882370
71.200000 1113.208896 1114.156819 1115.043132 1115.081175 1115.976635 1117.056920
71.300000 1114.328406 1115.207656 1116.116213 1116.190131 1117.135354 1118.362397
71.400000 1115.380330 1116.294781 1117.207224 1117.288002 1118.248802 1119.700137
71.500000 1116.364464 1117.331007 1118.275608 1118.372227 1119.290216 1120.897866
71.600000 1117.376685 1118.354529 1119.411686 1119.495318 1120.390890 1122.145916
71.700000 1118.509893 1119.501409 1120.560373 1120.683510 1121.713242 1124.244744
71.800000 1119.628185 1120.687109 1121.878259 1122.215216 1123.789631 1126.789288
71.900000 1120.967794 1121.895876 1123.257813 1123.800425 1126.109761 1128.499404
72.000000 1122.380605 1123.387409 1125.209577 1125.562560 1127.827281 1130.424852
72.100000 1123.888585 1125.237543 1127.424992 1127.679114 1130.091667 1133.049286
72.200000 1125.698823 1127.567379 1130.007711 1130.152633 1132.721923 1135.369902
72.300000 1128.118334 1130.337727 1133.028542 1133.200296 1135.706633 1140.532639
72.400000 1130.308702 1133.419688 1136.361865 1136.796669 1140.357996 1144.552886
72.500000 1133.740314 1136.547243 1140.273528 1140.400724 1144.174314 1148.493419
72.600000 1137.554432 1139.042288 1144.579180 1143.878564 1147.769185 1151.234232
72.700000 1139.278130 1141.570726 1146.441553 1146.240903 1150.368112 1153.337146
72.800000 1141.144261 1144.143905 1148.440909 1148.482819 1152.360434 1155.205854
72.900000 1143.314306 1147.801338 1151.342594 1151.222737 1154.713662 1157.394530
73.000000 1146.029408 1150.335499 1154.053935 1153.717162 1157.033616 1159.385190
73.100000 1149.921910 1153.002465 1156.518190 1156.157730 1159.033522 1161.356593
73.200000 1151.907208 1155.343241 1158.422233 1158.140881 1160.805531 1163.139321
73.300000 1153.520632 1157.071943 1160.107891 1159.827985 1162.219998 1164.562766
73.400000 1155.870361 1158.989215 1161.761023 1161.433005 1163.731278 1165.935906
73.500000 1157.825107 1160.575468 1163.249470 1162.973240 1165.261460 1167.567214
73.600000 1159.242529 1162.137255 1164.632572 1164.431751 1166.506699 1168.910925
73.700000 1160.750951 1163.566127 1166.027416 1165.874807 1167.942794 1170.341695
73.800000 1162.311583 1165.006466 1167.374239 1167.343419 1169.633525 1172.421378
73.900000 1163.973408 1166.409306 1168.627834 1168.788441 1171.168018 1174.283790
74.000000 1165.742077 1167.862242 1169.976962 1170.252044 1172.714392 1175.927376
74.100000 1167.124117 1169.335500 1171.569169 1171.804248 1174.434447 1177.277760
74.200000 1168.488791 1170.747239 1173.211065 1173.351164 1176.119537 1178.356358
74.300000 1170.155118 1172.358300 1175.038088 1175.002529 1177.785777 1179.739978
74.400000 1171.470584 1173.905868 1176.716515 1176.604736 1179.380532 1181.166063
74.500000 1172.850025 1175.632456 1178.452536 1178.269880 1180.825150 1182.513741
74.600000 1174.225512 1177.259703 1180.264824 1179.901928 1182.322655 1183.789257
74.700000 1176.177853 1179.039802 1181.812863 1181.450541 1183.671827 1184.983439
74.800000 1177.794747 1180.606072 1183.242674 1182.893861 1184.994321 1186.277038
74.900000 1179.814276 1182.168312 1184.685264 1184.334913 1186.364294 1187.470163
75.000000 1181.605225 1183.754313 1186.150120 1185.790560 1187.654295 1188.570298
75.100000 1183.399289 1185.656376 1187.535870 1187.274304 1188.773869 1189.666417
75.200000 1185.364047 1187.673294 1189.086215 1188.844450 1189.975096 1190.769536
75.300000 1188.209271 1189.832544 1190.747146 1190.675554 1191.499711 1193.007106
75.400000 1190.668212 1191.902734 1193.398177 1193.535893 1195.322076 1196.767251
75.500000 1193.147478 1194.724734 1196.306511 1196.170275 1197.532864 1198.672500
75.600000 1194.855857 1196.522427 1197.839172 1197.720823 1198.963778 1199.956206
75.700000 1196.418130 1197.799352 1199.093949 1199.021459 1200.300047 1201.254161
75.800000 1197.634534 1199.004744 1200.287184 1200.215238 1201.470258 1202.461251
75.900000 1198.786624 1200.173574 1201.420427 1201.405113 1202.642163 1203.743976
76.000000 1200.101691 1201.442137 1202.623605 1202.593015 1203.749117 1204.853414
76.100000 1201.273346 1202.641872 1203.858802 1203.767009 1204.921277 1205.825269
76.200000 1202.501648 1203.802439 1205.029617 1204.939956 1206.040775 1207.021064
76.300000 1203.760810 1205.043491 1206.191068 1206.125736 1207.215047 1208.229786
76.400000 1204.994656 1206.318640 1207.385696 1207.304879 1208.301253 1209.295084
76.500000 1206.303395 1207.562403 1208.607574 1208.554386 1209.507504 1210.501597
76.600000 1207.462403 1208.828612 1209.913969 1209.858971 1210.824291 1211.947631
76.700000 1208.716888 1209.988043 1211.128938 1211.085622 1212.120259 1213.223375
76.833333 1210.162689 1211.352510 1212.523638 1212.493618 1213.606420 1214.866428
76.966667 1211.512914 1212.734305 1213.890839 1213.870410 1214.967176 1216.194110
77.100000 1212.848966 1214.087265 1215.322112 1215.271361 1216.368318 1217.794073
77.200000 1213.857896 1215.173996 1216.343651 1216.334736 1217.477992 1218.833872
77.300000 1215.011129 1216.227471 1217.401288 1217.409927 1218.547593 1219.983955
77.400000 1216.076391 1217.316985 1218.543830 1218.522833 1219.681230 1221.219127
77.500000 1217.232451 1218.395866 1219.729370 1219.701736 1220.926863 1222.736495
77.600000 1218.414057 1219.564637 1220.876173 1220.966777 1222.366513 1224.151668
77.700000 1219.763169 1221.048946 1222.550657 1222.675728 1224.337415 1225.993199
77.800000 1221.398661 1223.478814 1225.519477 1225.572888 1227.681577 1230.089670
77.900000 1225.096868 1227.072037 1228.625468 1228.662938 1230.299694 1231.970031
78.000000 1227.196753 1228.812908 1230.509272 1230.420509 1232.117763 1233.404464
78.100000 1228.709057 1230.208382 1232.013470 1231.899591 1233.531346 1234.703775
78.200000 1229.722780 1231.625659 1233.332985 1233.252148 1234.858263 1235.931286
78.300000 1231.024113 1233.024791 1234.653435 1234.516488 1236.028121 1237.013106
78.400000 1232.419735 1234.354497 1235.896893 1235.756490 1237.199229 1238.139814
78.500000 1233.603895 1235.688039 1237.170491 1236.962822 1238.277657 1239.083154
78.600000 1234.872976 1237.009933 1238.300832 1238.127752 1239.317480 1240.185467
78.700000 1236.299848 1238.197610 1239.429940 1239.266002 1240.416730 1241.158008
78.800000 1237.701318 1239.401489 1240.528893 1240.407458 1241.413170 1242.216417
78.900000 1239.265463 1240.683939 1241.715013 1241.624571 1242.480653 1243.415009
79.000000 1240.775086 1241.953417 1242.935757 1244.407343 1248.715852 1253.684446
79.100000 1242.652428 1243.297338 1244.122872 1247.312678 1255.435385 1260.643331
79.200000 1244.272126 1244.981396 1251.648972 1251.462597 1258.652291 1263.110229
79.300000 1247.035981 1251.625419 1256.943400 1256.975059 1262.366463 1266.035200
79.400000 1255.012054 1258.908439 1262.659983 1262.447148 1265.871307 1268.955205
79.500000 1260.028238 1263.566982 1265.765990 1266.137950 1269.202069 1271.987048
79.600000 1263.390122 1265.916933 1268.803812 1268.797421 1271.667879 1273.946470
79.700000 1265.225468 1268.432293 1271.185644 1271.036155 1273.836273 1275.646309
79.800000 1267.477789 1270.730451 1273.366339 1273.104050 1275.588676 1276.972661
79.900000 1269.320128 1272.599896 1275.403785 1274.919257 1277.190507 1278.192384
80.000000 1271.182678 1274.604239 1277.111885 1276.621856 1278.580990 1279.447893
80.100000 1273.433750 1276.535664 1278.741088 1278.252027 1279.835316 1280.587450
80.200000 1275.283522 1278.492790 1280.254469 1279.801425 1281.020464 1281.583126
80.300000 1278.448506 1280.647694 1281.656004 1281.429588 1282.240454 1282.834095
80.400000 1281.192867 1282.293839 1282.887376 1282.811049 1283.412604 1283.882835
80.500000 1283.271753 1283.782487 1284.246544 1284.250587 1284.729788 1285.258818
80.600000 1284.466746 1284.958702 1285.406657 1285.420690 1285.912195 1286.363544
80.700000 1285.625308 1286.120948 1286.564810 1286.552273 1287.004587 1287.433423
80.800000 1286.841930 1287.309547 1287.712929 1287.717485 1288.127148 1288.533135
80.900000 1288.206838 1288.552120 1288.952880 1288.969349 1289.382759 1289.865582
81.000000 1289.111757 1289.561536 1290.004139 1290.020802 1290.480870 1291.040146
81.100000 1290.056042 1290.547697 1291.064325 1291.073700 1291.574727 1292.155212
81.200000 1291.058845 1291.567225 1292.118479 1292.126739 1292.644495 1293.276520
81.300000 1292.167110 1292.696739 1293.275137 1293.373178 1293.971038 1295.320761
81.400000 1293.362684 1293.884301 1294.511313 1294.669792 1295.343273 1297.494970
81.500000 1294.470196 1295.081200 1295.717691 1295.990850 1296.821512 1299.422181
81.600000 1295.757793 1296.487090 1297.457423 1297.611972 1298.739497 1300.460138
81.700000 1297.265926 1298.409810 1299.687214 1299.588532 1300.736017 1301.716582
81.800000 1299.564834 1300.549222 1301.678849 1301.551662 1302.442960 1303.081737
81.900000 1301.567379 1303.222985 1304.829501 1304.743387 1306.315114 1307.222090
82.000000 1302.939992 1306.525240 1307.556282 1307.099528 1308.218137 1308.780059
82.100000 1304.600393 1308.223120 1309.093999 1308.821668 1309.703745 1310.296722
82.200000 1306.719811 1309.842275 1310.543512 1310.540391 1311.445929 1312.852175
82.300000 1310.466613 1311.161284 1312.037606 1312.227558 1313.384398 1314.980324
82.400000 1311.887052 1312.545291 1313.769355 1313.956721 1315.386403 1316.865393
82.500000 1313.151313 1313.963041 1315.686343 1315.869195 1317.831721 1319.565910
82.600000 1314.378485 1315.641191 1317.655551 1317.810574 1319.954432 1321.906955
82.700000 1315.872831 1317.506014 1319.792918 1319.828608 1322.084984 1324.214234
82.800000 1317.942555 1319.381041 1321.894752 1321.855828 1324.091769 1326.611774
82.900000 1319.463465 1321.444508 1323.873627 1323.832461 1326.080849 1328.754260
83.000000 1322.115496 1324.427302 1327.289664 1327.275664 1330.087445 1333.059752
83.100000 1325.942260 1328.256092 1330.819456 1330.896613 1333.475407 1335.944644
83.200000 1329.360170 1331.773109 1334.451815 1334.423129 1336.992955 1338.981661
83.300000 1331.844537 1334.704654 1337.416342 1337.257951 1339.835165 1341.727325
83.400000 1335.160202 1337.861493 1340.496856 1340.236625 1342.325874 1344.674886
83.500000 1341.152650 1343.621004 1345.339679 1345.245464 1346.959422 1348.517767
83.600000 1344.615635 1346.231186 1347.826337 1347.866187 1349.579163 1351.396883
83.700000 1347.243812 1348.423741 1349.970961 1350.068597 1351.801665 1353.398875
83.800000 1348.981147 1350.099772 1351.709948 1351.744719 1353.379103 1355.088891
83.900000 1350.329057 1351.704283 1353.209577 1353.226148 1354.678110 1356.331947
84.000000 1351.732570 1353.213904 1354.748852 1354.708984 1356.117947 1357.519856
84.100000 1353.561709 1355.090909 1356.450606 1356.477054 1357.837895 1359.324523
84.200000 1355.910754 1357.506888 1359.803604 1360.666524 1364.809336 1368.791785
84.300000 1358.406601 1360.377996 1363.106142 1364.959107 1370.999000 1377.373771
84.400000 1360.424260 1362.348511 1365.055858 1367.835288 1378.230307 1381.017553
84.500000 1362.054544 1364.199477 1367.213259 1370.288380 1380.149598 1382.797908
84.600000 1364.100015 1366.071026 1369.376607 1372.760153 1381.796014 1384.265345
84.700000 1368.845806 1372.366834 1375.753750 1377.202904 1383.430209 1385.541265
84.800000 1372.198272 1376.478876 1379.822859 1380.377993 1385.019720 1387.171984
84.900000 1378.582352 1380.438714 1383.061762 1383.240918 1386.497848 1388.741098
