depth(m) lower_95(kyr) lower_68(kyr) median(kyr) mean(kyr) upper_68(kyr) upper_95(kyr)
20.575000 695.849768 699.818040 704.254620 703.815232 708.011938 709.795002
20.655000 701.663048 704.702040 708.001733 707.725542 710.710904 711.834384
20.695000 703.735322 707.509356 710.147862 709.749053 712.055095 712.913882
20.735000 706.408539 709.843255 712.039806 711.626883 713.300135 714.058861
20.775000 710.379709 712.653393 713.837663 713.618180 714.644141 715.358108
20.815000 713.249380 714.444832 715.259003 715.216414 716.054022 716.906631
20.855000 715.265458 715.977499 716.707867 716.764154 717.600909 718.446682
20.895000 716.481664 717.144657 717.938734 718.018497 718.930162 719.990586
20.935000 717.570924 718.277083 719.098620 719.208885 720.208093 721.228758
20.975000 718.608637 719.414261 720.355542 720.466093 721.515595 722.875063
21.015000 719.800110 720.630982 721.764573 721.943492 723.174739 725.033742
21.055000 721.170540 722.184362 724.036152 724.564058 726.974255 731.501632
21.095000 722.261306 723.441767 726.099743 726.887165 730.687126 735.383453
21.135000 723.424759 724.849388 728.813208 729.458631 734.517468 737.821549
21.175000 724.807434 727.159136 732.613764 732.353326 736.949142 740.481505
21.215000 726.454452 730.262390 735.777357 735.299697 739.451655 742.755392
21.255000 729.259280 735.222735 738.522691 738.233252 741.577152 744.721849
21.295000 733.913281 738.225110 741.253835 740.860594 743.259387 746.776662
21.335000 738.002746 741.848853 743.866659 743.837209 745.596575 750.030614
21.375000 743.052112 744.902674 746.575849 747.018187 749.404191 752.425302
21.415000 745.611824 747.319309 749.636595 749.773044 752.269633 754.411858
21.455000 748.005771 750.148179 752.870393 752.727754 755.155566 756.754561
21.495000 752.012532 754.862069 757.075184 756.978112 759.113322 761.514179
21.535000 756.757932 758.934621 761.044675 761.168722 763.525916 765.853199
21.575000 759.192432 761.468984 763.948431 763.863091 766.220881 768.168638
21.615000 761.204434 763.840108 766.465013 766.213154 768.511137 769.887502
21.655000 763.478413 766.528267 769.030622 768.761148 770.823688 772.785630
21.695000 766.314134 769.385483 771.329335 771.243736 773.236619 775.177778
21.735000 768.783414 771.060457 773.164903 773.053199 774.971152 777.111436
21.775000 771.124601 773.022505 775.024079 774.947165 776.796163 778.776707
21.815000 772.857850 774.938587 776.801027 776.727795 778.578006 780.280856
21.855000 774.430566 776.536806 778.429117 778.356168 780.233788 781.735556
21.895000 775.722548 777.842964 779.875986 779.724008 781.626291 782.827048
21.935000 776.926789 779.030608 781.227195 781.030527 782.933533 784.108536
21.975000 778.238688 780.372546 782.594689 782.311628 784.082302 785.107264
22.015000 779.314985 781.812419 784.022348 783.653831 785.345972 786.205309
22.055000 780.622725 783.341641 785.372979 784.985155 786.483859 787.158944
22.095000 782.074120 784.915815 786.717513 786.311972 787.635763 788.260249
22.135000 783.684886 786.216980 787.690947 787.377700 788.496270 789.148861
22.175000 785.383535 787.506920 788.531371 788.360981 789.273788 789.827881
22.215000 788.181481 788.981680 789.583056 789.564978 790.202659 790.595828
22.255000 789.482105 789.956235 790.444984 790.435743 790.943276 791.354336
22.295000 790.410829 790.815892 791.251913 791.241257 791.666831 792.063063
22.335000 791.313491 791.667798 792.048627 792.052778 792.438976 792.895118
22.375000 792.121676 792.526134 792.897756 792.902788 793.259939 793.707962
22.415000 792.928908 793.333949 793.775399 793.752308 794.147098 794.614260
22.455000 793.636895 794.050272 794.533120 794.527652 795.006084 795.494355
22.495000 794.203124 794.723216 795.266656 795.259542 795.771480 796.303672
22.535000 794.866163 795.436824 795.987890 795.994715 796.562278 797.063688
22.575000 795.521875 796.143122 796.756092 796.744266 797.363437 797.936187
22.615000 796.220389 796.850504 797.486676 797.485847 798.128982 798.760207
22.655000 796.934398 797.580676 798.207688 798.218768 798.893457 799.500621
22.695000 797.596473 798.330460 798.950845 798.973833 799.633236 800.408440
22.735000 798.419445 799.079218 799.723324 799.749803 800.457478 801.130921
22.775000 799.197680 799.840892 800.518344 800.542174 801.236474 801.927769
22.815000 799.990559 800.629984 801.369835 801.345628 802.025229 802.713306
22.855000 800.757720 801.410242 802.151765 802.153791 802.860182 803.643858
22.895000 801.642362 802.246898 802.975181 802.984077 803.692800 804.445652
22.935000 802.416949 803.132051 803.846952 803.835868 804.541879 805.298981
22.975000 803.219547 803.939029 804.704975 804.703034 805.432979 806.180429
23.015000 804.059877 804.821178 805.585582 805.595559 806.361910 807.119785
23.055000 804.882299 805.681898 806.534314 806.519684 807.301071 808.144973
23.095000 805.776679 806.637490 807.445888 807.465179 808.291288 809.182638
23.135000 806.702743 807.574617 808.407276 808.425263 809.258617 810.179145
23.175000 807.744138 808.548030 809.419521 809.435220 810.290913 811.235528
23.215000 808.819165 809.553661 810.448772 810.492761 811.402575 812.436365
23.255000 809.653133 810.604206 811.524340 811.584531 812.510117 813.814960
23.295000 810.804738 811.707845 812.725734 812.815580 813.839219 815.478495
23.335000 811.917050 812.875330 813.952716 814.105066 815.268130 817.319817
23.375000 813.188838 814.091557 815.362120 815.725129 817.156313 821.170999
23.415000 814.296875 815.347090 816.987453 817.483905 819.555617 823.759763
23.455000 815.323491 816.561039 818.749954 819.497066 823.054030 825.816472
23.495000 816.558135 817.945683 821.226787 821.792019 826.203416 828.502227
23.535000 817.925530 819.757047 823.648208 823.870149 828.109407 831.820336
23.575000 819.872724 823.049725 825.204774 825.966748 829.790067 834.675723
23.615000 824.416152 825.675245 826.774925 828.030186 831.288157 836.984178
23.655000 826.203986 827.049211 828.370056 829.733508 833.683841 838.506148
23.695000 827.483888 828.446154 830.246915 831.836870 837.371310 840.283215
23.735000 829.050515 830.686163 833.797255 834.821527 839.651838 842.344104
23.775000 831.117685 833.306130 838.210546 838.028343 842.290994 844.713982
23.815000 833.653174 836.407078 841.890399 841.101567 844.526810 846.836652
23.855000 836.254137 841.174139 844.247254 843.832669 846.422781 849.129793
23.895000 840.239579 844.085193 846.330917 846.176983 848.114430 851.906277
23.935000 843.623837 846.254259 848.456106 848.288925 849.970368 853.734874
23.975000 845.268327 848.057944 850.437383 850.403613 852.818222 855.236069
24.015000 846.983067 850.034673 852.599462 852.402606 854.738760 856.737647
24.055000 848.817386 852.455067 854.586245 854.409704 856.464266 858.371710
24.095000 851.129600 854.923004 856.669187 856.521745 858.318502 860.351514
24.135000 854.830665 856.520914 858.316422 858.288765 860.099556 862.037406
24.175000 856.491393 858.149298 859.859033 859.887465 861.836372 863.391367
24.215000 857.814851 859.748343 861.582598 861.558514 863.495954 864.707586
24.255000 860.097366 861.908650 863.459612 863.386827 864.920242 866.105609
24.295000 864.921716 866.090685 867.018957 867.036767 867.989521 869.009595
24.335000 866.694912 867.622266 868.483967 868.465709 869.315927 870.238554
24.375000 868.161942 868.931742 869.771901 869.825036 870.695980 871.833004
24.415000 869.525330 870.387708 871.255378 871.408548 872.428857 873.993683
24.455000 870.719960 871.694354 872.694250 872.883004 874.017933 875.792585
24.495000 872.004433 873.017649 874.204001 874.375096 875.746281 877.815900
24.535000 873.120958 874.301213 875.701830 875.850834 877.335689 879.327862
24.575000 874.511796 875.790477 877.443143 877.572668 879.313966 881.707293
24.615000 876.013605 877.644828 879.727507 880.053027 882.562554 885.723742
24.655000 878.388678 880.516671 883.394887 883.401696 886.250526 888.432837
24.695000 880.374016 882.873780 886.398632 886.113287 889.138207 891.109350
24.735000 882.461768 885.547700 889.162888 888.699856 891.606292 893.341835
24.775000 885.355734 888.533119 892.282037 891.638907 894.261321 896.242509
24.815000 887.444865 891.893687 894.477134 894.094229 896.484147 898.676147
24.855000 891.649573 894.303648 896.294162 896.432103 898.596913 901.937960
24.895000 894.193389 896.065382 898.115833 898.701020 901.711677 906.276189
24.935000 896.272186 897.994193 900.722841 901.431951 905.455344 909.066218
24.975000 898.223597 900.662826 904.609902 904.502004 908.088629 911.486286
25.015000 900.515918 904.613273 907.891787 907.815157 910.816831 914.718302
25.055000 904.649498 908.291321 910.932874 911.231044 914.866806 916.671620
25.095000 909.584586 911.773059 915.781116 914.989689 917.309104 918.353668
25.135000 914.875875 917.218924 918.405420 918.248990 919.386001 920.484201
25.175000 917.568294 918.576472 919.650299 919.661920 920.763714 921.766961
25.215000 918.863521 919.730501 920.779110 920.798105 921.871355 922.842911
25.255000 919.855491 920.829895 921.891652 921.934331 923.087205 924.178040
25.295000 920.825760 921.977743 923.106339 923.169730 924.367916 925.855293
25.335000 922.333402 923.414361 924.771164 924.933507 926.430531 928.724407
25.375000 923.941888 925.102262 926.788301 927.178857 929.570456 931.575575
25.415000 926.275313 928.167134 930.612094 930.489657 932.747661 934.495087
25.455000 929.124184 931.539079 933.784691 933.674019 935.687705 937.639087
25.495000 932.082817 934.112079 935.960797 935.939296 937.715028 939.727682
25.535000 934.429034 936.101304 938.003090 937.989976 939.873893 941.701670
25.575000 936.003039 937.956816 939.836436 939.838682 941.685961 943.048279
25.615000 938.053740 939.739935 941.635457 941.511222 943.196488 944.281650
25.655000 939.795963 941.390278 943.105709 942.938599 944.440715 945.234675
25.695000 941.045941 942.978756 944.440873 944.209094 945.427018 946.176520
25.735000 942.507040 944.254741 945.485445 945.324541 946.362517 947.005199
25.775000 944.063520 945.454673 946.406031 946.274811 947.141130 947.814603
25.815000 945.022930 946.296642 947.174455 947.087565 947.891391 948.592361
25.855000 945.802614 947.100267 947.916909 947.838229 948.592296 949.303268
25.895000 946.530683 947.822358 948.600564 948.533595 949.289432 949.959971
25.935000 947.345175 948.535507 949.311511 949.233218 949.951680 950.660668
25.975000 948.106157 949.240355 949.969012 949.911995 950.600576 951.245424
26.015000 948.876778 949.943862 950.606532 950.578363 951.244736 951.960220
26.055000 949.515607 950.663144 951.289817 951.248691 951.881694 952.519161
26.095000 950.244324 951.300880 951.950105 951.901555 952.540035 953.122706
26.135000 950.997318 951.979049 952.609234 952.569428 953.175650 953.800509
26.175000 951.702702 952.672629 953.310875 953.242311 953.837071 954.372013
26.215000 952.438267 953.356679 953.968410 953.905137 954.463364 955.035611
26.255000 953.201274 954.029836 954.616474 954.555494 955.096719 955.644613
26.295000 953.863907 954.683386 955.255576 955.209025 955.736756 956.245561
26.335000 954.636437 955.356826 955.894426 955.857996 956.379176 956.835294
26.375000 955.287116 956.069225 956.542377 956.512832 956.989320 957.465780
26.415000 956.125009 956.754047 957.209729 957.182038 957.627258 958.027310
26.455000 956.933660 957.501517 957.925650 957.907127 958.302332 958.720469
26.495000 957.858365 958.307591 958.723275 958.727047 959.109993 959.679282
26.535000 958.569267 958.956206 959.373127 959.399791 959.829391 960.455088
26.575000 959.140893 959.533972 959.945398 959.999865 960.441597 961.069957
26.615000 959.698431 960.109119 960.573656 960.646302 961.149404 962.018544
26.655000 960.239566 960.684296 961.215422 961.340555 961.917272 963.232558
26.695000 960.779045 961.352152 961.989984 962.156565 962.973717 964.641208
26.735000 961.520129 962.122696 962.964723 963.143135 964.198154 965.611403
26.775000 962.242589 962.985138 964.025984 964.136360 965.366116 966.464729
26.815000 963.018081 963.899762 965.117546 965.142634 966.347918 967.564124
26.855000 963.932018 964.893114 966.126408 966.139288 967.310439 968.588958
26.895000 964.941633 965.991615 967.190626 967.198240 968.415441 969.577892
26.935000 966.207379 967.222740 968.322339 968.403411 969.590998 970.988787
26.975000 967.390717 968.541980 969.726984 969.832370 971.136584 972.674187
27.015000 968.740838 969.790304 971.304819 971.392799 972.943240 974.647709
27.055000 969.975441 971.096185 972.723485 972.893827 974.766092 976.724092
27.095000 970.987481 972.380040 974.474844 974.519733 976.594671 978.540750
27.135000 971.836450 973.612211 975.936793 975.940031 978.308349 979.893902
27.175000 972.668717 974.833071 977.496080 977.320991 979.681819 980.830393
27.215000 973.366132 976.914409 979.367587 978.800751 980.723613 981.519179
27.255000 974.033735 978.922461 980.956221 980.314421 981.781501 982.399889
27.295000 974.982385 980.839309 981.969037 981.407600 982.626765 983.236512
27.335000 975.725352 981.718441 982.719396 982.210445 983.367325 983.944832
27.375000 976.798717 982.383100 983.381957 982.933072 984.033193 984.620516
27.415000 978.436802 983.059811 984.005819 983.627298 984.682195 985.276889
27.455000 979.904505 983.719077 984.638647 984.317131 985.299622 986.011080
27.495000 980.893704 984.395176 985.269937 984.991460 985.919701 986.658398
27.535000 981.858441 985.015411 985.912018 985.672746 986.596786 987.359025
27.575000 982.716210 985.701087 986.574037 986.348354 987.280554 988.002308
27.615000 983.718467 986.292740 987.238571 987.023841 987.940798 988.558733
27.655000 984.590837 986.974182 987.896626 987.697114 988.554399 989.205686
27.695000 985.328022 987.687666 988.513369 988.363725 989.228538 989.871413
27.735000 986.333690 988.375363 989.193234 989.073700 989.910870 990.673807
27.775000 987.175996 989.072498 989.876050 989.803390 990.644286 991.319623
27.815000 988.019601 989.813053 990.595239 990.528616 991.354197 992.076180
27.855000 988.998313 990.478369 991.310716 991.250271 992.084673 992.862384
27.895000 989.842315 991.183759 992.029508 991.982880 992.828527 993.723959
27.935000 990.742158 991.859525 992.742691 992.709014 993.632062 994.393272
27.975000 991.543002 992.646027 993.473856 993.475895 994.399237 995.333015
28.015000 992.216752 993.346234 994.270410 994.245392 995.190908 996.031257
28.055000 992.947724 994.062959 995.009058 995.031632 996.082057 996.841577
28.095000 993.661070 994.841707 995.829154 995.833400 996.890079 997.678074
28.135000 994.448041 995.703897 996.714581 996.662595 997.662169 998.459084
28.175000 995.451381 996.551449 997.629769 997.528259 998.465492 999.163842
28.215000 996.244547 997.441210 998.476952 998.348461 999.239755 999.827679
28.255000 997.274601 998.362456 999.253425 999.145765 999.943628 1000.512496
28.295000 998.244932 999.211697 1000.003745 999.918005 1000.588312 1001.109775
28.335000 999.371371 1000.098024 1000.768041 1000.704781 1001.271204 1001.787825
28.375000 1000.351611 1000.975676 1001.516121 1001.490206 1001.989545 1002.551769
28.415000 1001.233315 1001.717173 1002.216180 1002.228803 1002.713790 1003.327238
28.455000 1001.823989 1002.349529 1002.872174 1002.896950 1003.430129 1004.128206
28.495000 1002.503711 1002.995948 1003.512404 1003.547750 1004.115926 1004.829318
28.535000 1003.125357 1003.612354 1004.156995 1004.202114 1004.768087 1005.575819
28.575000 1003.708632 1004.238045 1004.795746 1004.856233 1005.469104 1006.409021
28.615000 1004.323207 1004.855771 1005.457375 1005.531615 1006.189045 1007.315586
28.655000 1005.032423 1005.511691 1006.180570 1006.253790 1006.975896 1008.151581
28.695000 1005.621780 1006.178328 1006.918694 1006.989761 1007.802283 1008.986543
28.735000 1006.249565 1006.823573 1007.644553 1007.724856 1008.621630 1009.694044
28.775000 1006.916747 1007.512741 1008.372449 1008.464535 1009.392559 1010.604065
28.815000 1007.519125 1008.236109 1009.135422 1009.238477 1010.250317 1011.552848
28.855000 1008.218873 1008.979533 1009.890766 1010.025515 1011.090278 1012.615743
28.895000 1008.923411 1009.713948 1010.689557 1010.826593 1012.042472 1013.535621
28.935000 1009.699705 1010.469598 1011.502156 1011.707741 1013.002916 1014.647185
28.975000 1010.366446 1011.235818 1012.380562 1012.599637 1013.994138 1015.985418
29.015000 1011.032490 1011.984888 1013.223521 1013.466018 1015.032176 1016.997018
29.055000 1011.700205 1012.724186 1014.166170 1014.354500 1016.125557 1017.911266
29.095000 1012.380952 1013.455435 1015.210556 1015.286533 1017.079223 1018.780930
29.135000 1013.109549 1014.274228 1016.317749 1016.235717 1017.991087 1019.486145
29.175000 1013.793199 1015.090157 1017.395440 1017.171977 1018.963904 1020.184020
29.215000 1014.690046 1016.125212 1018.451315 1018.178821 1019.836267 1021.140035
29.255000 1015.595288 1017.392073 1019.425945 1019.175845 1020.701317 1022.173615
29.295000 1016.765816 1018.594231 1020.416588 1020.223998 1021.727087 1023.082990
29.335000 1017.821759 1019.957828 1021.417366 1021.331314 1022.774693 1024.442194
29.375000 1019.299642 1021.111444 1022.490135 1022.514745 1023.968614 1025.609838
29.415000 1020.729191 1022.211819 1023.636083 1023.650893 1025.220245 1026.535227
29.455000 1021.886856 1023.339554 1024.837009 1024.815787 1026.324079 1027.490342
29.495000 1023.191228 1024.572011 1026.037780 1025.971414 1027.380585 1028.477730
29.535000 1024.372362 1025.748566 1027.263306 1027.134412 1028.478690 1029.333531
29.575000 1025.439387 1026.861339 1028.221534 1028.105627 1029.348960 1030.221783
29.615000 1026.488089 1027.875332 1029.069635 1028.975865 1030.075282 1030.916959
29.655000 1027.472674 1028.799571 1029.882463 1029.789229 1030.810210 1031.621018
29.695000 1028.398696 1029.610286 1030.617748 1030.548990 1031.461147 1032.297046
29.735000 1029.177555 1030.448315 1031.411391 1031.325749 1032.172277 1033.039758
29.775000 1030.067839 1031.302468 1032.172434 1032.126411 1032.955227 1034.003490
29.815000 1031.415888 1032.322814 1033.124131 1033.147575 1033.957842 1035.209542
29.855000 1032.604122 1033.336074 1034.191719 1034.348110 1035.256993 1037.033664
29.895000 1033.650873 1034.570944 1035.592322 1035.844119 1037.166982 1039.040641
29.935000 1034.629328 1035.554643 1036.936335 1037.219861 1038.977935 1041.215518
29.975000 1035.410890 1036.408465 1038.182163 1038.466886 1040.521481 1043.177359
30.015000 1036.226679 1037.382917 1039.431756 1039.682619 1042.082000 1044.338015
30.055000 1037.011637 1038.410718 1040.681110 1040.903957 1043.451159 1045.801681
30.095000 1038.068501 1039.544959 1042.078701 1042.210953 1044.821206 1047.046896
30.135000 1039.129367 1040.733420 1043.509165 1043.521307 1046.296636 1048.271071
30.175000 1040.110780 1042.087345 1044.967169 1044.855260 1047.558147 1049.625229
30.215000 1041.080646 1043.311034 1046.247609 1046.073733 1048.598902 1050.737676
30.255000 1042.147211 1044.797439 1047.564094 1047.319194 1049.674199 1051.647253
30.295000 1043.545598 1046.408186 1048.694449 1048.531338 1050.698496 1052.560166
30.335000 1045.058150 1047.829800 1049.898339 1049.730534 1051.687934 1053.254428
30.375000 1046.708774 1049.134271 1051.131200 1050.966488 1052.850637 1054.264201
30.415000 1048.201436 1050.314155 1052.202010 1052.079639 1053.953282 1055.274959
30.455000 1049.408250 1051.460114 1053.220057 1053.132107 1054.879036 1056.130798
30.495000 1050.698826 1052.598845 1054.295542 1054.216966 1055.880970 1056.891544
30.535000 1051.826746 1053.815141 1055.455024 1055.320737 1056.846065 1057.787049
30.575000 1053.088145 1055.176359 1056.729036 1056.572762 1057.949754 1058.877464
30.615000 1055.105334 1056.795476 1058.082290 1057.966627 1059.161785 1060.277177
30.655000 1056.946245 1058.293590 1059.491562 1059.434440 1060.526389 1061.618668
30.695000 1058.364785 1059.552321 1060.727677 1060.668687 1061.788685 1062.780294
30.735000 1059.680965 1060.756214 1061.917287 1061.860008 1062.904893 1063.878226
30.775000 1060.915265 1061.942997 1062.972867 1062.927310 1063.911353 1064.831153
30.815000 1061.935525 1063.030171 1064.003039 1063.997586 1065.051216 1065.899619
