depth(m) lower_95(kyr) lower_68(kyr) median(kyr) mean(kyr) upper_68(kyr) upper_95(kyr)
173.410000 1714.819305 1740.279701 1744.294727 1744.370787 1748.326262 1789.201197
173.510000 1715.919400 1741.494851 1745.125786 1745.261672 1749.057980 1789.977197
173.610000 1717.355129 1742.500137 1746.068196 1746.179994 1749.788279 1791.258202
173.745714 1720.203524 1743.791296 1747.285252 1747.339426 1750.889790 1792.438865
173.881429 1721.190394 1744.918439 1748.351108 1748.482309 1751.787229 1794.013233
174.017143 1722.361830 1746.244717 1749.422964 1749.657010 1752.798218 1795.657590
174.152857 1723.179634 1747.405571 1750.457854 1750.825959 1753.888783 1796.923467
174.288571 1724.042538 1748.640776 1751.495507 1752.001238 1754.865464 1798.393390
174.424286 1725.402450 1749.858366 1752.492296 1753.126542 1755.846181 1799.281159
174.560000 1726.874071 1751.088700 1753.644906 1754.277204 1756.828344 1800.771265
174.660000 1727.830149 1751.864632 1754.386004 1755.072645 1757.619349 1801.518510
174.760000 1728.588072 1752.618330 1755.140915 1755.867865 1758.325581 1802.144342
174.860000 1729.487948 1753.213395 1755.855152 1756.598053 1759.006608 1802.784052
174.960000 1731.883237 1753.931030 1756.553740 1757.312324 1759.762316 1803.442016
175.060000 1732.823891 1754.583329 1757.285497 1758.033655 1760.395241 1804.139389
175.160000 1733.347154 1755.245502 1757.945660 1758.763150 1761.149356 1804.891361
175.260000 1734.454267 1755.800587 1758.634105 1759.487686 1761.765688 1805.522685
175.360000 1736.287533 1756.519336 1759.249991 1760.222451 1762.403072 1806.190034
175.460000 1737.760276 1757.185193 1759.856411 1760.952722 1763.121921 1806.686489
175.560000 1739.924287 1757.836382 1760.525031 1761.707081 1763.848063 1807.364669
175.700000 1744.013318 1758.836420 1761.386404 1762.828937 1764.682812 1808.156672
175.840000 1748.042577 1759.791480 1762.298893 1763.991347 1765.509624 1809.158553
175.980000 1751.877732 1760.742481 1763.232750 1765.115303 1766.368871 1810.014220
176.120000 1754.767388 1761.742991 1764.294317 1766.247108 1767.232902 1810.775638
176.260000 1758.672299 1762.716344 1765.277584 1767.368575 1768.245974 1811.860512
176.360000 1760.653731 1763.484689 1765.958906 1768.173090 1768.942062 1812.569150
176.460000 1761.977953 1764.231977 1766.799730 1768.963967 1769.684466 1813.197142
176.560000 1762.877462 1764.973580 1767.646209 1769.765197 1770.586058 1813.779878
176.660000 1763.590380 1765.638092 1768.433571 1770.594607 1771.597622 1814.185383
176.760000 1764.246691 1766.269113 1769.209537 1771.428495 1772.649726 1814.961911
176.860000 1765.011002 1766.872368 1770.009809 1772.274183 1773.803208 1815.499185
176.960000 1765.616066 1767.571032 1770.841964 1773.162234 1774.860072 1816.454741
177.060000 1766.264410 1768.240930 1771.650254 1774.068903 1776.113820 1817.230761
177.188571 1767.152325 1769.014073 1772.787528 1775.425517 1778.095515 1818.061141
177.317143 1767.913029 1769.902422 1773.773902 1776.786787 1780.593751 1818.952710
177.445714 1768.785517 1770.941828 1775.056810 1778.262195 1783.607713 1819.715992
177.574286 1769.400175 1771.780366 1776.213767 1779.675698 1787.642379 1820.388297
177.702857 1770.391497 1772.598263 1777.365606 1781.085348 1790.722077 1821.128203
177.831429 1771.312815 1773.462220 1778.724455 1782.584438 1795.726633 1821.918184
177.960000 1772.078691 1774.484287 1780.134399 1784.088357 1799.644168 1822.581857
178.060000 1772.713383 1775.123618 1781.289511 1785.194556 1801.399269 1823.328030
178.160000 1773.402073 1775.790946 1782.307144 1786.342107 1802.838033 1824.068191
178.302857 1774.223180 1776.945344 1784.549536 1788.408582 1804.429926 1825.563031
178.445714 1775.111994 1778.164360 1787.328272 1790.573518 1805.918401 1827.320678
178.588571 1776.047725 1779.517499 1790.102170 1792.804570 1808.261475 1828.991961
178.731429 1776.962182 1780.854578 1792.675498 1795.051310 1810.901917 1831.134520
178.874286 1777.960502 1781.982069 1795.479754 1797.189276 1813.572646 1833.577106
179.017143 1779.152443 1783.229907 1798.715150 1799.445175 1816.023053 1835.160158
179.160000 1780.329919 1784.651522 1801.506189 1801.626845 1819.255821 1838.588716
179.303448 1781.406628 1786.281482 1803.548127 1803.900027 1821.193336 1839.664878
179.446897 1782.359078 1788.515305 1805.902476 1806.230607 1823.444388 1841.641599
179.590345 1783.709621 1790.452829 1807.964279 1808.570138 1826.007649 1842.848804
179.733793 1784.515868 1793.360469 1810.487899 1810.838620 1827.784101 1844.510166
179.877241 1785.286714 1795.842393 1812.945649 1813.251311 1830.720466 1846.502054
180.020690 1786.075114 1798.772801 1815.225831 1815.637338 1832.718879 1848.608465
180.164138 1786.836349 1801.869291 1818.140594 1817.925369 1834.795579 1850.174803
180.307586 1787.620125 1804.560934 1820.774632 1820.316094 1836.742844 1852.269401
180.451034 1788.470018 1807.945314 1823.146424 1822.651033 1838.796518 1853.765871
180.594483 1789.245340 1811.362806 1826.305967 1825.153711 1840.758508 1854.605790
180.737931 1790.002843 1814.469508 1828.620779 1827.436029 1843.152023 1856.293085
180.881379 1791.138623 1817.166109 1831.196981 1829.842027 1845.237283 1859.023162
181.024828 1791.835825 1821.053600 1833.906933 1832.165234 1847.147536 1860.458869
181.168276 1792.604493 1823.976065 1836.375908 1834.372499 1848.985337 1861.449985
181.311724 1793.491441 1826.948253 1839.036817 1836.721185 1851.081997 1862.831750
181.455172 1794.159536 1830.339251 1841.877443 1839.128999 1852.986180 1863.941448
181.598621 1794.886047 1833.167993 1844.420044 1841.416083 1854.688860 1865.234182
181.742069 1795.672668 1835.994632 1847.162421 1843.736567 1856.400327 1867.083434
181.885517 1796.494621 1839.622592 1849.397066 1846.063532 1858.557165 1868.335595
182.028966 1797.468251 1842.628179 1852.170062 1848.363112 1860.573699 1869.385126
182.172414 1798.201531 1845.880542 1854.844012 1850.746507 1862.413299 1869.935509
182.315862 1799.091719 1848.636120 1857.367808 1853.117803 1864.436992 1870.867709
182.459310 1799.901861 1851.949872 1859.851825 1855.453268 1866.338464 1872.053127
182.602759 1800.713838 1855.027701 1862.200458 1857.620048 1868.103802 1873.191385
182.746207 1801.596329 1858.692712 1864.834460 1859.937725 1870.143477 1875.011330
182.889655 1802.503398 1861.201372 1867.436484 1862.120558 1871.935716 1876.078594
183.033103 1803.248193 1863.947425 1869.861582 1864.332315 1873.740624 1877.988528
183.176552 1804.066965 1867.229540 1872.082131 1866.484470 1875.418278 1879.089935
183.320000 1804.804770 1870.298656 1874.290289 1868.532623 1876.827983 1880.089868
183.420000 1805.408418 1871.715396 1875.610485 1869.743264 1877.701010 1880.977143
183.520000 1806.266704 1873.472383 1876.709776 1870.847035 1878.523516 1881.755085
183.620000 1806.702453 1874.790912 1877.816388 1871.838893 1879.348667 1882.398040
183.720000 1807.266656 1876.150542 1878.684854 1872.766967 1880.267850 1883.111116
183.815000 1807.841553 1877.747256 1879.387129 1873.581045 1881.092187 1883.922242
183.910000 1808.486490 1878.984105 1880.060204 1874.331781 1881.799030 1884.659709
183.920000 1808.623900 1879.048337 1880.137898 1874.411832 1881.898779 1884.759651
184.020000 1809.473605 1879.915466 1880.827818 1875.160054 1882.364376 1885.861983
184.120000 1810.330743 1880.574660 1881.479282 1875.866389 1882.809317 1886.841439
184.215000 1811.141769 1881.273655 1882.106460 1876.516704 1883.348311 1887.414426
184.310000 1811.718729 1881.911032 1882.747118 1877.150435 1883.875028 1887.926416
184.320000 1811.792116 1881.977939 1882.822541 1877.224199 1883.947091 1888.010353
184.420000 1812.489128 1882.560510 1883.469154 1877.891699 1884.639373 1888.926580
184.520000 1813.156516 1883.081898 1884.074538 1878.532531 1885.309597 1889.371225
184.615000 1813.738161 1883.609063 1884.617519 1879.127608 1885.940044 1889.959915
184.710000 1814.291109 1884.157255 1885.179786 1879.726958 1886.556964 1890.596525
184.820000 1815.111946 1884.821009 1885.833285 1880.408152 1887.148041 1891.134866
184.920000 1815.821741 1885.392130 1886.388313 1881.030703 1887.701249 1891.672873
185.020000 1816.471283 1885.987400 1886.979623 1881.648883 1888.288101 1892.246383
185.120000 1817.224669 1886.547523 1887.534519 1882.281336 1888.946393 1893.110548
185.220000 1817.937425 1887.113705 1888.081907 1882.883298 1889.560624 1893.728089
185.315000 1818.645343 1887.654671 1888.597995 1883.493039 1890.158410 1894.229608
185.410000 1819.424760 1888.220943 1889.135144 1884.109978 1890.865085 1895.016971
185.420000 1819.485879 1888.298741 1889.203149 1884.190008 1890.951899 1895.122599
185.555000 1821.105677 1888.863687 1889.996667 1885.556188 1893.619269 1900.979606
185.690000 1822.269007 1889.307694 1890.755302 1887.017681 1895.985850 1905.452838
185.825000 1823.301616 1889.746560 1891.475966 1888.524677 1898.205074 1910.104946
185.960000 1824.548437 1890.231732 1892.150311 1890.064633 1900.271102 1914.058398
186.088571 1826.247598 1890.682240 1892.886777 1891.769203 1903.856894 1916.533543
186.217143 1827.196866 1891.113572 1893.518139 1893.402395 1907.283748 1918.335221
186.345714 1828.572464 1891.584217 1894.146039 1895.079404 1910.957644 1920.471198
186.474286 1830.075474 1892.081845 1894.889769 1896.743734 1913.935152 1923.766573
186.602857 1831.068515 1892.504351 1895.619273 1898.382207 1917.134164 1925.474699
186.731429 1832.450421 1892.929269 1896.415994 1900.018405 1920.147722 1928.128080
186.860000 1833.613554 1893.414979 1897.446865 1901.588105 1922.415533 1930.114362
186.997500 1834.684430 1893.898293 1899.197867 1903.065613 1924.378795 1931.847684
187.135000 1836.379675 1894.400025 1900.684054 1904.565984 1926.117203 1932.994902
187.272500 1837.906280 1894.937109 1903.031540 1905.989840 1927.846282 1935.004310
187.410000 1839.663141 1895.486765 1905.272283 1907.369555 1929.597798 1936.115978
187.547500 1842.098301 1895.968896 1909.033088 1908.774338 1931.195381 1937.462495
187.685000 1843.515287 1896.528470 1912.081761 1910.097117 1932.476023 1938.732796
187.822500 1844.780734 1897.031543 1914.052828 1911.329686 1933.593171 1939.549594
187.960000 1847.473229 1897.526958 1916.361477 1912.499158 1934.876906 1940.722505
188.102791 1848.926981 1898.157186 1918.249435 1913.610610 1936.043713 1941.897466
188.245581 1850.682915 1898.786024 1920.072511 1914.676055 1937.130076 1943.099491
188.388372 1851.809241 1899.323888 1921.889137 1915.764817 1938.078826 1944.366978
188.531163 1853.328748 1899.940477 1923.651375 1916.816680 1939.039582 1946.288645
188.673953 1854.582328 1900.475115 1925.160669 1917.810615 1940.183050 1947.778141
188.816744 1855.615285 1901.068077 1926.236260 1918.785643 1940.999213 1949.185399
188.959535 1857.558888 1901.736818 1927.316849 1919.760706 1941.960613 1950.634934
189.102326 1859.239421 1902.296855 1928.890074 1920.709397 1942.822940 1951.910145
189.245116 1860.282881 1902.898748 1930.111829 1921.660461 1943.768348 1953.238975
189.387907 1862.467390 1903.523530 1931.436921 1922.600351 1944.638659 1955.601529
189.530698 1864.100643 1904.221010 1933.248719 1923.550462 1945.337405 1957.313000
189.673488 1865.466387 1904.875690 1934.306950 1924.478863 1946.185823 1959.808538
189.816279 1866.982581 1905.605230 1935.343238 1925.439601 1947.031563 1962.357933
189.959070 1870.322397 1906.225194 1936.958903 1926.393225 1947.923740 1964.033640
190.101860 1871.370121 1906.877824 1937.744863 1927.323686 1948.851893 1966.333694
190.244651 1873.055710 1907.505096 1938.974549 1928.249949 1949.756746 1967.522859
190.387442 1875.615089 1908.166711 1940.390943 1929.194202 1950.688186 1968.796628
190.530233 1877.327512 1908.816772 1941.531956 1930.140649 1951.581376 1970.687073
190.673023 1878.517796 1909.385531 1942.844453 1931.078194 1952.442450 1973.144193
190.815814 1879.650399 1909.997838 1943.808126 1932.059101 1953.362941 1974.323685
190.958605 1881.416991 1910.659639 1944.802192 1932.986847 1954.317454 1976.018655
191.101395 1884.567759 1911.257329 1945.707452 1933.910627 1955.109093 1977.596869
191.244186 1885.716969 1911.917979 1946.892828 1934.879288 1955.866406 1979.776635
191.386977 1887.383648 1912.563980 1947.855103 1935.828421 1956.702434 1982.175169
191.529767 1888.809390 1913.319310 1948.752463 1936.823107 1957.594288 1984.458415
191.672558 1891.088097 1913.881139 1949.823173 1937.800383 1958.335430 1986.736558
191.815349 1893.469734 1914.512662 1950.874357 1938.761146 1959.207779 1988.851248
191.958140 1895.112649 1915.139151 1951.952513 1939.705794 1960.152111 1990.673174
192.100930 1896.597685 1915.855975 1952.577537 1940.638483 1961.092311 1992.358686
192.243721 1898.445726 1916.407088 1953.474071 1941.600422 1961.961882 1993.871406
192.386512 1899.775728 1917.036323 1954.411288 1942.578727 1962.832445 1995.962806
192.529302 1900.681224 1917.743469 1955.576036 1943.534956 1963.788179 1998.744355
192.672093 1902.552850 1918.293973 1956.893217 1944.484181 1964.634980 2001.428902
192.814884 1904.017718 1918.935359 1957.986400 1945.407651 1965.679464 2003.303211
192.957674 1904.993030 1919.695497 1959.004627 1946.360149 1966.549642 2005.249264
193.100465 1907.742630 1920.330794 1959.973061 1947.274230 1967.392565 2006.263156
193.243256 1909.187933 1920.998976 1960.903457 1948.221798 1968.239838 2008.177319
193.386047 1910.843489 1921.696798 1961.894228 1949.135956 1969.214890 2010.492399
193.528837 1913.236494 1922.444089 1962.863825 1950.088549 1970.049333 2011.606170
193.671628 1915.031445 1923.184036 1964.060643 1951.023077 1970.927468 2012.339893
193.814419 1916.275902 1923.915806 1965.200125 1951.928121 1971.667765 2013.711104
193.957209 1918.009260 1924.742882 1966.187101 1952.878784 1972.580711 2015.606434
194.100000 1919.517239 1925.528266 1967.240664 1953.816954 1973.428058 2017.530288
194.228750 1920.734726 1926.083287 1968.042957 1954.660377 1974.444653 2018.616687
194.357500 1921.712374 1926.807844 1969.093995 1955.519663 1975.372560 2019.697397
194.486250 1922.320115 1927.515513 1970.122679 1956.352963 1976.216452 2021.024069
194.615000 1923.186768 1928.163371 1970.950075 1957.168356 1976.994033 2021.795210
194.743750 1924.211167 1928.759315 1971.819523 1957.986227 1977.747400 2022.410433
194.872500 1924.884220 1929.630386 1972.839654 1958.816380 1978.609251 2023.242024
195.001250 1925.793444 1930.279887 1973.745648 1959.639546 1979.484631 2024.386799
195.130000 1926.550080 1931.049741 1974.690819 1960.438554 1980.176279 2024.878916
195.270000 1927.574802 1931.890738 1975.373425 1961.330446 1981.113981 2025.791471
195.410000 1928.570632 1932.679711 1976.603209 1962.207920 1981.884704 2026.442759
195.550000 1929.597797 1933.464716 1977.595462 1963.112615 1982.718091 2027.248961
195.690000 1930.404808 1934.336104 1978.563016 1964.046405 1983.710362 2028.088393
195.830000 1931.297866 1935.284512 1979.509324 1964.997375 1984.713521 2028.670877
195.970000 1932.271158 1936.196272 1980.673541 1965.965173 1985.607359 2029.275679
196.110000 1933.047103 1937.087730 1981.748900 1966.956767 1986.742971 2029.812954
196.250000 1934.097634 1937.912906 1982.792128 1967.992974 1987.785451 2030.701693
196.385714 1935.217041 1939.057629 1984.074448 1969.257660 1989.297322 2031.648647
196.521429 1936.597107 1940.083376 1985.402637 1970.625827 1991.074511 2032.724437
196.657143 1937.923114 1941.109813 1986.886034 1972.051682 1993.057673 2034.110600
196.792857 1938.977753 1942.345497 1988.086117 1973.500706 1994.646435 2035.101651
196.928571 1940.472502 1943.448375 1989.230606 1974.911990 1996.318855 2036.154730
197.064286 1941.485355 1944.614467 1990.946112 1976.331410 1998.152102 2036.855467
197.200000 1943.048540 1945.856371 1992.027577 1977.772702 1999.694583 2037.541546
197.343750 1944.137403 1947.031255 1992.819477 1979.084023 2001.129691 2038.280492
197.487500 1945.105214 1948.172443 1993.885316 1980.405706 2002.453467 2038.895105
197.631250 1945.851276 1949.386496 1995.100049 1981.684418 2003.973488 2039.667373
197.775000 1946.960307 1950.349572 1996.136996 1982.944590 2005.325573 2040.437996
197.918750 1947.643782 1951.604319 1997.534509 1984.292228 2006.646445 2041.351803
198.062500 1948.650016 1953.014154 1998.508228 1985.563980 2008.009643 2042.028571
198.206250 1949.475221 1954.275137 1999.519193 1986.822519 2009.287896 2042.963100
198.350000 1950.279355 1955.792547 2000.390303 1988.081369 2010.339654 2043.620428
198.494948 1951.292335 1957.029549 2001.303657 1989.305749 2011.622981 2044.417608
198.639897 1951.959102 1958.361042 2002.390565 1990.576994 2012.947420 2045.476547
198.784845 1953.099801 1959.999707 2003.686600 1991.828663 2014.044805 2046.715551
198.929794 1953.948602 1961.433917 2004.572144 1993.044995 2015.470856 2047.785492
199.074742 1955.103732 1962.942192 2005.751582 1994.331985 2016.601807 2048.512325
199.219691 1956.137045 1964.320258 2006.714810 1995.562522 2017.881442 2049.214528
199.364639 1957.136196 1965.759291 2008.178721 1996.783705 2018.939778 2049.872166
199.509588 1958.064197 1967.309329 2009.254397 1997.972184 2020.029763 2050.488736
199.654536 1959.045279 1968.716144 2010.442420 1999.159527 2021.204798 2051.223980
199.799485 1960.047178 1970.046450 2011.383749 2000.377297 2022.152667 2051.793811
199.944433 1960.645545 1971.322814 2012.287701 2001.544354 2023.190014 2052.553596
200.089381 1961.334915 1972.940303 2013.641032 2002.650137 2024.226594 2053.095003
200.234330 1962.279097 1974.396754 2014.438534 2003.838359 2025.910692 2053.754739
200.379278 1962.897655 1975.884844 2015.519804 2005.020465 2026.810228 2054.456084
200.524227 1963.759063 1977.221900 2016.433751 2006.235844 2027.868120 2055.148538
200.669175 1964.285125 1979.058204 2017.246704 2007.479554 2029.007987 2055.713860
200.814124 1964.939411 1980.483323 2018.424944 2008.664570 2030.012446 2056.374510
200.959072 1965.734336 1981.910829 2019.422583 2009.870374 2031.020314 2056.949230
201.104021 1966.452480 1983.311217 2020.806455 2011.051688 2032.258143 2057.428893
201.248969 1967.051245 1984.897126 2021.698405 2012.224481 2033.487504 2057.972246
201.393918 1967.869872 1986.519697 2023.185932 2013.426670 2034.512847 2058.688153
201.538866 1968.559602 1988.121725 2024.105865 2014.582257 2035.508884 2059.366465
201.683814 1969.082732 1989.674904 2024.977240 2015.773002 2036.807126 2060.096566
201.828763 1969.522155 1991.105821 2026.128159 2016.945593 2037.931434 2060.841442
201.973711 1970.343484 1992.351550 2027.127551 2018.111329 2039.264227 2061.443570
202.118660 1971.128885 1993.916714 2028.480254 2019.258345 2040.339519 2062.541188
202.263608 1972.002439 1995.447591 2029.396419 2020.437267 2041.507599 2062.872516
202.408557 1972.703093 1997.040999 2030.209002 2021.680103 2042.472551 2063.979395
202.553505 1973.430243 1998.484376 2031.257156 2022.880939 2043.617392 2064.996036
202.698454 1974.235220 2000.190239 2032.212939 2024.101540 2044.823898 2066.022284
202.843402 1974.944057 2001.813944 2033.372309 2025.289355 2045.988234 2066.612469
202.988351 1975.511047 2003.346652 2034.359902 2026.465142 2046.981375 2067.175662
203.133299 1976.299323 2005.150511 2035.279800 2027.633261 2048.078487 2068.150310
203.278247 1977.093445 2006.753868 2036.554753 2028.806608 2048.941458 2069.097954
203.423196 1977.997553 2008.004255 2037.347648 2029.969985 2050.066126 2069.858374
203.568144 1978.706490 2009.276352 2038.372682 2031.176001 2051.251523 2070.792466
203.713093 1979.296497 2010.693956 2039.296145 2032.365931 2052.276852 2071.393809
203.858041 1980.220630 2012.030471 2040.502573 2033.549246 2053.263243 2071.886106
204.002990 1980.855382 2013.471746 2041.497233 2034.717162 2054.487844 2072.637522
204.147938 1981.386342 2015.018805 2042.324052 2035.867175 2055.563589 2073.980030
204.292887 1981.962382 2016.199250 2043.455135 2037.038001 2057.082575 2075.451394
204.437835 1982.748719 2017.399283 2044.278598 2038.254991 2058.378393 2076.554060
204.582784 1983.239661 2018.896054 2045.509329 2039.446915 2059.535577 2078.193370
204.727732 1984.251174 2020.282145 2046.244156 2040.636838 2060.638508 2078.764522
