depth(m) lower_95(kyr) lower_68(kyr) median(kyr) mean(kyr) upper_68(kyr) upper_95(kyr)
57.020000 1940.844146 1942.110572 1943.297652 1943.209118 1944.260842 1945.385483
57.040000 1941.699039 1942.857807 1943.891114 1943.856181 1944.815115 1945.921571
57.060000 1942.518245 1943.481367 1944.475367 1944.465183 1945.362946 1946.380356
57.080000 1943.283431 1944.129709 1945.065572 1945.057908 1945.941338 1947.029275
57.100000 1943.872166 1944.744039 1945.610980 1945.643677 1946.520828 1947.629372
57.120000 1944.406259 1945.330617 1946.188549 1946.224125 1947.094299 1948.260987
57.140000 1944.978184 1945.894363 1946.801961 1946.801520 1947.689762 1948.738470
57.160000 1945.636241 1946.452146 1947.342067 1947.362465 1948.293218 1949.319509
57.180000 1946.147740 1946.992938 1947.897065 1947.933681 1948.882616 1949.983771
57.200000 1946.597826 1947.600070 1948.439923 1948.498530 1949.439593 1950.590457
57.220000 1947.193520 1948.166508 1948.986209 1949.063506 1950.010354 1951.273530
57.240000 1947.786061 1948.715042 1949.564466 1949.634791 1950.571398 1951.849764
57.260000 1948.387109 1949.281148 1950.179562 1950.244871 1951.257164 1952.493077
57.280000 1949.030586 1949.813158 1950.791288 1950.835949 1951.872559 1953.022958
57.300000 1949.626922 1950.373239 1951.441805 1951.465541 1952.500471 1953.830115
57.320000 1950.094720 1950.965148 1952.050077 1952.108219 1953.168276 1954.593252
57.340000 1950.805343 1951.626391 1952.637916 1952.749669 1953.857076 1955.299976
57.360000 1951.441403 1952.273782 1953.347919 1953.429956 1954.577440 1955.989763
57.380000 1952.026252 1952.993184 1954.051079 1954.137848 1955.284279 1956.740850
57.400000 1952.630439 1953.677218 1954.740686 1954.823346 1955.994589 1957.427508
57.420000 1953.239500 1954.312572 1955.382015 1955.479422 1956.685887 1958.040027
57.440000 1953.842413 1954.976338 1956.034201 1956.122212 1957.394461 1958.674757
57.460000 1954.534793 1955.612072 1956.625399 1956.761676 1958.057415 1959.285634
57.480000 1955.242144 1956.267318 1957.275015 1957.400082 1958.741126 1959.892581
57.500000 1955.939456 1956.918999 1957.940519 1958.051841 1959.339421 1960.534160
57.520000 1956.576738 1957.587869 1958.571568 1958.705413 1959.975409 1961.094402
57.540000 1957.226969 1958.219232 1959.238338 1959.380158 1960.653850 1961.714234
57.560000 1957.920116 1958.853656 1959.900983 1960.012103 1961.298973 1962.273499
57.580000 1958.610962 1959.429787 1960.515850 1960.621858 1961.881597 1962.834869
57.600000 1959.247174 1960.050419 1961.154235 1961.243819 1962.523730 1963.498072
57.620000 1959.777389 1960.637759 1961.769491 1961.838280 1963.108494 1963.980799
57.640000 1960.397711 1961.244156 1962.425514 1962.433783 1963.695984 1964.516284
57.660000 1960.975970 1961.807110 1963.051525 1963.035038 1964.301926 1965.138795
57.680000 1961.542926 1962.384344 1963.616598 1963.616977 1964.801502 1965.677939
57.700000 1962.098305 1962.956304 1964.195475 1964.199749 1965.380949 1966.221931
57.720000 1962.729129 1963.560845 1964.803052 1964.772059 1965.879449 1966.975378
57.740000 1963.277811 1964.161592 1965.407831 1965.368270 1966.472527 1967.630800
57.760000 1963.739778 1964.745340 1966.009178 1965.964123 1967.072882 1968.305941
57.780000 1964.411767 1965.295887 1966.610579 1966.555196 1967.622499 1968.794487
57.800000 1964.988749 1965.928889 1967.185051 1967.170323 1968.338052 1969.465450
57.820000 1965.504670 1966.545626 1967.784512 1967.811254 1968.996753 1970.306877
57.840000 1966.139486 1967.201974 1968.348396 1968.449255 1969.637776 1971.142156
57.860000 1966.739142 1967.902565 1969.028231 1969.091676 1970.300145 1971.717987
57.880000 1967.432678 1968.536144 1969.622228 1969.748463 1971.006839 1972.598797
57.900000 1968.103926 1969.168205 1970.212234 1970.395802 1971.702659 1973.272861
57.920000 1968.639937 1969.817727 1970.848415 1971.057853 1972.508810 1973.880899
57.960000 1969.871077 1970.889131 1972.129799 1972.296734 1973.852461 1975.290310
57.980000 1970.406415 1971.430347 1972.759977 1972.934320 1974.577709 1975.986414
58.000000 1970.997184 1971.968358 1973.392289 1973.527958 1975.224731 1976.619798
58.020000 1971.626150 1972.492225 1973.994554 1974.117986 1975.833244 1977.159383
58.040000 1972.197043 1973.004640 1974.603440 1974.674755 1976.423336 1977.629897
58.060000 1972.633010 1973.542985 1975.184245 1975.232168 1977.052233 1978.161093
58.080000 1973.116416 1974.044157 1975.783565 1975.782341 1977.654431 1978.735763
58.100000 1973.569884 1974.536612 1976.374982 1976.344453 1978.242684 1979.289892
58.120000 1974.113000 1975.073646 1977.012088 1976.919768 1978.769376 1979.834336
58.140000 1974.654237 1975.583801 1977.647480 1977.511162 1979.294584 1980.469047
58.160000 1975.180511 1976.134374 1978.294648 1978.123005 1979.909395 1981.038357
58.180000 1975.761832 1976.736854 1978.942183 1978.740244 1980.501360 1981.634558
58.200000 1976.350935 1977.273659 1979.658638 1979.358109 1981.078090 1982.260702
58.220000 1976.882015 1977.907832 1980.297902 1979.978027 1981.680785 1982.786955
58.240000 1977.492782 1978.496755 1980.898817 1980.589147 1982.279316 1983.405163
58.260000 1978.046127 1979.167600 1981.540028 1981.223246 1982.919766 1983.963380
58.280000 1978.526102 1979.919450 1982.156188 1981.847791 1983.496117 1984.537551
58.300000 1979.219499 1980.546055 1982.770762 1982.488243 1984.102094 1985.188291
58.320000 1979.854446 1981.314090 1983.450444 1983.155572 1984.697521 1985.731625
58.340000 1980.677755 1982.189410 1984.098616 1983.862732 1985.340471 1986.306520
58.360000 1981.256419 1982.931800 1984.821566 1984.585281 1986.049364 1986.991830
58.380000 1981.838616 1983.897131 1985.527311 1985.331765 1986.791748 1987.664482
58.400000 1982.721853 1984.820884 1986.322007 1986.148094 1987.492345 1988.461276
58.420000 1983.589119 1985.672100 1987.132434 1986.947075 1988.198368 1989.163147
58.440000 1984.763340 1986.706180 1987.985453 1987.832996 1988.973424 1990.074355
58.460000 1985.886989 1987.673582 1988.768952 1988.688195 1989.792059 1991.029585
58.500000 1987.959624 1989.106261 1990.100156 1990.125846 1991.109255 1992.304033
58.520000 1988.856031 1989.842055 1990.779775 1990.833077 1991.749155 1993.330404
58.540000 1989.640307 1990.508587 1991.388321 1991.478067 1992.438372 1993.866045
58.560000 1990.218564 1991.117828 1991.939023 1992.056925 1993.095769 1994.580891
58.580000 1990.894566 1991.672329 1992.511244 1992.633376 1993.588536 1995.204362
58.600000 1991.526215 1992.236803 1993.100797 1993.228673 1994.210998 1995.728415
58.620000 1992.044024 1992.820684 1993.697585 1993.825298 1994.792514 1996.337202
58.640000 1992.734931 1993.427163 1994.257290 1994.426622 1995.406968 1996.970092
58.660000 1993.347346 1993.970796 1994.866848 1995.004522 1995.957628 1997.465700
58.680000 1993.873056 1994.571959 1995.472069 1995.587890 1996.534451 1998.043161
58.700000 1994.327905 1995.117813 1996.079659 1996.163036 1997.102863 1998.647080
58.720000 1994.899176 1995.674784 1996.669600 1996.730670 1997.695496 1999.287367
58.740000 1995.305635 1996.241213 1997.281176 1997.333637 1998.275620 1999.909196
58.760000 1995.837438 1996.862376 1997.881814 1997.932414 1998.871969 2000.607318
58.780000 1996.389380 1997.465047 1998.481843 1998.539513 1999.460885 2001.363506
58.800000 1996.991698 1998.105519 1999.081066 1999.133304 2000.046514 2002.086878
58.840000 1998.208104 1999.183732 2000.100226 2000.203453 2001.105067 2003.175823
58.860000 1998.809940 1999.749290 2000.652550 2000.764229 2001.675485 2003.773586
58.880000 1999.443081 2000.331393 2001.195146 2001.353559 2002.242480 2004.312312
58.900000 2000.009475 2000.949054 2001.742682 2001.935315 2002.844079 2004.824175
58.920000 2000.648360 2001.549697 2002.337364 2002.547575 2003.536651 2005.535954
58.940000 2001.223842 2002.107404 2002.941050 2003.159082 2004.280084 2006.365100
58.960000 2001.731885 2002.614094 2003.450089 2003.731370 2004.923338 2007.055493
58.980000 2002.317397 2003.148894 2004.061807 2004.335399 2005.553873 2008.078351
59.000000 2002.921769 2003.733994 2004.677426 2004.990510 2006.305868 2008.822987
59.020000 2003.547846 2004.345497 2005.334276 2005.667257 2007.105045 2009.746238
59.040000 2004.195182 2004.976078 2005.964518 2006.348001 2007.868126 2010.518646
59.060000 2004.785828 2005.612711 2006.639487 2007.058891 2008.658442 2011.523212
59.080000 2005.294501 2006.175463 2007.311438 2007.732920 2009.367591 2012.150068
59.100000 2005.841460 2006.789868 2008.075777 2008.447107 2010.135652 2013.046127
59.120000 2006.462370 2007.355348 2008.707976 2009.127555 2010.847302 2013.686396
59.140000 2007.130559 2007.997616 2009.493457 2009.845091 2011.629508 2014.602768
59.160000 2007.612388 2008.671569 2010.218351 2010.577094 2012.391498 2015.447649
59.180000 2008.186036 2009.387228 2010.945108 2011.313234 2013.204343 2016.340695
59.200000 2008.846200 2010.006525 2011.800535 2012.113705 2014.066793 2017.569373
59.220000 2009.445767 2010.714922 2012.694633 2012.954261 2014.870602 2018.560696
59.240000 2010.161941 2011.535826 2013.589564 2013.803336 2015.668615 2019.550129
59.260000 2010.919278 2012.435349 2014.383298 2014.715164 2016.459953 2020.951123
59.280000 2011.581766 2013.218826 2015.325550 2015.709439 2017.703732 2023.384373
59.300000 2012.486707 2014.288669 2016.212306 2016.856842 2019.025794 2026.697323
59.320000 2013.227607 2015.286743 2017.246650 2018.032132 2020.345772 2028.810686
59.340000 2014.147455 2016.251425 2018.404369 2019.322567 2022.252320 2030.479312
59.360000 2015.244365 2017.475860 2019.713247 2020.819222 2024.475892 2032.649901
59.380000 2016.729437 2018.700645 2021.524608 2022.517720 2026.511556 2034.239742
59.400000 2018.250158 2020.445874 2023.384751 2024.304652 2028.786291 2035.594727
59.420000 2019.628422 2022.197661 2025.435694 2026.277027 2030.492013 2036.923863
59.460000 2028.247713 2031.162263 2033.828538 2033.969007 2036.686251 2040.469623
59.480000 2030.679220 2033.197918 2035.677053 2035.819516 2038.331555 2041.618991
59.500000 2032.715904 2034.711355 2037.329687 2037.419267 2039.852987 2043.045121
59.520000 2034.120671 2036.288081 2038.691451 2038.895392 2041.462514 2044.748259
59.540000 2035.434562 2037.655308 2040.135929 2040.340170 2042.962815 2046.093603
59.560000 2036.493360 2039.141552 2041.660668 2041.759961 2044.228857 2047.490401
59.580000 2037.970171 2040.348008 2042.989198 2043.137703 2045.661745 2049.064244
59.600000 2039.478360 2041.843509 2044.411080 2044.627662 2047.353644 2051.261815
59.620000 2040.879058 2043.415228 2046.056686 2046.266694 2049.054814 2052.957503
59.660000 2045.481687 2049.964308 2053.536475 2053.113699 2056.375468 2058.530218
59.680000 2047.499328 2051.571306 2055.410784 2054.850000 2057.860130 2059.740184
59.700000 2049.582537 2053.480606 2056.876485 2056.381163 2059.219921 2060.633799
59.720000 2051.479033 2055.411298 2058.236064 2057.815952 2060.362853 2061.505396
59.740000 2053.698616 2056.853677 2059.432489 2059.017445 2061.119354 2062.109956
59.760000 2055.549225 2058.210518 2060.461305 2060.085755 2061.894178 2062.702612
59.780000 2057.326781 2059.665670 2061.493546 2061.190155 2062.699530 2063.384880
59.800000 2058.799475 2060.727256 2062.313272 2062.082978 2063.323141 2064.002584
59.820000 2060.311320 2061.788647 2063.061550 2062.903424 2063.951829 2064.664831
59.840000 2061.568685 2062.720198 2063.767256 2063.648221 2064.572781 2065.194369
59.860000 2062.432667 2063.415951 2064.424393 2064.301836 2065.144629 2065.787928
59.880000 2063.150229 2063.970328 2064.970565 2064.871166 2065.692642 2066.363229
59.900000 2063.695059 2064.500403 2065.518013 2065.408068 2066.219560 2066.898202
59.920000 2064.289649 2065.018950 2066.019557 2065.927616 2066.720467 2067.354695
59.940000 2064.726127 2065.535492 2066.511372 2066.423544 2067.239167 2067.871033
59.960000 2065.230029 2066.031703 2067.040515 2066.933450 2067.735367 2068.396494
59.980000 2065.738280 2066.527091 2067.552800 2067.431595 2068.192575 2068.846989
60.000000 2066.156310 2066.971328 2068.037678 2067.918558 2068.738328 2069.352664
60.010000 2066.429348 2067.215957 2068.282320 2068.175719 2068.997053 2069.598490
60.060000 2067.267766 2068.285895 2069.396370 2069.252449 2070.045443 2070.659323
60.080000 2067.742435 2068.772791 2069.878011 2069.738780 2070.513326 2071.156569
60.100000 2068.260298 2069.301458 2070.366005 2070.222817 2070.999739 2071.661237
60.120000 2068.793140 2069.810925 2070.871968 2070.718924 2071.511852 2072.185566
60.140000 2069.366055 2070.298489 2071.334734 2071.216063 2072.018893 2072.800711
60.160000 2069.816870 2070.770656 2071.838237 2071.714480 2072.503480 2073.259093
60.180000 2070.241221 2071.288377 2072.337072 2072.231137 2073.033770 2073.891430
60.200000 2070.713648 2071.791936 2072.847846 2072.743115 2073.573594 2074.402625
60.240000 2071.593164 2072.793589 2073.754780 2073.693239 2074.559592 2075.774996
60.260000 2072.211472 2073.290787 2074.270890 2074.214417 2075.063749 2076.425347
60.280000 2072.623213 2073.786998 2074.770057 2074.726616 2075.563035 2076.937040
60.300000 2073.141653 2074.325017 2075.289316 2075.258192 2076.039476 2077.528627
60.320000 2073.624912 2074.850636 2075.792606 2075.783937 2076.593279 2078.134257
60.340000 2074.181751 2075.481268 2076.313517 2076.323753 2077.146971 2078.674127
60.360000 2074.721900 2075.989909 2076.807527 2076.853531 2077.708330 2079.161618
60.380000 2075.219842 2076.518403 2077.317874 2077.380911 2078.285320 2079.756726
60.400000 2075.791389 2077.000262 2077.828892 2077.908854 2078.802505 2080.404829
60.420000 2076.391581 2077.551406 2078.353006 2078.449862 2079.392937 2080.957896
60.450000 2077.023313 2078.311274 2079.095656 2079.207206 2080.201694 2081.706507
60.470000 2077.577463 2078.801092 2079.638331 2079.742194 2080.793995 2082.306314
60.490000 2078.163293 2079.332147 2080.175064 2080.308459 2081.385049 2082.929162
60.510000 2078.673514 2079.858682 2080.729718 2080.881408 2081.988298 2083.637240
60.530000 2079.129013 2080.391427 2081.319716 2081.461337 2082.648175 2084.242313
60.550000 2079.688246 2080.973225 2081.900005 2082.056106 2083.325336 2084.966673
60.570000 2080.203647 2081.562927 2082.481464 2082.664280 2083.974903 2085.815577
60.590000 2080.774243 2082.098206 2083.129649 2083.293754 2084.688974 2086.423216
60.610000 2081.331643 2082.677721 2083.754235 2083.950527 2085.442744 2087.204649
60.630000 2081.995395 2083.404454 2084.435841 2084.677163 2086.266960 2088.006273
60.650000 2082.575362 2084.074286 2085.172976 2085.422146 2087.023089 2088.733898
60.670000 2083.277400 2084.713850 2085.974519 2086.144142 2087.707122 2089.433140
60.710000 2084.530343 2086.026608 2087.329872 2087.548463 2089.186730 2090.863877
60.730000 2085.386466 2086.716689 2088.144499 2088.320609 2090.085074 2091.711280
60.750000 2086.196718 2087.554691 2088.978252 2089.146640 2091.012456 2092.383157
60.770000 2086.975879 2088.265164 2089.882758 2089.987568 2091.852058 2093.339663
60.790000 2087.730840 2089.117405 2090.682099 2090.822764 2092.648804 2094.182409
60.810000 2088.684968 2090.015913 2091.596149 2091.683557 2093.432396 2094.977781
60.850000 2090.326127 2091.603608 2093.468975 2093.370522 2095.112882 2096.502382
60.870000 2091.181195 2092.585811 2094.346908 2094.261174 2095.865708 2097.229760
60.890000 2092.202385 2093.460134 2095.209051 2095.149255 2096.710335 2097.965418
60.910000 2093.035001 2094.383363 2096.096780 2096.031255 2097.619331 2098.708884
60.930000 2093.876340 2095.413423 2096.984824 2096.914192 2098.412207 2099.460238
60.950000 2094.822729 2096.449111 2097.861994 2097.779207 2099.166542 2100.212408
60.970000 2095.638984 2097.371961 2098.751319 2098.657821 2099.941200 2101.141598
60.990000 2096.649619 2098.198323 2099.585655 2099.490086 2100.768947 2101.834360
61.010000 2097.469191 2099.088302 2100.394817 2100.333967 2101.571758 2102.694276
61.030000 2098.554664 2100.020591 2101.253587 2101.263328 2102.440286 2103.961931
61.040000 2099.043743 2100.489066 2101.740409 2101.711714 2102.878510 2104.406134
61.060000 2100.065571 2101.464875 2102.625010 2102.617574 2103.768918 2105.248501
61.080000 2100.743003 2102.237322 2103.455911 2103.449350 2104.686523 2106.120196
61.100000 2101.462569 2103.006399 2104.185836 2104.222477 2105.509351 2107.206565
61.120000 2102.254420 2103.671787 2104.893190 2104.990966 2106.320588 2108.016578
61.140000 2103.057032 2104.412902 2105.671841 2105.800549 2107.217508 2109.178890
61.160000 2103.772856 2105.192933 2106.529858 2106.643723 2108.185760 2110.062869
61.180000 2104.578872 2105.957701 2107.501392 2107.588096 2109.275650 2110.986680
61.200000 2105.440654 2106.766965 2108.452661 2108.541007 2110.272227 2112.106164
61.220000 2106.243446 2107.775959 2109.523750 2109.553425 2111.360011 2113.301674
61.240000 2107.116637 2108.660291 2110.544979 2110.537910 2112.472196 2114.089311
61.260000 2107.874755 2109.553820 2111.556151 2111.496898 2113.437107 2114.965816
61.280000 2108.614324 2110.449175 2112.542101 2112.456239 2114.351519 2116.115828
61.300000 2109.617861 2111.405982 2113.566373 2113.453624 2115.377047 2117.012955
61.320000 2110.317264 2112.455894 2114.607317 2114.455792 2116.339917 2117.988737
61.340000 2111.082915 2113.537052 2115.648885 2115.474151 2117.313409 2119.109371
61.360000 2112.246795 2114.689589 2116.579855 2116.463427 2118.150738 2120.124743
61.380000 2113.798602 2115.790151 2117.502115 2117.469620 2119.192219 2120.961688
61.400000 2115.324214 2116.774642 2118.418425 2118.463357 2120.119444 2121.974724
61.420000 2116.307254 2117.829251 2119.362618 2119.463991 2121.148834 2122.971154
61.440000 2117.570523 2118.910079 2120.475843 2120.532298 2122.154280 2123.669455
61.460000 2118.621075 2119.971346 2121.537580 2121.560754 2123.159260 2124.750826
61.500000 2120.402845 2121.951879 2123.563252 2123.589493 2125.126935 2126.832949
61.520000 2121.551292 2123.125701 2124.760140 2124.705464 2126.244394 2127.896520
61.540000 2122.653181 2124.260654 2125.868900 2125.884139 2127.475846 2129.478361
61.560000 2123.886181 2125.475907 2127.167478 2127.209837 2128.809717 2131.081425
61.580000 2124.921697 2126.615894 2128.315828 2128.400110 2130.119322 2132.577412
61.600000 2126.334954 2127.760325 2129.565436 2129.726256 2131.652270 2134.013056
61.620000 2127.405328 2128.762560 2130.718648 2130.949129 2133.099136 2135.532783
61.640000 2128.318611 2129.832075 2131.991332 2132.144561 2134.429208 2136.926171
61.660000 2129.384568 2131.040231 2133.328885 2133.451227 2135.855468 2138.335740
61.680000 2130.367963 2132.271048 2134.619903 2134.714755 2137.173920 2139.474938
61.700000 2131.420174 2133.540213 2136.014136 2136.033229 2138.431961 2140.606940
61.720000 2132.773113 2134.939067 2137.436078 2137.341026 2139.712948 2141.726754
61.740000 2133.932601 2136.347777 2138.812371 2138.650764 2140.894239 2142.414320
61.760000 2135.472414 2137.909853 2140.148260 2139.919617 2141.821700 2143.275346
61.780000 2137.224973 2139.529223 2141.462188 2141.246746 2142.963990 2144.162414
61.800000 2138.903492 2141.213623 2142.996618 2142.775015 2144.314134 2145.475466
61.820000 2140.608869 2142.664184 2144.153040 2144.017864 2145.410090 2146.596744
61.840000 2142.253012 2143.992410 2145.329437 2145.271471 2146.593249 2147.824325
61.860000 2143.662619 2145.055245 2146.193712 2146.195719 2147.409743 2148.662805
61.880000 2144.923709 2146.137506 2147.177543 2147.214111 2148.322948 2149.627873
61.900000 2146.248112 2147.263874 2148.351950 2148.376421 2149.480821 2150.723609
61.920000 2147.181942 2148.176387 2149.250423 2149.302164 2150.397484 2151.636548
61.940000 2147.844217 2148.942460 2150.123710 2150.130677 2151.206357 2152.382988
61.960000 2148.669416 2149.755476 2150.923950 2150.929786 2152.057409 2153.253837
61.980000 2149.409372 2150.442179 2151.662266 2151.677929 2152.922363 2154.101469
62.000000 2149.976055 2151.094546 2152.358790 2152.378491 2153.638235 2154.911799
62.020000 2150.722867 2151.815654 2153.067091 2153.112559 2154.385168 2155.523187
62.040000 2151.503143 2152.604078 2153.793214 2153.843407 2155.106529 2156.120970
