depth(m) lower_95(kyr) lower_68(kyr) median(kyr) mean(kyr) upper_68(kyr) upper_95(kyr)
38.400000 786.980104 787.685844 788.334932 788.285589 788.908237 789.340152
38.410000 787.284912 787.963706 788.573504 788.529576 789.114812 789.568901
38.430000 788.020656 788.568383 789.093393 789.061560 789.549836 790.013672
38.450000 788.634933 789.132002 789.599089 789.575286 790.028136 790.416859
38.470000 789.240291 789.703760 790.125852 790.116309 790.549325 790.893760
38.490000 789.821551 790.213079 790.594596 790.596014 790.983648 791.326344
38.510000 790.229149 790.633538 791.003577 790.995653 791.363320 791.685696
38.530000 790.699061 791.056692 791.422746 791.400844 791.746616 792.036212
38.550000 791.092319 791.445810 791.788849 791.770762 792.087681 792.373244
38.570000 791.496170 791.832160 792.144519 792.131148 792.428889 792.709766
38.590000 791.942604 792.250353 792.531513 792.536083 792.827932 793.146565
38.600000 792.157668 792.430768 792.713557 792.724469 793.010658 793.311683
38.610000 792.327974 792.592452 792.872730 792.889997 793.172509 793.489534
38.630000 792.642087 792.898151 793.166281 793.197186 793.501983 793.837904
38.650000 792.982360 793.210766 793.500736 793.511266 793.815061 794.137763
38.670000 793.240182 793.507944 793.806813 793.818156 794.141943 794.449064
38.690000 793.525677 793.795446 794.090626 794.112283 794.434856 794.776193
38.710000 793.783606 794.084025 794.392740 794.406044 794.739894 795.107482
38.730000 794.062744 794.353817 794.666866 794.691208 795.039126 795.400724
38.750000 794.345769 794.633833 794.951592 794.982575 795.352049 795.703590
38.770000 794.592797 794.890270 795.240408 795.269950 795.655518 796.032751
38.790000 794.896508 795.179761 795.535672 795.563026 795.959823 796.345860
38.810000 795.151399 795.455643 795.834585 795.853307 796.266813 796.639851
38.830000 795.410297 795.723415 796.120307 796.137483 796.562685 796.914623
38.850000 795.699624 795.987030 796.401395 796.425163 796.848060 797.288369
38.870000 795.981334 796.266588 796.693574 796.710798 797.147461 797.566521
38.890000 796.256574 796.546288 796.997048 797.001777 797.450262 797.833796
38.910000 796.483154 796.812671 797.275802 797.288373 797.749765 798.154451
38.930000 796.779932 797.098351 797.577142 797.579251 798.043351 798.432895
38.950000 797.022072 797.379188 797.864382 797.863770 798.336616 798.755756
38.970000 797.318808 797.631325 798.154909 798.155846 798.647927 799.048140
38.990000 797.592430 797.920797 798.452229 798.447191 798.942687 799.343339
39.010000 797.865689 798.197681 798.759780 798.746267 799.265421 799.641900
39.030000 798.140441 798.475875 799.089202 799.054991 799.587017 799.958198
39.040000 798.293440 798.627128 799.260423 799.217946 799.764308 800.137790
39.060000 798.568440 798.895213 799.548671 799.516706 800.076387 800.451748
39.080000 798.862659 799.176596 799.870466 799.814181 800.372714 800.717091
39.100000 799.111853 799.463410 800.190574 800.117180 800.689449 801.036262
39.120000 799.414058 799.737607 800.487085 800.412571 800.983616 801.297140
39.140000 799.673771 800.026395 800.786688 800.708008 801.279419 801.607908
39.160000 799.933594 800.297232 801.103157 801.000579 801.582130 801.850854
39.180000 800.199477 800.599652 801.443526 801.300106 801.870090 802.151645
39.190000 800.332663 800.748385 801.613334 801.467805 802.028625 802.298084
39.210000 800.645156 801.046744 801.936086 801.774879 802.339699 802.597644
39.230000 800.940365 801.346792 802.257054 802.077829 802.623727 802.884162
39.240000 801.090968 801.526013 802.435579 802.246305 802.783525 803.034769
39.250000 801.239590 801.710150 802.612447 802.413109 802.949184 803.188113
39.260000 801.412846 801.890194 802.792408 802.586558 803.112792 803.333754
39.270000 801.578364 802.054787 802.953592 802.753736 803.268503 803.486481
39.280000 801.772594 802.239611 803.125999 802.930946 803.436993 803.633090
39.290000 801.935764 802.452480 803.305218 803.113619 803.606155 803.828449
39.300000 802.107714 802.674471 803.474457 803.292453 803.773525 803.997739
39.310000 802.294626 802.859743 803.638694 803.469906 803.933333 804.185908
39.320000 802.481710 803.063164 803.810329 803.648893 804.103052 804.351147
39.330000 802.664419 803.266664 803.988424 803.834501 804.266941 804.561095
39.340000 802.886895 803.467356 804.161046 804.015955 804.435060 804.784667
39.350000 803.046606 803.671564 804.343541 804.203227 804.595127 804.970800
39.360000 803.256058 803.860615 804.508383 804.390452 804.784503 805.179841
39.370000 803.538599 804.082045 804.687528 804.582591 804.972975 805.370209
39.380000 803.705215 804.285590 804.862482 804.773071 805.161461 805.583523
39.390000 803.920920 804.476418 805.032113 804.961524 805.342267 805.826906
39.400000 804.141881 804.656220 805.212240 805.150051 805.531372 806.068889
39.410000 804.285408 804.822667 805.394515 805.340009 805.743183 806.238745
39.420000 804.459070 805.065992 805.564634 805.533394 805.957772 806.456503
39.430000 804.682181 805.286972 805.745816 805.733679 806.165194 806.685588
39.440000 804.891674 805.507181 805.932732 805.945995 806.415348 806.905603
39.450000 805.101260 805.714686 806.146707 806.153688 806.642646 807.140279
39.460000 805.296998 805.937011 806.349812 806.364460 806.885927 807.377515
39.470000 805.450501 806.128213 806.545822 806.578161 807.133795 807.627074
39.480000 805.635119 806.320337 806.761212 806.791392 807.361225 807.886582
39.490000 805.812264 806.522922 806.977013 807.014946 807.581216 808.128112
39.500000 806.035043 806.733519 807.181846 807.245333 807.814353 808.452007
39.510000 806.278460 806.943177 807.455197 807.492895 808.083083 808.790616
39.520000 806.477614 807.160786 807.738540 807.741637 808.346567 809.022050
39.530000 806.709116 807.397515 807.993251 807.995692 808.596655 809.198216
39.540000 806.941522 807.627438 808.247859 808.239461 808.836540 809.451100
39.550000 807.278918 807.851172 808.497003 808.492413 809.109819 809.792979
39.560000 807.564875 808.085804 808.762437 808.749752 809.382515 810.052698
39.570000 807.799097 808.354505 809.026974 809.013821 809.628005 810.311624
39.580000 808.061181 808.607856 809.273296 809.277954 809.900277 810.570695
39.590000 808.292333 808.893547 809.530284 809.539348 810.170577 810.863285
39.600000 808.516497 809.166667 809.780494 809.805770 810.462670 811.128676
39.610000 808.863003 809.446627 810.082506 810.101323 810.762592 811.498629
39.620000 809.140093 809.735221 810.362522 810.386999 810.998775 811.785278
39.630000 809.405149 810.057176 810.673115 810.682755 811.301543 812.069806
39.640000 809.785978 810.364423 810.965236 810.967169 811.564690 812.299698
39.650000 810.027742 810.644778 811.237744 811.247053 811.865936 812.587236
39.660000 810.310261 810.914415 811.499622 811.520353 812.140206 812.923364
39.670000 810.589905 811.198323 811.768233 811.805418 812.451244 813.162766
39.680000 810.888864 811.480466 812.066217 812.109679 812.767048 813.497543
39.690000 811.160521 811.771445 812.400368 812.418383 813.090179 813.782057
39.700000 811.487642 812.080569 812.705304 812.726246 813.360814 814.092093
39.720000 812.120362 812.746465 813.359134 813.381023 814.029228 814.672788
39.730000 812.469799 813.082416 813.690640 813.715093 814.364869 815.060512
39.740000 812.818075 813.412792 814.073040 814.071407 814.705792 815.337073
39.750000 813.258098 813.801658 814.459574 814.463911 815.115429 815.706195
39.760000 813.649732 814.229270 814.860376 814.867765 815.494848 816.142506
39.770000 813.997636 814.619460 815.228888 815.227226 815.848683 816.487060
39.780000 814.382308 814.950817 815.576101 815.572906 816.183633 816.779114
39.790000 814.735947 815.315848 815.926427 815.922552 816.530775 817.145750
39.800000 815.100936 815.649524 816.283082 816.269251 816.848873 817.500127
39.810000 815.441557 815.980822 816.612037 816.602150 817.188114 817.778901
39.820000 815.692667 816.326951 816.909177 816.914408 817.494028 818.087676
39.830000 815.987895 816.651373 817.199615 817.204211 817.809283 818.350776
39.840000 816.276754 816.911357 817.466517 817.477276 818.097496 818.589492
39.850000 816.511780 817.159070 817.754562 817.747766 818.357399 818.821155
39.860000 816.795386 817.425876 818.049962 818.015147 818.595145 819.081419
39.870000 817.099143 817.703534 818.319615 818.280172 818.854330 819.267082
39.880000 817.283363 818.012346 818.600630 818.547967 819.102414 819.488546
39.890000 817.701718 818.319329 818.867639 818.818773 819.320297 819.711423
39.900000 817.980816 818.581683 819.147818 819.088130 819.578275 819.959080
39.910000 818.286407 818.862454 819.383683 819.350018 819.796648 820.228634
39.920000 818.568339 819.148068 819.626515 819.591519 820.029983 820.450332
39.930000 818.813737 819.377971 819.859045 819.818519 820.238177 820.629530
39.940000 819.069464 819.629372 820.071781 820.042162 820.475793 820.826306
39.950000 819.341045 819.866583 820.266301 820.254869 820.664741 821.027336
39.960000 819.575240 820.065142 820.480409 820.465691 820.884404 821.215011
39.970000 819.802314 820.285724 820.690392 820.674454 821.083347 821.429635
39.980000 819.993998 820.501116 820.883225 820.871972 821.285725 821.595097
39.990000 820.218121 820.696139 821.071978 821.064646 821.468173 821.784156
40.000000 820.389499 820.897053 821.268096 821.256988 821.650063 821.948250
40.010000 820.566498 821.098995 821.462431 821.449573 821.831874 822.154045
40.020000 820.819854 821.291918 821.655867 821.644755 822.019492 822.357776
40.030000 821.039467 821.467279 821.853873 821.834453 822.203404 822.545217
40.040000 821.260774 821.668759 822.051749 822.028192 822.392365 822.729221
40.050000 821.460212 821.865681 822.245495 822.220556 822.580182 822.880009
40.060000 821.654341 822.058075 822.434153 822.412009 822.746554 823.062433
40.070000 821.850609 822.266039 822.623183 822.603987 822.931438 823.239270
40.080000 822.079801 822.467571 822.817584 822.796411 823.123863 823.455289
40.090000 822.296435 822.664827 823.014291 822.986145 823.301297 823.624323
40.100000 822.517723 822.866479 823.201285 823.186534 823.501351 823.840082
40.110000 822.732712 823.062365 823.388348 823.379621 823.682109 824.067503
40.120000 822.911004 823.272347 823.573274 823.578801 823.885431 824.287213
40.130000 823.114665 823.465941 823.779850 823.788887 824.098974 824.537928
40.140000 823.322538 823.663449 823.967292 823.988772 824.302141 824.821917
40.150000 823.529399 823.852955 824.171307 824.199457 824.536106 824.998258
40.160000 823.772965 824.076298 824.408090 824.449023 824.837147 825.302728
40.170000 824.030212 824.332416 824.686883 824.744727 825.184825 825.666144
40.190000 824.560368 824.919578 825.545030 825.704577 826.602235 827.610528
40.210000 825.080136 825.566580 826.666504 826.771151 828.002434 828.906516
40.220000 825.319541 825.921445 827.066255 827.147390 828.333871 829.236899
40.230000 825.654127 826.402241 827.470975 827.535290 828.704733 829.488025
40.240000 826.040424 826.845867 827.887351 827.920610 829.063830 829.818581
40.250000 826.402784 827.294308 828.285971 828.315302 829.388316 830.166251
40.260000 826.810803 827.704131 828.742830 828.732877 829.727539 830.519757
40.270000 827.263045 828.183512 829.174812 829.143813 830.114465 830.837502
40.280000 827.826746 828.693252 829.613127 829.591536 830.504974 831.216059
40.290000 828.410621 829.187455 830.112137 830.070000 830.901319 831.745738
40.300000 828.912713 829.678198 830.574297 830.525894 831.295611 832.262678
40.310000 829.343821 830.172060 830.969480 830.952454 831.707824 832.591637
40.320000 829.758491 830.558854 831.365760 831.380334 832.192305 833.184945
40.330000 830.214020 830.991167 831.792489 831.799943 832.574509 833.631124
40.340000 830.626505 831.409488 832.174485 832.203158 833.036051 833.964212
40.350000 831.035465 831.738108 832.536735 832.570633 833.388895 834.404726
40.360000 831.254771 832.062417 832.860626 832.909603 833.771475 834.750683
40.370000 831.628192 832.394630 833.201390 833.258904 834.165994 835.069350
40.380000 831.951899 832.715035 833.519642 833.588964 834.492038 835.404214
40.390000 832.326115 833.017842 833.853023 833.912070 834.817269 835.816415
40.410000 832.883109 833.715345 834.606666 834.631415 835.559069 836.514448
40.420000 833.116027 833.985645 834.965854 834.959574 835.876021 836.871333
40.430000 833.404507 834.303832 835.283811 835.283425 836.214329 837.237374
40.440000 833.743076 834.591245 835.611432 835.625571 836.570954 837.599048
40.460000 834.468191 835.417228 836.375819 836.460314 837.544734 838.966510
40.470000 834.711306 835.733141 836.740060 836.824210 837.966758 839.354597
40.480000 834.902215 836.047508 837.120210 837.187506 838.364852 839.676218
40.490000 835.214254 836.415941 837.511418 837.564369 838.812650 840.006346
40.500000 835.510507 836.715013 837.924202 837.952500 839.285008 840.412977
40.510000 835.818441 837.008512 838.402017 838.339749 839.621014 840.684558
40.520000 836.116490 837.331472 838.866142 838.735727 839.998412 840.928848
40.530000 836.378101 837.767537 839.295950 839.129081 840.351726 841.248506
40.540000 836.726882 838.165907 839.683383 839.486419 840.647863 841.468300
40.550000 837.209025 838.709709 840.011487 839.841600 840.917123 841.742724
40.560000 837.534790 839.109366 840.377277 840.170218 841.184672 841.961853
40.570000 838.009692 839.521516 840.652004 840.497529 841.461053 842.190660
40.580000 838.329546 839.847385 840.959854 840.813004 841.698378 842.494177
40.590000 838.721879 840.232643 841.283311 841.126568 841.981780 842.717875
40.600000 839.044476 840.543223 841.565522 841.426036 842.256591 842.945951
40.610000 839.482855 840.855053 841.831795 841.715224 842.505909 843.154564
40.620000 839.845562 841.166697 842.126863 841.999553 842.763173 843.351472
40.630000 840.322183 841.480949 842.403987 842.273698 843.032223 843.576137
40.640000 840.770721 841.764908 842.642612 842.536965 843.262686 843.770021
40.650000 841.020988 842.061406 842.907276 842.805046 843.513744 843.963086
40.660000 841.428182 842.393651 843.170775 843.069475 843.770430 844.192211
40.670000 841.650793 842.651693 843.436956 843.329069 844.008554 844.438954
40.680000 841.924513 842.934806 843.733137 843.599642 844.252861 844.683796
40.690000 842.147140 843.199358 843.982131 843.854058 844.461109 844.918967
40.700000 842.497205 843.460753 844.220350 844.107851 844.691514 845.158203
40.710000 842.784584 843.718541 844.477488 844.362825 844.942189 845.413726
40.720000 843.169448 843.998823 844.701211 844.617347 845.180220 845.658140
40.730000 843.432331 844.289793 844.946643 844.862727 845.405676 845.877206
40.740000 843.750937 844.547356 845.177420 845.102783 845.622357 846.067998
40.750000 844.004055 844.880459 845.406685 845.346494 845.831749 846.283872
40.760000 844.322877 845.114728 845.637653 845.582574 846.062272 846.474535
40.770000 844.558314 845.357017 845.871469 845.814452 846.279445 846.676953
40.780000 844.927909 845.619117 846.109841 846.063064 846.499519 846.938413
40.790000 845.154547 845.853888 846.325850 846.293339 846.732648 847.155456
40.800000 845.516424 846.152284 846.549265 846.531688 846.950366 847.367823
40.810000 845.824773 846.421081 846.772896 846.770764 847.165290 847.579337
40.820000 846.152855 846.638429 847.006643 847.001964 847.381835 847.793285
40.830000 846.444246 846.893855 847.232196 847.232673 847.581102 847.965650
40.840000 846.708051 847.085352 847.428818 847.437441 847.783687 848.216785
40.850000 846.929393 847.293415 847.619778 847.636980 847.973424 848.427975
40.860000 847.172788 847.508239 847.825429 847.840204 848.178445 848.630735
40.870000 847.364249 847.708237 848.011386 848.038230 848.368498 848.817869
40.880000 847.596010 847.908942 848.210727 848.239800 848.576261 849.034323
40.890000 847.801105 848.096355 848.414031 848.439619 848.786842 849.258581
40.900000 848.045499 848.276877 848.606065 848.640803 848.992578 849.429066
40.910000 848.225620 848.482081 848.824762 848.848459 849.218872 849.626123
40.920000 848.381682 848.672583 849.040714 849.056504 849.421484 849.816991
40.930000 848.584853 848.878886 849.257677 849.262849 849.629154 850.018931
40.940000 848.780080 849.075375 849.459290 849.463084 849.827997 850.220451
40.950000 848.967087 849.286302 849.668564 849.677845 850.050876 850.415872
40.960000 849.196491 849.512796 849.909850 849.903294 850.260234 850.697613
40.970000 849.380398 849.745254 850.154539 850.154877 850.537253 851.027784
40.980000 849.608536 849.986596 850.409594 850.432166 850.846554 851.510749
40.990000 849.893588 850.265519 850.698635 850.754318 851.219993 851.970781
41.000000 850.130451 850.531909 851.015615 851.077118 851.587706 852.354983
41.010000 850.387800 850.839959 851.357028 851.415094 852.004153 852.747856
41.020000 850.722251 851.173517 851.742790 851.794427 852.406404 853.201231
41.030000 851.089277 851.544221 852.155170 852.197249 852.820581 853.633077
41.040000 851.433330 851.953895 852.561976 852.594713 853.205595 853.916547
41.050000 851.824435 852.373529 853.002781 853.024530 853.656213 854.423599
41.060000 852.300550 852.837723 853.446433 853.485122 854.152773 854.876360
41.070000 852.754412 853.361925 854.028223 854.028968 854.684123 855.351712
41.080000 853.139507 853.806919 854.469620 854.479188 855.146541 855.837643
41.090000 853.542065 854.174743 854.892256 854.897084 855.564021 856.346658
41.100000 853.942775 854.558029 855.258978 855.286531 855.998855 856.799924
41.110000 854.243379 854.935737 855.665171 855.679608 856.406636 857.266347
41.120000 854.651087 855.283489 856.059072 856.070373 856.815741 857.660519
41.130000 854.983603 855.636059 856.493843 856.487194 857.320692 858.035580
41.140000 855.296737 856.048202 856.926990 856.915586 857.766062 858.431159
41.150000 855.715133 856.546670 857.428196 857.405903 858.262191 859.001560
41.160000 856.209461 857.129848 857.986330 857.946630 858.762207 859.432488
41.170000 856.672812 857.671443 858.467850 858.458386 859.292556 860.178997
41.180000 857.350479 858.202081 858.991790 858.998655 859.792260 860.569808
41.190000 857.906198 858.639675 859.460374 859.471147 860.332367 861.172363
41.200000 858.275776 859.045431 859.892333 859.946911 860.859220 861.704475
41.210000 858.787040 859.533952 860.411357 860.442185 861.376280 862.229914
41.220000 859.180926 860.001992 860.859376 860.918987 861.902594 862.802247
41.230000 859.542072 860.416695 861.374686 861.406972 862.457930 863.324325
41.240000 859.998550 860.915721 861.937500 861.904449 862.946861 863.634958
41.250000 860.549316 861.394880 862.467211 862.401486 863.373438 864.059823
41.260000 860.940428 861.890523 862.947983 862.854819 863.745591 864.377363
41.270000 861.500219 862.463756 863.383835 863.284934 864.096565 864.653485
41.280000 861.909822 863.036348 863.882090 863.745616 864.460291 864.981527
41.290000 862.269423 863.515344 864.332963 864.187350 864.844132 865.348240
41.310000 863.935633 864.544238 865.013417 864.993076 865.464970 865.835329
41.320000 864.410041 864.919610 865.329729 865.322375 865.743874 866.128387
41.330000 864.821069 865.250232 865.641647 865.636607 866.035994 866.407554
41.340000 865.157060 865.552838 865.945865 865.945279 866.336478 866.698155
41.350000 865.528081 865.924497 866.338407 866.328241 866.712993 867.164449
41.360000 865.881729 866.281684 866.687884 866.686193 867.070805 867.570713
41.370000 866.290324 866.677175 867.088029 867.094249 867.502790 867.970684
41.380000 866.666103 867.036393 867.436299 867.451020 867.852195 868.388325
41.390000 866.972439 867.294531 867.728848 867.734912 868.147335 868.630368
41.400000 867.199956 867.557788 868.000299 868.013118 868.452934 868.929468
41.410000 867.465867 867.830128 868.250512 868.289177 868.742103 869.350144
41.420000 867.710956 868.116750 868.560750 868.590290 869.056629 869.630516
41.430000 867.997895 868.397570 868.866650 868.896377 869.392813 870.001206
41.450000 868.650115 869.136429 869.674619 869.686615 870.248427 870.836136
41.460000 869.045804 869.507452 870.062111 870.084786 870.675753 871.267587
41.470000 869.456670 869.902120 870.503888 870.502255 871.074411 871.562285
