depth(m) lower_95(kyr) lower_68(kyr) median(kyr) mean(kyr) upper_68(kyr) upper_95(kyr)
34.350000 690.392213 695.003535 698.775313 698.661296 702.436880 706.132308
34.465000 693.769388 697.677766 701.116829 701.139006 704.739716 707.681973
34.515000 694.969557 698.806979 702.495174 702.313108 705.747197 708.639084
34.600000 697.508221 700.721038 704.584152 704.264432 707.501303 710.197051
34.650000 698.544253 701.864227 705.952242 705.550570 708.889185 711.123076
34.795000 703.313997 707.141553 710.436636 709.870738 712.508839 713.843749
34.900000 708.602898 712.149428 714.205352 713.767101 715.469634 716.600567
34.975000 711.057973 713.640960 715.455645 715.201045 716.731998 718.006420
35.050000 713.014949 715.038117 716.565837 716.440376 717.871979 719.073186
35.150000 714.722933 716.301749 717.747105 717.693496 719.077726 720.414434
35.265000 716.638575 717.951727 719.255455 719.214753 720.422835 721.798085
35.350000 717.799191 719.091943 720.434216 720.373349 721.552301 722.828835
35.475000 719.564128 720.805399 722.056598 722.075331 723.256375 724.475629
35.550000 720.950887 722.093834 723.261861 723.316827 724.520128 726.080012
35.670000 723.180345 724.252666 725.461690 725.716553 727.335417 729.228514
35.775000 724.959523 726.137468 727.820156 728.103661 730.299853 732.493801
35.850000 726.078627 727.476153 729.541959 729.685630 732.049108 734.032932
35.965000 727.622233 729.412083 731.860524 731.873454 734.259016 736.243083
36.050000 728.878647 730.962420 733.688119 733.574361 736.151169 737.771193
36.150000 730.599654 732.921381 735.678005 735.496735 738.098743 739.433435
36.265000 732.791223 735.383428 737.954916 737.689154 739.960145 741.030182
36.350000 734.840843 737.476093 739.725211 739.438432 741.347496 742.227009
36.400000 736.770758 738.945501 740.900928 740.565702 742.163195 742.978743
36.450000 738.305826 740.238289 742.008245 741.704848 743.016632 743.764946
36.505000 739.952318 742.008552 743.266749 743.034655 744.106062 744.747580
36.550000 741.893143 743.573748 744.484403 744.443127 745.413681 746.372172
36.600000 743.573632 744.557115 745.425172 745.491252 746.526383 747.823744
36.650000 744.379195 745.324514 746.241299 746.346562 747.425310 748.898361
36.700000 745.201118 746.054414 746.987654 747.167840 748.347103 749.916468
36.755000 746.015076 746.841079 747.855556 748.018389 749.237992 751.003713
36.850000 747.172944 748.128203 749.312358 749.426592 750.778441 752.480615
36.950000 748.610978 749.542736 750.845752 750.960319 752.378817 754.198022
37.075000 750.119018 751.391124 752.708861 752.863628 754.453949 756.321592
37.150000 751.242428 752.483729 753.793734 753.985234 755.615976 757.537258
37.260000 753.067728 754.128257 755.418558 755.663726 757.293316 759.246134
37.350000 754.347902 755.683531 757.184961 757.380065 758.993200 761.444781
37.455000 756.735385 758.205517 760.332896 760.583621 762.956155 765.480963
37.560000 758.433793 760.430323 763.406496 763.400655 766.383395 768.285170
37.650000 760.584046 763.464801 766.775667 766.360834 769.066921 770.667883
37.750000 764.469445 767.941533 770.670928 770.480252 772.828973 775.064013
37.850000 769.132107 771.497062 773.690937 773.762479 776.119550 778.430969
37.945000 772.042410 774.118495 776.282794 776.380305 778.624143 781.025318
38.055000 774.665611 776.833201 779.157735 779.103667 781.406282 783.351156
38.150000 777.000028 779.319358 781.427803 781.370436 783.586097 785.216464
38.255000 779.709165 782.012387 784.061425 783.849850 785.612578 786.877505
38.350000 782.496981 784.888721 786.602915 786.340056 787.737175 788.771898
38.450000 787.915384 789.131337 790.039210 789.999520 790.919014 791.678869
38.555000 791.336193 792.240710 792.987339 793.211445 794.124714 796.752215
38.655000 793.193169 794.157854 795.399376 795.716254 797.464232 799.398015
38.760000 794.733563 795.832882 797.932095 798.081461 800.289051 802.205728
38.845000 795.908615 797.218118 799.686859 799.746654 802.218035 804.284585
38.982000 797.892098 799.568751 802.383527 802.610552 805.373790 808.820613
39.119000 799.966388 802.143691 805.269396 805.472279 808.753316 812.625448
39.256000 801.963860 804.596938 808.160321 808.394807 812.186765 816.281999
39.393000 804.203552 807.276253 810.965961 811.257923 815.256824 819.744184
39.530000 806.663049 809.965717 813.842728 814.112041 818.242423 823.161563
39.667000 808.995570 812.478330 816.695981 816.889031 821.142972 826.005495
39.804000 811.696409 815.298021 819.603086 819.776070 824.048865 828.884909
39.941000 814.171511 818.350573 822.575497 822.576599 826.914758 831.894029
40.078000 816.783297 820.835623 825.350210 825.353179 829.759452 834.869816
40.215000 819.450358 823.605713 827.974132 828.097093 832.395109 837.701502
40.352000 822.243953 826.219029 830.685115 830.833572 835.308303 841.026960
40.489000 825.212487 829.109337 833.570624 833.632538 837.978979 844.359409
40.626000 828.052228 832.066770 836.211417 836.470835 840.522906 847.304261
40.763000 831.101397 835.597539 839.300624 839.495237 843.171924 849.828003
40.900000 836.071235 839.601993 842.463323 842.758965 845.508263 852.054300
41.010000 840.629849 843.066564 845.834865 846.076976 848.527663 853.905116
41.100000 842.975070 846.096852 849.195245 849.057407 851.548649 855.374681
41.150000 844.072379 847.531983 851.153266 850.738030 853.048315 856.234259
41.235000 846.414239 851.322836 853.852748 853.488592 855.774223 858.183680
41.310000 849.251933 854.313147 856.294565 856.077899 858.194368 860.080987
41.400000 855.311627 857.762243 859.373515 859.273568 861.107150 862.361898
41.505000 859.211980 861.040388 862.628256 862.549127 863.966665 865.549661
41.600000 866.504094 867.573330 868.770097 868.813914 870.070756 871.358261
41.650000 867.979284 868.939703 870.106741 870.173905 871.442918 872.613352
41.700000 868.894815 869.703406 870.816321 870.954205 872.172797 873.594155
41.765000 869.909174 870.746235 871.869216 871.980351 873.188235 874.661266
41.805000 870.640897 871.442472 872.542549 872.669048 873.872821 875.523983
41.880000 871.667480 872.527829 873.712197 873.814671 874.972187 876.808104
41.955000 872.662870 873.650402 874.868593 874.932842 876.138062 877.747692
42.055000 873.970636 875.141256 876.296029 876.430844 877.693921 879.375539
42.100000 874.749968 875.847821 877.034728 877.171075 878.440828 880.200420
42.150000 875.468513 876.669434 877.924473 878.047905 879.440035 881.128075
42.260000 877.042311 878.377613 879.833997 880.004106 881.736061 883.824105
42.350000 878.376420 879.772199 881.325183 881.588009 883.493544 885.863704
42.450000 879.697153 881.193025 883.102505 883.335841 885.622996 887.876933
42.550000 881.417048 882.912330 885.139710 885.284078 887.802546 889.727036
42.650000 882.898573 884.713348 887.500181 887.343417 889.872102 891.247422
42.700000 883.734830 885.836886 888.768662 888.469403 890.891690 892.192411
42.755000 884.834207 887.262426 890.066977 889.740414 891.956998 893.505283
42.845000 886.864743 890.043500 892.361339 892.128115 894.187036 896.018549
42.945000 891.008816 893.425402 895.661905 895.601920 897.742059 900.568579
43.060000 894.023464 896.240118 899.081318 899.172308 902.245963 904.916217
43.145000 895.563430 897.937070 901.327295 901.325817 904.695287 906.788729
43.265000 897.760549 900.846978 904.647340 904.141948 907.094723 908.900743
43.350000 899.345036 903.030112 906.870530 906.128625 908.736696 910.361310
43.460000 902.019625 906.077495 909.191406 908.603032 910.855723 912.443356
43.560000 905.311015 909.177461 911.190706 910.917361 912.897299 914.132383
43.600000 906.610618 910.430063 912.087000 911.887028 913.764021 914.822357
43.650000 908.455939 911.718855 913.275034 913.059081 914.681912 915.657910
43.755000 912.264879 914.253584 915.563541 915.368013 916.554094 917.366051
43.850000 915.572457 916.701575 917.712227 917.688209 918.660094 919.737778
43.950000 917.364776 918.384847 919.377111 919.451554 920.599257 921.859729
44.050000 918.687261 919.728071 920.930887 920.998433 922.282478 923.689121
44.150000 920.096521 921.251712 922.402571 922.493579 923.728008 925.329618
44.250000 921.689496 922.891363 924.119638 924.221470 925.534021 927.359142
44.350000 923.503829 924.723935 926.118260 926.361642 928.172596 930.351364
44.400000 924.785608 925.982046 927.677951 927.929391 930.083288 932.118810
44.450000 926.119298 927.397336 929.483927 929.626787 931.923491 933.660513
44.550000 928.345658 930.207665 932.834418 932.648382 934.871189 936.740676
44.650000 930.201650 932.608211 935.004516 934.835040 936.983040 938.636724
44.765000 932.675308 935.024750 937.219869 937.142174 939.194564 941.362759
44.850000 934.340074 936.825059 938.868614 938.795047 940.845153 942.870869
44.960000 937.311381 939.320149 941.328687 941.303077 943.258060 945.347423
45.055000 939.219377 941.379247 943.310073 943.356879 945.335392 947.535563
45.150000 941.438200 943.577890 945.297230 945.437746 947.240039 950.223052
45.250000 943.382179 945.851585 947.721195 947.921926 950.165005 952.537824
45.325000 945.299893 947.509658 949.599623 949.750364 952.385946 954.078140
45.400000 947.117877 949.148236 951.582102 951.561988 954.129378 955.510407
45.500000 949.813046 951.692412 954.115694 953.876693 955.891960 956.901582
45.620000 953.384781 955.986303 957.350912 956.986406 957.932192 958.473995
45.670000 955.739584 957.695664 958.329292 958.174912 958.768064 959.198346
45.700000 956.666395 958.279485 958.818557 958.696784 959.264926 959.698779
45.800000 958.924420 959.536872 960.098037 960.152152 960.752798 961.625132
45.875000 960.063799 960.750515 961.403595 961.602358 962.509437 964.201692
45.950000 961.400829 962.044578 962.815145 963.098012 964.371412 965.853682
46.045000 962.736831 963.651101 964.864881 965.096286 966.594901 968.236109
46.122500 964.171222 965.095432 966.852006 966.928285 968.524625 970.541457
46.200000 965.823869 967.188693 968.958104 968.933984 970.584129 972.393475
46.300000 968.164680 969.934971 971.642976 971.697294 973.554980 975.411125
46.375000 969.841338 971.539618 973.468971 973.471770 975.363132 977.310810
46.450000 971.401360 973.080925 975.092071 975.012324 976.860045 978.664831
46.550000 973.213757 975.050610 977.077306 976.950516 978.745461 980.275824
46.625000 974.542863 976.710078 978.601366 978.430737 980.128917 981.368498
46.700000 976.085431 978.370346 980.059145 979.907280 981.406109 982.592877
46.820000 978.886059 980.959373 982.394449 982.380415 983.722194 985.901812
46.950000 981.689321 983.209135 984.695899 984.819183 986.363594 989.121409
47.050000 983.463485 985.125382 986.662936 986.825960 988.615708 991.149306
47.150000 985.426722 987.206900 988.926280 989.139996 991.231306 993.480745
47.250000 987.591757 989.349910 991.460821 991.506858 993.743855 995.246963
47.365000 990.024866 992.108387 994.738314 994.438324 996.531027 997.776741
47.457500 991.781264 993.992775 996.641096 996.261541 998.167107 999.212175
47.550000 993.241122 996.020565 998.402835 997.982650 999.576930 1000.691357
47.665000 995.458548 998.706816 1000.406435 1000.095821 1001.418481 1002.601995
47.750000 997.457528 1000.321969 1001.784656 1001.686924 1003.028133 1005.312519
47.865000 1000.429938 1001.843158 1003.166481 1003.480480 1005.210509 1008.106774
47.950000 1002.375131 1003.332781 1004.436075 1004.881006 1006.542032 1009.992740
48.050000 1003.769586 1004.851554 1005.987558 1006.509349 1008.231162 1011.986593
48.125000 1005.105549 1006.085352 1007.328308 1007.875874 1009.791356 1013.830109
48.250000 1006.731163 1007.782318 1009.264959 1009.892199 1012.127646 1016.542887
48.370000 1008.420815 1009.527928 1011.267949 1012.007383 1014.582221 1019.054882
48.450000 1009.722695 1011.125706 1013.049070 1013.815910 1017.245451 1020.888702
48.545000 1011.510565 1013.371796 1015.976221 1016.633647 1020.513808 1023.680560
48.640000 1013.337305 1015.484497 1018.692224 1019.122588 1023.005192 1026.099914
48.760000 1015.708399 1018.331562 1022.637632 1022.510719 1026.487996 1028.496201
48.870000 1017.723303 1021.408367 1026.412191 1025.437133 1028.646307 1030.183382
49.000000 1021.935148 1026.931969 1029.377984 1028.809646 1030.767332 1031.931690
49.095000 1025.458475 1029.868037 1031.276752 1031.016683 1032.518528 1033.845877
49.205000 1030.346479 1031.806755 1032.996167 1032.986330 1034.213625 1035.864192
49.300000 1032.326907 1033.350348 1034.616798 1034.771661 1036.103098 1038.509324
49.400000 1033.805303 1034.916638 1036.323107 1036.597950 1038.220186 1041.089866
49.500000 1035.312722 1036.494727 1038.172359 1038.477967 1040.585735 1042.938772
49.575000 1036.353213 1037.910517 1039.597551 1039.918198 1042.218184 1044.394241
49.650000 1037.358238 1039.205990 1041.167534 1041.333015 1043.634868 1045.821215
49.760000 1039.020865 1041.006489 1043.319044 1043.347649 1045.774490 1047.769403
49.840000 1040.713303 1042.482564 1044.843178 1044.820213 1047.200423 1048.852531
49.900000 1041.844526 1043.589772 1046.049810 1045.954587 1048.199289 1049.860129
50.010000 1043.784090 1045.683752 1048.103110 1047.937613 1050.003797 1051.791752
50.100000 1045.596841 1047.451137 1049.743066 1049.546911 1051.533089 1053.223047
50.200000 1047.413183 1049.380078 1051.380442 1051.330604 1053.213695 1054.920660
50.300000 1049.176903 1051.313142 1053.201219 1053.082302 1054.878969 1056.530360
50.400000 1050.921933 1053.119337 1054.909246 1054.854326 1056.582100 1057.943850
50.505000 1053.332184 1055.309807 1057.045761 1056.926241 1058.464379 1059.967968
50.600000 1056.249469 1058.015742 1059.449098 1059.464400 1060.966371 1062.611986
50.700000 1059.382928 1061.108787 1062.669221 1062.614374 1064.102936 1065.565628
50.800000 1063.611846 1064.804635 1066.069047 1066.256812 1067.696298 1070.078560
50.850000 1065.098150 1066.118909 1067.384231 1067.628377 1069.187170 1071.482208
50.900000 1065.981876 1067.055848 1068.514004 1068.734927 1070.578777 1072.438103
50.950000 1066.939581 1068.001218 1069.551556 1069.762606 1071.797149 1073.341650
51.000000 1067.950572 1068.926254 1070.606803 1070.794103 1072.833922 1074.218197
51.050000 1068.776320 1069.849298 1071.847635 1071.813936 1073.783590 1075.086549
51.100000 1069.675515 1070.947257 1072.917869 1072.868270 1074.739685 1076.062171
51.210000 1071.736485 1073.598956 1075.256201 1075.267393 1076.952522 1078.692596
51.315000 1074.860579 1076.605310 1078.383284 1078.487320 1080.424977 1082.990617
51.410000 1076.882409 1078.857528 1081.168159 1081.236545 1083.582086 1086.227251
51.505000 1079.310069 1081.822420 1084.472942 1084.532868 1087.261067 1089.862078
51.600000 1082.521298 1085.173063 1088.154084 1087.892456 1090.621542 1092.298256
51.700000 1085.669970 1088.788967 1091.310554 1090.998591 1093.117905 1094.665414
51.800000 1088.623092 1091.418844 1093.688393 1093.340298 1095.079327 1096.434964
51.900000 1091.341431 1093.909567 1095.578238 1095.389125 1096.846170 1098.149406
52.025000 1093.836173 1096.132376 1097.511629 1097.400855 1098.792059 1099.938037
52.150000 1096.620447 1098.232221 1099.452876 1099.389781 1100.584065 1101.737193
52.250000 1098.727004 1100.119587 1101.287498 1101.220240 1102.364008 1103.252532
52.350000 1101.220119 1102.336469 1103.339609 1103.328610 1104.274970 1105.416369
52.450000 1103.532967 1104.508317 1105.566727 1105.648272 1106.791499 1108.193852
52.555000 1105.492475 1106.715248 1107.979420 1107.945653 1109.170265 1110.392274
52.655000 1107.225971 1108.948074 1110.353341 1110.254777 1111.542881 1112.786480
52.750000 1109.983120 1111.406332 1112.636787 1112.724225 1114.203914 1115.581262
52.855000 1112.991649 1114.200950 1115.652343 1115.761900 1117.398282 1118.900294
52.960000 1115.347241 1116.821041 1118.508122 1118.446247 1120.029668 1121.196674
53.065000 1117.560174 1119.540587 1121.136418 1121.240888 1122.840124 1126.064224
53.150000 1119.516286 1121.336934 1122.811449 1123.165243 1125.358424 1127.892755
53.250000 1121.586158 1123.254612 1124.863319 1125.167478 1127.323794 1129.717876
53.350000 1123.576794 1125.309642 1126.992034 1127.177261 1129.157546 1131.480673
53.460000 1125.986406 1127.558208 1129.414397 1129.444103 1131.319722 1133.265021
53.565000 1127.863628 1129.539116 1131.423342 1131.485139 1133.399848 1135.794561
53.650000 1129.399845 1131.214238 1133.169299 1133.261819 1135.131280 1138.500166
53.765000 1131.707443 1133.702683 1135.699898 1136.047320 1138.375670 1142.617788
53.850000 1133.844613 1136.611269 1138.587471 1138.979505 1141.723720 1145.330383
53.950000 1136.141706 1139.422710 1141.716230 1142.035435 1145.576475 1148.068449
54.065000 1138.935990 1142.858116 1145.679760 1145.950146 1149.410970 1152.472149
54.145000 1141.434855 1145.257975 1148.676733 1148.540481 1151.932085 1154.716766
54.260000 1145.790877 1149.036384 1152.178127 1152.119227 1155.257535 1157.389570
54.350000 1148.771884 1151.663473 1154.881417 1154.688999 1157.576704 1159.789684
54.450000 1151.568330 1154.352670 1157.371824 1157.155004 1159.858963 1161.846067
54.560000 1153.538245 1157.007301 1159.829216 1159.528664 1161.938611 1163.767288
54.650000 1155.464771 1158.712940 1161.744983 1161.303941 1163.585018 1165.209749
54.750000 1157.341053 1160.870641 1163.839902 1163.351127 1165.557653 1167.116711
54.850000 1158.960185 1162.749599 1165.669476 1165.210998 1167.348718 1168.740052
54.970000 1160.987088 1165.047146 1167.764206 1167.312233 1169.388911 1171.194601
55.060000 1162.534004 1166.847496 1169.270326 1168.937035 1171.070833 1173.100952
55.140000 1163.759112 1168.263678 1170.719251 1170.417198 1172.573978 1174.744838
55.270000 1165.797426 1170.530187 1172.925370 1172.623160 1174.925509 1177.000954
55.350000 1166.953744 1172.082111 1174.285578 1174.055006 1176.386816 1178.363106
55.450000 1168.595699 1173.906387 1176.074349 1175.805431 1178.042322 1179.747615
55.540000 1170.178337 1175.609037 1177.693865 1177.396832 1179.621582 1181.304469
55.650000 1172.482313 1177.536303 1179.616640 1179.366513 1181.569906 1183.554221
55.770000 1175.252570 1179.572549 1181.754814 1181.550832 1183.866797 1185.505369
55.850000 1177.381949 1181.109268 1183.250790 1183.085963 1185.353876 1187.021331
55.950000 1180.311860 1183.089154 1185.250435 1185.104273 1187.296501 1188.620971
56.025000 1182.178842 1184.846877 1186.854544 1186.718993 1188.736260 1189.989502
56.100000 1184.482806 1186.953950 1188.849557 1188.594239 1190.313245 1191.299503
56.200000 1190.825377 1191.891804 1192.846018 1192.960443 1194.097610 1195.731322
56.320000 1192.981383 1193.898544 1195.067078 1195.236262 1196.396951 1198.723720
56.395000 1194.154768 1195.169396 1196.387429 1196.587415 1197.959439 1200.414405
56.505000 1195.895762 1196.960309 1198.299885 1198.564284 1200.140857 1202.621683
56.600000 1197.323993 1198.411722 1199.982098 1200.251851 1202.125669 1204.416684
56.700000 1198.723214 1200.015449 1201.865860 1202.103739 1204.298824 1206.255098
56.770000 1199.881377 1201.423722 1203.321523 1203.548144 1205.886328 1208.007047
