depth(m) lower_95(kyr) lower_68(kyr) median(kyr) mean(kyr) upper_68(kyr) upper_95(kyr)
549.800000 1736.721697 1739.313805 1741.713230 1741.448227 1743.318802 1745.598194
549.925000 1737.178678 1739.789746 1742.208158 1741.936972 1743.769248 1745.870386
550.050000 1737.884746 1740.348062 1742.708797 1742.442850 1744.197790 1746.364322
550.175000 1738.816698 1740.861327 1743.226083 1742.954566 1744.640560 1746.821349
550.300000 1739.427201 1741.438163 1743.702893 1743.488116 1745.143068 1747.410820
550.435000 1740.051938 1742.174888 1744.295419 1744.098397 1745.712295 1747.940097
550.570000 1740.752930 1742.892381 1744.903878 1744.740781 1746.276492 1748.517421
550.685000 1741.282470 1743.440074 1745.389880 1745.254125 1746.745968 1749.056276
550.800000 1741.945694 1744.039066 1745.903959 1745.763083 1747.269526 1749.499534
550.920000 1742.368107 1744.730661 1746.432750 1746.304118 1747.850152 1749.958856
551.040000 1742.818339 1745.246113 1746.951440 1746.833800 1748.360736 1750.314655
551.170000 1743.365631 1745.907800 1747.502619 1747.421939 1748.959022 1750.770623
551.300000 1744.012209 1746.583166 1748.089399 1748.015522 1749.479734 1751.234587
551.425000 1744.401957 1747.194349 1748.659366 1748.576334 1749.995350 1751.803428
551.550000 1744.899322 1747.770526 1749.302401 1749.177213 1750.580159 1752.299939
551.675000 1745.592402 1748.402434 1749.880008 1749.763010 1751.258078 1753.129091
551.800000 1746.060841 1748.902421 1750.409377 1750.342415 1751.945971 1753.711280
551.925000 1746.755355 1749.483781 1750.943894 1750.923407 1752.502097 1754.162846
552.050000 1747.464913 1750.009471 1751.459619 1751.466448 1753.111301 1754.875596
552.175000 1748.273612 1750.644127 1752.061430 1752.100474 1753.663251 1755.506772
552.300000 1748.908819 1751.247252 1752.714212 1752.736195 1754.326920 1756.111892
552.425000 1749.892913 1751.874983 1753.431884 1753.421871 1755.073066 1756.728076
552.550000 1750.534159 1752.389432 1754.159777 1754.106322 1755.749155 1757.484952
552.675000 1751.384139 1753.061583 1754.878534 1754.848099 1756.639772 1758.386837
552.800000 1752.015035 1753.861065 1755.580979 1755.559890 1757.389122 1759.029365
552.925000 1752.452352 1754.521608 1756.347953 1756.276409 1758.025355 1759.948478
553.050000 1753.010400 1755.223059 1757.000905 1756.969818 1758.738831 1760.697047
553.175000 1753.541846 1755.798591 1757.659211 1757.653576 1759.422819 1761.538700
553.300000 1753.933629 1756.408084 1758.315180 1758.283867 1760.188224 1762.380694
553.425000 1754.335144 1756.907330 1758.823595 1758.840991 1760.868980 1762.912555
553.550000 1754.693556 1757.465410 1759.369704 1759.399335 1761.479558 1763.404111
553.675000 1755.206670 1757.982231 1759.871273 1759.940629 1762.113813 1763.909472
553.800000 1755.726104 1758.396988 1760.350517 1760.449102 1762.586849 1764.361152
553.925000 1756.112148 1758.938154 1760.823406 1760.932471 1763.075336 1764.774931
554.050000 1756.673292 1759.501169 1761.291367 1761.394653 1763.710241 1765.159715
554.175000 1757.186737 1759.957493 1761.709950 1761.841369 1764.264404 1765.562162
554.300000 1757.653274 1760.412919 1762.235822 1762.298585 1764.766149 1765.973399
554.425000 1758.011599 1760.913692 1762.804099 1762.739814 1765.205895 1766.312328
554.550000 1758.409679 1761.231616 1763.280207 1763.156838 1765.564322 1766.701671
554.688889 1758.855992 1761.655164 1763.814947 1763.601046 1765.932942 1767.036007
554.827778 1759.347515 1762.071893 1764.354940 1764.049396 1766.280331 1767.358625
554.966667 1759.796631 1762.458561 1764.884739 1764.503197 1766.674721 1767.732082
555.105556 1760.171631 1762.867500 1765.421630 1764.947199 1767.050948 1768.080144
555.244444 1760.523697 1763.243683 1765.910129 1765.375435 1767.410225 1768.441221
555.383333 1760.872594 1763.627800 1766.479734 1765.814475 1767.774767 1768.874905
555.522222 1761.183377 1763.984037 1766.941486 1766.241561 1768.180471 1769.280196
555.661111 1761.567242 1764.338611 1767.391302 1766.655322 1768.529334 1769.688987
555.800000 1762.032696 1764.670355 1767.824196 1767.085752 1768.906403 1770.102937
555.925000 1762.326067 1765.046827 1768.267290 1767.468538 1769.254752 1770.539389
556.050000 1762.736867 1765.431645 1768.638243 1767.838316 1769.589556 1770.978339
556.175000 1763.127711 1765.759075 1769.002258 1768.206317 1769.951419 1771.537997
556.300000 1763.452666 1766.119230 1769.364151 1768.576263 1770.309505 1771.932870
556.425000 1763.753414 1766.496111 1769.732985 1768.951499 1770.631613 1772.439403
556.550000 1764.010302 1766.842839 1770.076297 1769.331478 1770.969777 1772.950438
556.675000 1764.343138 1767.220550 1770.430542 1769.693735 1771.273126 1773.335637
556.800000 1764.583757 1767.645466 1770.738776 1770.054443 1771.576463 1773.746457
556.925000 1764.944032 1768.048689 1771.051167 1770.417653 1771.922792 1774.139464
557.050000 1765.350262 1768.451736 1771.357476 1770.763564 1772.221097 1774.479140
557.190000 1765.716636 1768.911213 1771.702640 1771.174669 1772.576352 1774.855031
557.330000 1766.130747 1769.533906 1772.044856 1771.580133 1772.948807 1775.174341
557.440000 1766.625547 1769.862897 1772.329203 1771.902913 1773.257518 1775.523555
557.550000 1766.898892 1770.349030 1772.617013 1772.222558 1773.529267 1775.808190
557.680000 1767.206140 1770.784789 1772.955515 1772.594375 1773.880370 1776.109789
557.810000 1767.514891 1771.311642 1773.297242 1772.951232 1774.211944 1776.382119
557.954545 1768.058736 1771.798639 1773.681099 1773.353822 1774.593976 1776.735125
558.099091 1768.593776 1772.295091 1774.026698 1773.764457 1775.013892 1777.129608
558.243636 1769.124214 1772.816367 1774.405365 1774.172846 1775.402250 1777.506464
558.388182 1769.673640 1773.335640 1774.778465 1774.577240 1775.813851 1777.911803
558.532727 1770.403091 1773.896113 1775.133481 1774.986230 1776.231716 1778.504604
558.677273 1770.964170 1774.279059 1775.510342 1775.384675 1776.645100 1778.913330
558.821818 1771.420101 1774.674165 1775.905741 1775.780852 1777.049772 1779.320026
558.966364 1771.685104 1775.068352 1776.310696 1776.182441 1777.462123 1779.676431
559.110909 1772.020111 1775.467349 1776.723423 1776.575274 1777.844687 1779.965395
559.255455 1772.617625 1775.862836 1777.159808 1776.990016 1778.267148 1780.379278
559.400000 1773.176109 1776.258211 1777.561242 1777.402342 1778.673896 1780.719099
559.525000 1773.598074 1776.588293 1777.940355 1777.775096 1779.140805 1781.012171
559.650000 1773.950101 1776.891684 1778.313865 1778.149738 1779.508654 1781.315229
559.775000 1774.342956 1777.266320 1778.693201 1778.534060 1779.863811 1781.612719
559.900000 1774.829798 1777.645160 1779.100747 1778.933237 1780.255991 1781.986010
560.025000 1775.437503 1778.044628 1779.516697 1779.345803 1780.621732 1782.361489
560.150000 1775.946964 1778.432785 1779.940753 1779.763567 1781.088831 1782.688518
560.275000 1776.570949 1778.823219 1780.360110 1780.186581 1781.457668 1783.009767
560.400000 1776.935617 1779.326151 1780.736353 1780.620926 1781.877726 1783.333535
560.525000 1777.443501 1779.826223 1781.133037 1781.057407 1782.283969 1783.712482
560.650000 1778.252302 1780.281733 1781.558662 1781.484610 1782.658018 1784.170412
560.775000 1778.997220 1780.783385 1781.983358 1781.933495 1783.057850 1784.723596
560.900000 1779.463841 1781.252726 1782.403702 1782.367523 1783.447695 1785.194648
561.025000 1780.068608 1781.741901 1782.829689 1782.800351 1783.851675 1785.731558
561.150000 1780.555975 1782.218931 1783.267924 1783.223563 1784.253411 1786.124350
561.275000 1780.918379 1782.648573 1783.665536 1783.640287 1784.622717 1786.620108
561.400000 1781.485968 1783.073552 1784.070891 1784.063127 1784.955171 1787.049040
561.525000 1782.098893 1783.438410 1784.475865 1784.473333 1785.347352 1787.504365
561.650000 1782.600375 1783.845776 1784.843066 1784.866523 1785.690199 1788.108278
561.775000 1783.272734 1784.276534 1785.222361 1785.261639 1786.010288 1788.508816
561.900000 1783.728538 1784.706098 1785.614434 1785.649517 1786.317808 1789.008756
562.025000 1784.131763 1785.103121 1785.983327 1786.023741 1786.631752 1789.304928
562.150000 1784.494285 1785.535811 1786.353827 1786.398603 1786.970280 1789.682905
562.275000 1784.958491 1785.901684 1786.714877 1786.761767 1787.293909 1790.092816
562.400000 1785.434198 1786.303181 1787.049821 1787.123472 1787.611941 1790.432164
562.525000 1785.788319 1786.675637 1787.369959 1787.465601 1787.905548 1790.806136
562.650000 1786.186835 1787.057166 1787.704908 1787.815948 1788.219690 1791.167734
562.775000 1786.561807 1787.459231 1788.011078 1788.147520 1788.497215 1791.543410
562.900000 1786.962724 1787.799996 1788.312635 1788.468621 1788.780432 1791.839307
563.025000 1787.299979 1788.164646 1788.629847 1788.788267 1789.072906 1792.138564
563.150000 1787.686862 1788.500752 1788.937690 1789.110438 1789.368567 1792.424348
563.275000 1788.067247 1788.823816 1789.242105 1789.425121 1789.650382 1792.756280
563.400000 1788.501826 1789.160510 1789.539433 1789.737285 1789.934759 1793.090137
563.500000 1788.868191 1789.418555 1789.782154 1789.990054 1790.175197 1793.311404
563.600000 1789.191485 1789.673859 1790.017729 1790.238165 1790.422441 1793.520497
563.700000 1789.507566 1789.929061 1790.274910 1790.491987 1790.662243 1793.818835
563.800000 1789.724517 1790.196353 1790.524308 1790.745584 1790.915483 1794.016745
563.900000 1790.016201 1790.448899 1790.756211 1790.991309 1791.158012 1794.305411
564.025000 1790.324039 1790.739782 1791.060746 1791.296990 1791.463249 1794.543548
564.150000 1790.623956 1791.044149 1791.348829 1791.598729 1791.755344 1794.877350
564.275000 1790.950696 1791.349989 1791.643406 1791.901153 1792.042829 1795.224394
564.400000 1791.281562 1791.636676 1791.928617 1792.196871 1792.348859 1795.577737
564.525000 1791.591510 1791.920692 1792.219262 1792.496183 1792.637240 1795.883175
564.650000 1791.930234 1792.207849 1792.522761 1792.799900 1792.954547 1796.170433
564.775000 1792.230983 1792.505787 1792.803924 1793.098791 1793.293839 1796.457640
564.900000 1792.516662 1792.801256 1793.095527 1793.393254 1793.618650 1796.759673
565.025000 1792.801627 1793.094650 1793.380322 1793.691091 1793.891515 1797.084450
565.150000 1793.098288 1793.371049 1793.684442 1793.989297 1794.189641 1797.361748
565.275000 1793.385042 1793.658669 1793.989770 1794.292993 1794.536566 1797.734583
565.400000 1793.658218 1793.956226 1794.270046 1794.589389 1794.849387 1798.043163
565.525000 1793.956101 1794.260227 1794.567233 1794.892216 1795.140978 1798.351825
565.650000 1794.254703 1794.551220 1794.869808 1795.197660 1795.476015 1798.674045
565.775000 1794.517987 1794.841900 1795.170413 1795.501478 1795.828039 1798.987081
565.900000 1794.826576 1795.149415 1795.476563 1795.810519 1796.190133 1799.306057
566.025000 1795.097357 1795.438758 1795.771059 1796.121460 1796.555757 1799.563850
566.150000 1795.356288 1795.745917 1796.090756 1796.454291 1796.970082 1799.924888
566.275000 1795.710487 1796.060994 1796.414328 1796.787580 1797.398940 1800.308916
566.400000 1796.028219 1796.390699 1796.727289 1797.128755 1797.708471 1800.618140
566.515000 1796.349944 1796.675815 1797.043531 1797.454891 1798.096544 1801.090795
566.630000 1796.667424 1797.008836 1797.372440 1797.802504 1798.512085 1801.467192
566.650000 1796.738699 1797.070168 1797.448697 1797.877235 1798.562635 1801.528815
566.775000 1797.121891 1797.476734 1797.959680 1798.460621 1799.445044 1802.518388
566.900000 1797.485740 1797.896333 1798.614489 1799.143424 1800.503063 1803.557693
567.025000 1797.799266 1798.365509 1799.499152 1799.966357 1801.657013 1804.606390
567.150000 1798.153582 1798.855863 1800.372450 1800.787165 1802.697641 1805.856282
567.294615 1798.434412 1799.727190 1801.831337 1802.083754 1804.437260 1807.511648
567.439231 1798.683286 1800.642614 1803.293809 1803.432249 1806.004029 1809.024279
567.583846 1798.932962 1801.751761 1804.827439 1804.820731 1807.675431 1810.932929
567.728462 1799.184955 1802.985791 1806.369447 1806.222346 1809.330406 1812.965847
567.873077 1799.582554 1804.243185 1807.853059 1807.699033 1811.110194 1814.664815
568.017692 1799.838205 1805.284188 1809.431880 1809.097388 1812.780242 1816.348137
568.162308 1800.158083 1806.644186 1810.993191 1810.567460 1814.548892 1818.436815
568.306923 1800.446347 1807.918132 1812.458758 1812.033641 1816.421926 1820.285363
568.451538 1800.714034 1809.312015 1813.977297 1813.436802 1817.875772 1821.995897
568.596154 1801.042244 1810.637945 1815.421745 1814.794511 1819.474815 1823.642176
568.740769 1801.347681 1811.994654 1817.069108 1816.185713 1821.066045 1825.514850
568.885385 1801.726211 1813.205317 1818.438339 1817.595754 1822.665552 1827.063980
569.030000 1802.062242 1814.489408 1820.141322 1818.891730 1823.927062 1829.336718
569.140000 1802.287537 1815.148505 1820.832603 1819.638256 1824.734245 1830.144794
569.250000 1802.583641 1815.800498 1821.599645 1820.396234 1825.660204 1831.142061
569.375000 1802.851516 1816.741243 1822.314341 1821.194099 1826.724009 1832.070621
569.500000 1803.135249 1817.387811 1823.230525 1821.924071 1827.456579 1832.994921
569.625000 1803.488984 1818.052793 1823.939356 1822.620017 1828.099133 1834.025838
569.750000 1803.768424 1818.793295 1824.643214 1823.292630 1828.798370 1834.780269
569.875000 1804.161468 1819.286559 1825.217383 1823.935540 1829.431452 1835.437446
570.000000 1804.486786 1819.790268 1825.825686 1824.544068 1829.969268 1835.938896
570.125000 1804.748297 1820.273908 1826.410639 1825.101741 1830.414329 1836.282545
570.250000 1805.099515 1820.628959 1827.139704 1825.673044 1830.825860 1836.566587
570.375000 1805.439810 1821.032674 1827.715652 1826.258544 1831.309407 1836.954684
570.500000 1805.810234 1821.476250 1828.408912 1826.833789 1831.850457 1837.482376
570.625000 1806.136117 1821.911147 1828.999276 1827.390342 1832.288801 1837.841873
570.750000 1806.471791 1822.266212 1829.652288 1827.938090 1832.821204 1838.167580
570.875000 1806.733696 1822.597730 1830.229649 1828.482704 1833.381935 1838.478642
571.000000 1807.101366 1823.024740 1830.784155 1829.024279 1833.882849 1838.843979
571.125000 1807.448705 1823.350089 1831.306428 1829.575126 1834.473868 1839.237900
571.250000 1807.874750 1823.840329 1831.814948 1830.125039 1835.048108 1839.765220
571.375000 1808.203161 1824.303826 1832.311388 1830.677546 1835.671609 1840.127894
571.500000 1808.533653 1824.747848 1832.814568 1831.223415 1836.201079 1840.459387
571.600000 1808.806935 1825.220654 1833.220150 1831.640995 1836.698106 1840.735465
571.700000 1809.085729 1825.707986 1833.655557 1832.083837 1837.150644 1841.366391
571.800000 1809.374843 1826.204381 1834.105911 1832.515920 1837.554561 1841.923323
571.900000 1809.674715 1826.729035 1834.520349 1832.962876 1838.037935 1842.114909
572.000000 1809.943473 1827.073047 1834.905333 1833.419745 1838.410622 1842.765614
572.125000 1810.281422 1827.559524 1835.376596 1833.992910 1839.038758 1843.144395
572.250000 1810.702428 1828.133252 1835.865756 1834.562116 1839.555849 1843.700191
572.375000 1811.130356 1828.792186 1836.430730 1835.112791 1840.056218 1844.151398
572.500000 1811.605054 1829.280154 1836.937386 1835.670250 1840.498041 1844.575319
572.625000 1811.884008 1829.834716 1837.408818 1836.197114 1840.989729 1845.102493
572.750000 1812.516699 1830.323228 1837.874325 1836.718697 1841.530337 1845.906778
572.875000 1813.304845 1831.109916 1838.352092 1837.233595 1842.197957 1846.626786
573.000000 1813.946735 1831.612754 1838.940941 1837.755171 1842.796366 1846.948564
573.110000 1814.560152 1831.932280 1839.279317 1838.189955 1843.279180 1847.220266
573.235000 1815.263250 1832.251742 1839.754162 1838.653471 1843.732080 1847.597949
573.360000 1815.977977 1832.801161 1840.241228 1839.113434 1844.213261 1848.118432
573.485000 1816.813487 1833.136151 1840.727859 1839.560856 1844.619515 1848.868383
573.610000 1818.129683 1833.631662 1841.175431 1840.006583 1845.041459 1849.547845
573.752571 1819.226464 1834.548317 1841.753704 1840.495043 1845.454610 1850.242009
573.895143 1819.842688 1835.495677 1842.163286 1840.967626 1845.834105 1850.869536
574.037714 1820.627163 1836.229709 1842.523941 1841.438709 1846.128466 1851.410614
574.180286 1821.179577 1836.873598 1842.860354 1841.891111 1846.487186 1852.001196
574.322857 1821.868307 1837.704927 1843.233844 1842.358366 1846.785219 1852.391252
574.465429 1823.316708 1838.450578 1843.581550 1842.820756 1847.101865 1853.835856
574.608000 1823.911574 1838.920201 1844.004808 1843.291652 1847.478868 1854.553923
574.750571 1824.972861 1839.643682 1844.368019 1843.771238 1847.818307 1855.764293
574.893143 1825.756061 1840.176105 1844.784790 1844.236865 1848.225206 1856.699508
575.035714 1826.953907 1840.629243 1845.169184 1844.690674 1848.546341 1857.379069
575.178286 1828.354956 1841.230115 1845.645842 1845.157123 1848.928604 1858.373543
575.320857 1829.076964 1841.800922 1845.999895 1845.608056 1849.306390 1860.590663
575.463429 1829.832633 1842.309418 1846.441923 1846.069159 1849.648487 1861.937802
575.606000 1830.807902 1842.687914 1846.819458 1846.536957 1850.014863 1863.053777
575.748571 1831.593547 1843.210227 1847.215688 1846.995244 1850.378418 1864.597453
575.891143 1832.657652 1843.679597 1847.647411 1847.460535 1850.838186 1866.987955
576.033714 1834.101735 1844.063633 1847.987102 1847.923068 1851.164962 1867.611873
576.176286 1835.261502 1844.410526 1848.376185 1848.382912 1851.521456 1868.999521
576.318857 1836.291688 1844.973814 1848.775893 1848.828928 1851.951539 1870.655575
576.461429 1837.035646 1845.498184 1849.191717 1849.284796 1852.337433 1872.230457
576.604000 1837.768623 1845.888582 1849.559366 1849.755024 1852.687684 1873.388251
576.746571 1838.791644 1846.405083 1849.988947 1850.239644 1853.115899 1875.918434
576.889143 1839.655926 1846.948216 1850.376006 1850.698280 1853.473779 1877.096636
577.031714 1840.315810 1847.438046 1850.688534 1851.154643 1853.911188 1878.027820
577.174286 1841.211245 1847.873687 1851.053985 1851.621163 1854.249984 1878.862317
577.316857 1842.066151 1848.221312 1851.416667 1852.073882 1854.648890 1880.049969
577.459429 1843.216070 1848.679746 1851.816593 1852.550972 1855.060534 1881.559137
577.602000 1844.057248 1849.153429 1852.159581 1853.002919 1855.458960 1882.926513
577.744571 1844.709430 1849.680951 1852.483332 1853.477776 1855.864401 1885.113642
577.887143 1845.623613 1850.154686 1852.855592 1853.937889 1856.264019 1885.967921
578.029714 1846.243628 1850.699658 1853.215926 1854.416965 1856.691947 1887.335336
578.172286 1846.936212 1851.228798 1853.611798 1854.880053 1857.047369 1888.019275
578.314857 1847.672342 1851.711907 1854.008380 1855.345138 1857.436581 1888.960046
578.457429 1848.379345 1852.193253 1854.378911 1855.813728 1857.891732 1889.962065
578.600000 1848.890761 1852.652209 1854.856813 1856.292982 1858.338440 1891.512191
578.725000 1849.462909 1853.091257 1855.199696 1856.738156 1858.706904 1892.810096
578.850000 1850.089554 1853.594658 1855.672480 1857.193808 1859.052194 1893.563154
578.975000 1850.921823 1854.149522 1856.160153 1857.655461 1859.397518 1894.407269
579.100000 1851.310255 1854.632264 1856.611078 1858.109091 1859.857123 1895.089327
579.225000 1852.015737 1855.087688 1857.050404 1858.568774 1860.234656 1895.596530
579.350000 1852.886317 1855.543723 1857.492780 1859.030572 1860.634112 1896.255698
579.475000 1853.397745 1856.065657 1857.923530 1859.512773 1861.114080 1896.861350
579.600000 1854.146782 1856.526742 1858.514264 1860.022541 1861.517705 1897.337578
579.725000 1854.771500 1857.061790 1859.056919 1860.551835 1862.044158 1897.698847
579.850000 1855.491133 1857.616006 1859.601635 1861.062232 1862.454878 1898.173584
579.975000 1856.064384 1858.100232 1860.168878 1861.568960 1862.876625 1898.474315
580.100000 1856.652706 1858.582803 1860.690251 1862.070345 1863.306978 1898.912937
580.225000 1857.107909 1859.125358 1861.212731 1862.575586 1863.750208 1899.253110
580.350000 1857.660677 1859.578589 1861.765890 1863.092085 1864.219182 1900.012061
