depth(m) lower_95(kyr) lower_68(kyr) median(kyr) mean(kyr) upper_68(kyr) upper_95(kyr)
419.110000 1403.764380 1404.436614 1405.058804 1405.175652 1406.040348 1406.962628
419.220000 1404.121589 1404.702674 1405.311627 1405.436827 1406.276338 1407.160305
419.325000 1404.366647 1404.971287 1405.528889 1405.669812 1406.516690 1407.384316
419.430000 1404.674864 1405.179770 1405.755553 1405.898153 1406.775086 1407.610058
419.540000 1404.951717 1405.412392 1405.964338 1406.125037 1407.006249 1407.811287
419.670000 1405.206198 1405.676032 1406.216411 1406.374827 1407.268372 1408.027895
419.800000 1405.475028 1405.918525 1406.462569 1406.621128 1407.517184 1408.277483
419.910000 1405.696368 1406.127791 1406.656142 1406.829094 1407.748553 1408.496109
420.050000 1405.921749 1406.374010 1406.901620 1407.082320 1407.997175 1408.711145
420.190000 1406.173857 1406.637651 1407.154512 1407.334060 1408.258036 1408.946450
420.300000 1406.384200 1406.848100 1407.353411 1407.537482 1408.450217 1409.134673
420.420000 1406.552623 1407.060172 1407.572181 1407.751069 1408.684356 1409.346419
420.540000 1406.761381 1407.275502 1407.796424 1407.968262 1408.926390 1409.557111
420.670000 1406.974608 1407.506218 1408.035956 1408.202219 1409.139907 1409.813148
420.780000 1407.197610 1407.704851 1408.230947 1408.408823 1409.348326 1410.050404
420.920000 1407.468938 1407.963681 1408.485270 1408.671509 1409.627906 1410.367876
421.050000 1407.689204 1408.201699 1408.727633 1408.922577 1409.906522 1410.642191
421.170000 1407.947038 1408.424879 1408.969590 1409.167268 1410.153299 1410.925148
421.290000 1408.234117 1408.664848 1409.244860 1409.435702 1410.423513 1411.196722
421.420000 1408.497538 1408.943077 1409.611077 1409.758202 1410.726439 1411.595712
421.560000 1408.807938 1409.254418 1409.993095 1410.130133 1411.090213 1411.932753
421.690000 1409.125729 1409.616001 1410.437125 1410.540640 1411.502841 1412.328767
421.800000 1409.443339 1410.025564 1410.857114 1410.939343 1411.888262 1412.690021
421.900000 1409.825353 1410.410323 1411.313165 1411.324681 1412.243837 1412.938551
422.030000 1410.374831 1411.051386 1411.933651 1411.895524 1412.700061 1413.335182
422.160000 1410.929860 1411.695998 1412.477568 1412.436246 1413.158219 1413.696153
422.290000 1411.561177 1412.281793 1413.020696 1412.974266 1413.619301 1414.179170
422.410000 1412.022734 1412.791954 1413.488678 1413.445634 1414.056602 1414.688731
422.520000 1412.548920 1413.271207 1413.920516 1413.903915 1414.520592 1415.229868
422.640000 1412.961362 1413.802493 1414.469095 1414.455214 1415.112246 1415.777359
422.725000 1413.290820 1414.142539 1414.795432 1414.774743 1415.434982 1416.094033
422.810000 1413.576023 1414.477843 1415.099282 1415.093107 1415.749619 1416.409640
422.920000 1414.018110 1414.865004 1415.465691 1415.477917 1416.192540 1416.776343
423.040000 1414.526261 1415.244743 1415.833101 1415.871473 1416.521721 1417.229971
423.160000 1415.064251 1415.631812 1416.240928 1416.256625 1416.893015 1417.589978
423.300000 1415.488369 1416.026036 1416.640076 1416.666353 1417.304120 1418.033725
423.410000 1415.808515 1416.301641 1416.939924 1416.968476 1417.621194 1418.362863
423.530000 1416.117769 1416.631682 1417.270158 1417.296614 1417.986033 1418.729887
423.660000 1416.403466 1416.980511 1417.579368 1417.631485 1418.325819 1419.055656
423.770000 1416.711974 1417.251752 1417.837903 1417.903418 1418.626556 1419.364376
423.910000 1417.038037 1417.572882 1418.131711 1418.225043 1418.977059 1419.609848
424.040000 1417.350494 1417.866150 1418.391635 1418.510706 1419.290405 1419.867876
424.180000 1417.671796 1418.170639 1418.683704 1418.811116 1419.659109 1420.125340
424.310000 1417.981878 1418.453449 1418.955979 1419.086521 1419.924875 1420.360713
424.420000 1418.188741 1418.690105 1419.211238 1419.327481 1420.176915 1420.578363
424.550000 1418.419029 1418.959048 1419.477171 1419.591028 1420.448259 1420.781986
424.660000 1418.633736 1419.201985 1419.720375 1419.821056 1420.681559 1420.982728
424.800000 1418.994972 1419.501444 1420.000146 1420.107093 1420.963909 1421.206783
424.850000 1419.099465 1419.619828 1420.122934 1420.219208 1421.082005 1421.295521
424.910000 1419.263753 1419.757002 1420.265580 1420.359408 1421.206336 1421.405321
424.960000 1419.457482 1419.873734 1420.399996 1420.473103 1421.315801 1421.471293
425.030000 1419.591536 1420.024227 1420.586124 1420.632787 1421.436552 1421.593710
425.070000 1419.729831 1420.112524 1420.675416 1420.722700 1421.508550 1421.655144
425.120000 1419.855915 1420.220540 1420.790533 1420.835754 1421.595568 1421.753846
425.150000 1419.924392 1420.284606 1420.867678 1420.908336 1421.647960 1421.810797
425.200000 1420.037510 1420.400037 1420.997350 1421.019044 1421.728533 1421.893434
425.260000 1420.215261 1420.534416 1421.137561 1421.150992 1421.823846 1422.000024
425.290000 1420.278762 1420.598933 1421.216084 1421.221468 1421.882095 1422.059806
425.330000 1420.399613 1420.698390 1421.319710 1421.317502 1421.950166 1422.135442
425.380000 1420.500664 1420.828395 1421.457080 1421.440630 1422.036614 1422.226876
425.400000 1420.562268 1420.887906 1421.508105 1421.492852 1422.072233 1422.299462
425.440000 1420.633851 1421.001744 1421.600402 1421.588506 1422.144837 1422.411302
425.490000 1420.737408 1421.165210 1421.719597 1421.705851 1422.223557 1422.624754
425.550000 1420.880501 1421.367582 1421.870244 1421.852613 1422.321829 1422.746494
425.590000 1420.958123 1421.505285 1421.970460 1421.956787 1422.389041 1422.812002
425.610000 1421.011371 1421.568182 1422.023965 1422.009150 1422.429191 1422.867787
425.640000 1421.109501 1421.685925 1422.102199 1422.092126 1422.487259 1422.965459
425.670000 1421.169011 1421.789544 1422.180628 1422.172456 1422.546233 1423.109821
425.680000 1421.194872 1421.824077 1422.205464 1422.200151 1422.569432 1423.122902
425.730000 1421.368961 1422.009252 1422.331640 1422.342355 1422.682542 1423.345820
425.750000 1421.453143 1422.070142 1422.385598 1422.400517 1422.727340 1423.399152
425.790000 1421.630613 1422.214084 1422.494667 1422.517474 1422.829162 1423.506572
425.840000 1421.786332 1422.384656 1422.626794 1422.659679 1422.979330 1423.655742
425.880000 1421.892615 1422.495108 1422.721813 1422.770052 1423.101264 1423.766064
425.920000 1421.989696 1422.596646 1422.824957 1422.876021 1423.228613 1423.908118
425.960000 1422.083254 1422.696706 1422.917426 1422.980719 1423.336470 1424.035930
425.980000 1422.173899 1422.750988 1422.964856 1423.032997 1423.395539 1424.142235
426.040000 1422.333623 1422.887783 1423.109629 1423.187622 1423.564062 1424.286866
426.090000 1422.490651 1422.985567 1423.225215 1423.313349 1423.735266 1424.380509
426.120000 1422.540409 1423.056178 1423.296312 1423.388637 1423.812713 1424.458023
426.190000 1422.720106 1423.186366 1423.455787 1423.571904 1424.061447 1424.671050
426.240000 1422.826262 1423.300782 1423.585841 1423.696886 1424.194227 1424.809867
426.280000 1422.955421 1423.386918 1423.678585 1423.798647 1424.325246 1424.897448
426.320000 1423.097146 1423.476995 1423.780126 1423.899295 1424.436583 1424.974758
426.380000 1423.250367 1423.600257 1423.949563 1424.058443 1424.634779 1425.096914
426.470000 1423.476569 1423.792077 1424.191008 1424.291328 1424.892179 1425.274525
426.510000 1423.558035 1423.884635 1424.307167 1424.394741 1424.998635 1425.355259
426.550000 1423.655796 1423.961309 1424.430251 1424.492144 1425.115884 1425.439008
426.650000 1423.891880 1424.167256 1424.716125 1424.740735 1425.368270 1425.611831
426.710000 1424.008174 1424.298146 1424.877481 1424.893448 1425.505414 1425.755475
426.760000 1424.113860 1424.414120 1425.019423 1425.021866 1425.634121 1425.860196
426.800000 1424.216849 1424.523676 1425.163953 1425.128408 1425.718483 1425.944037
426.880000 1424.382156 1424.713905 1425.404697 1425.332508 1425.890610 1426.101438
426.930000 1424.499284 1424.843080 1425.548126 1425.459446 1425.985060 1426.204355
426.990000 1424.590490 1424.994409 1425.700089 1425.607984 1426.109686 1426.326869
427.060000 1424.745661 1425.210422 1425.882185 1425.774299 1426.248837 1426.471353
427.130000 1424.898311 1425.433212 1426.082384 1425.947756 1426.389710 1426.583550
427.200000 1425.034196 1425.654299 1426.258126 1426.120969 1426.526153 1426.732718
427.260000 1425.156976 1425.801484 1426.394988 1426.259326 1426.642477 1426.859172
427.320000 1425.315791 1425.965737 1426.518814 1426.399603 1426.760932 1426.978802
427.390000 1425.465424 1426.163087 1426.667423 1426.560429 1426.903946 1427.163677
427.460000 1425.621223 1426.371756 1426.809836 1426.721194 1427.037308 1427.316874
427.500000 1425.732140 1426.484107 1426.907501 1426.812968 1427.128129 1427.395705
427.570000 1425.917313 1426.664422 1427.062787 1426.975983 1427.258728 1427.568207
427.640000 1426.084940 1426.840179 1427.207170 1427.129332 1427.398499 1427.720283
427.700000 1426.234841 1427.003569 1427.322857 1427.258664 1427.521100 1427.844331
427.760000 1426.417993 1427.126953 1427.445201 1427.393421 1427.654758 1428.016534
427.800000 1426.523229 1427.225708 1427.527521 1427.482171 1427.748492 1428.106085
427.880000 1426.786331 1427.422373 1427.682049 1427.662197 1427.916129 1428.318779
427.940000 1426.979420 1427.565763 1427.802829 1427.801915 1428.065739 1428.586914
428.020000 1427.259617 1427.756813 1427.974424 1428.000954 1428.281459 1428.810224
428.080000 1427.473488 1427.893951 1428.113685 1428.150370 1428.439121 1428.961540
428.140000 1427.632529 1428.029265 1428.251327 1428.309711 1428.630651 1429.164180
428.170000 1427.718998 1428.097906 1428.336391 1428.391916 1428.716413 1429.246711
428.250000 1428.000884 1428.285231 1428.574388 1428.619918 1429.005308 1429.512724
428.300000 1428.134209 1428.414378 1428.727983 1428.774037 1429.181824 1429.687780
428.390000 1428.378799 1428.659633 1429.044656 1429.095520 1429.551694 1430.068793
428.430000 1428.442201 1428.771751 1429.196980 1429.224795 1429.707742 1430.190579
428.510000 1428.692300 1429.006887 1429.497958 1429.525583 1430.031292 1430.566457
428.560000 1428.837554 1429.181651 1429.683170 1429.711014 1430.232248 1430.790835
428.660000 1429.170014 1429.578991 1430.135454 1430.156713 1430.708740 1431.285713
428.700000 1429.343450 1429.752341 1430.302554 1430.320885 1430.880881 1431.454412
428.770000 1429.698013 1430.145805 1430.730460 1430.728230 1431.303506 1431.848496
428.840000 1430.127307 1430.627678 1431.229218 1431.212242 1431.771262 1432.268756
428.890000 1430.389311 1430.900683 1431.469750 1431.464079 1432.041120 1432.487858
428.960000 1430.716893 1431.255343 1431.873903 1431.833199 1432.382927 1432.832584
429.010000 1430.956519 1431.455459 1432.091751 1432.050108 1432.591401 1433.050696
429.090000 1431.279719 1431.796866 1432.452136 1432.405100 1432.921394 1433.429721
429.140000 1431.457284 1432.009473 1432.645816 1432.588954 1433.099597 1433.573667
429.160000 1431.566633 1432.062494 1432.713395 1432.658767 1433.166901 1433.649612
429.200000 1431.687064 1432.210731 1432.869248 1432.797735 1433.314196 1433.805181
429.260000 1431.876579 1432.432589 1433.065214 1433.019146 1433.528341 1434.047355
429.300000 1432.021816 1432.576174 1433.193905 1433.157527 1433.686950 1434.168059
429.360000 1432.213993 1432.812061 1433.392595 1433.373079 1433.907543 1434.426900
429.440000 1432.557657 1433.111566 1433.695035 1433.666645 1434.184353 1434.688276
429.500000 1432.770302 1433.304694 1433.895414 1433.875983 1434.398604 1434.909252
429.550000 1432.970391 1433.487109 1434.077545 1434.044815 1434.549872 1435.047495
429.650000 1433.312345 1433.900134 1434.438245 1434.401725 1434.901612 1435.378711
429.700000 1433.449037 1434.066078 1434.609441 1434.567466 1435.054253 1435.526710
429.760000 1433.642300 1434.276980 1434.821310 1434.769461 1435.239438 1435.690306
429.780000 1433.700760 1434.346378 1434.882538 1434.833805 1435.314907 1435.740305
429.890000 1434.074932 1434.725723 1435.256659 1435.212331 1435.672091 1436.072040
429.940000 1434.312102 1434.878010 1435.432145 1435.379408 1435.825239 1436.234186
430.000000 1434.464621 1435.108925 1435.616125 1435.581293 1436.045634 1436.425759
430.060000 1434.691348 1435.314754 1435.791437 1435.767583 1436.231366 1436.601616
430.150000 1434.992023 1435.628627 1436.109103 1436.065106 1436.500267 1436.879622
430.190000 1435.095027 1435.752859 1436.245734 1436.192713 1436.604728 1437.020026
430.260000 1435.344263 1435.983101 1436.457831 1436.409166 1436.799078 1437.230266
430.340000 1435.638291 1436.296268 1436.693461 1436.673132 1437.063510 1437.454199
430.390000 1435.847997 1436.471953 1436.848415 1436.831424 1437.204429 1437.637660
430.420000 1435.929600 1436.582172 1436.928873 1436.924473 1437.294716 1437.741300
430.480000 1436.170166 1436.807638 1437.106025 1437.115179 1437.480024 1437.920598
430.490000 1436.204849 1436.839028 1437.132693 1437.144447 1437.504898 1437.940369
430.560000 1436.496457 1437.032969 1437.362213 1437.356462 1437.723182 1438.154507
430.590000 1436.570172 1437.108762 1437.451951 1437.443680 1437.809173 1438.248156
430.630000 1436.711207 1437.219047 1437.562107 1437.556582 1437.934113 1438.415946
430.640000 1436.737221 1437.239706 1437.594605 1437.584644 1437.957429 1438.433707
430.700000 1436.933671 1437.381930 1437.772399 1437.753476 1438.096484 1438.590085
430.740000 1437.071678 1437.482407 1437.907629 1437.868766 1438.201575 1438.759040
430.760000 1437.149541 1437.532882 1437.958408 1437.923481 1438.254156 1438.805115
430.790000 1437.277183 1437.599031 1438.050936 1438.005043 1438.324594 1438.863196
430.820000 1437.341409 1437.671030 1438.133798 1438.088952 1438.404404 1438.983919
430.840000 1437.430837 1437.721067 1438.190824 1438.145237 1438.463004 1439.036651
430.870000 1437.508487 1437.792147 1438.284517 1438.230365 1438.537128 1439.125603
430.900000 1437.604466 1437.860575 1438.366697 1438.314693 1438.619366 1439.192692
430.940000 1437.699248 1437.966783 1438.488814 1438.430262 1438.745003 1439.300314
430.960000 1437.752350 1438.016004 1438.539432 1438.486551 1438.800473 1439.359586
431.000000 1437.845629 1438.143395 1438.655486 1438.605816 1438.937291 1439.508851
431.040000 1437.951935 1438.249990 1438.763721 1438.723955 1439.088409 1439.643226
431.080000 1438.055750 1438.392913 1438.868700 1438.840980 1439.219556 1439.778789
431.140000 1438.175014 1438.576765 1439.042022 1439.028921 1439.421133 1440.050124
431.150000 1438.195828 1438.607773 1439.067006 1439.057938 1439.452813 1440.083807
431.190000 1438.315853 1438.709418 1439.180125 1439.179926 1439.560781 1440.252851
431.220000 1438.413074 1438.822557 1439.275437 1439.277486 1439.666036 1440.385600
431.270000 1438.557132 1438.987926 1439.412496 1439.430606 1439.819073 1440.549468
431.320000 1438.686478 1439.150038 1439.569184 1439.583818 1439.944475 1440.739620
431.360000 1438.796776 1439.289908 1439.691787 1439.711338 1440.060047 1440.837424
431.380000 1438.846496 1439.349066 1439.753862 1439.772975 1440.124981 1440.940318
431.410000 1438.953935 1439.443046 1439.847688 1439.866180 1440.218410 1441.053205
431.430000 1439.013358 1439.497907 1439.910639 1439.926164 1440.275059 1441.105996
431.460000 1439.096481 1439.581610 1439.998132 1440.020113 1440.371650 1441.175329
431.500000 1439.241276 1439.698741 1440.115317 1440.140160 1440.503620 1441.259060
431.520000 1439.327670 1439.756703 1440.179740 1440.198645 1440.556014 1441.305023
431.560000 1439.459940 1439.862647 1440.291979 1440.319124 1440.704253 1441.404654
431.600000 1439.542623 1439.973632 1440.421646 1440.436694 1440.835545 1441.508347
431.630000 1439.622328 1440.047531 1440.508527 1440.525687 1440.984368 1441.622195
431.640000 1439.639285 1440.066446 1440.533769 1440.554792 1441.011381 1441.657313
431.680000 1439.738073 1440.214058 1440.632291 1440.672867 1441.201971 1441.792023
431.700000 1439.776277 1440.278630 1440.679601 1440.730066 1441.277472 1441.867370
431.740000 1439.854524 1440.397930 1440.774389 1440.850168 1441.399441 1441.968280
431.770000 1439.938647 1440.487039 1440.840506 1440.937239 1441.520238 1442.050648
431.800000 1440.010594 1440.561172 1440.932512 1441.025872 1441.615042 1442.126820
431.810000 1440.034146 1440.592578 1440.954885 1441.053701 1441.660428 1442.148810
431.860000 1440.166481 1440.740461 1441.099286 1441.201161 1441.807077 1442.283381
431.880000 1440.229166 1440.806316 1441.160170 1441.259726 1441.865511 1442.335809
431.920000 1440.364880 1440.895924 1441.290617 1441.381428 1441.969495 1442.461197
431.970000 1440.472447 1441.053400 1441.471733 1441.536696 1442.115076 1442.616943
432.030000 1440.615455 1441.230523 1441.704811 1441.738385 1442.312771 1442.854753
432.080000 1440.743591 1441.379179 1441.910330 1441.911536 1442.473118 1443.036664
432.160000 1440.929666 1441.588391 1442.236892 1442.206554 1442.798203 1443.352703
432.220000 1441.153102 1441.743758 1442.483074 1442.435364 1443.052696 1443.619324
432.260000 1441.239197 1441.867550 1442.628926 1442.578218 1443.203834 1443.801596
432.280000 1441.303012 1441.929620 1442.695809 1442.643349 1443.275684 1443.872009
432.320000 1441.404376 1442.009621 1442.844860 1442.788020 1443.451476 1443.997345
432.340000 1441.459933 1442.055413 1442.913078 1442.853940 1443.530954 1444.065542
432.360000 1441.522537 1442.104401 1442.982581 1442.920226 1443.616472 1444.122572
432.390000 1441.635862 1442.156036 1443.074541 1443.026056 1443.742101 1444.222566
432.440000 1441.780882 1442.291348 1443.262139 1443.208371 1443.927948 1444.420261
432.450000 1441.814751 1442.324859 1443.296378 1443.239783 1443.956533 1444.461789
432.480000 1441.888602 1442.412582 1443.376282 1443.335750 1444.051043 1444.538687
432.500000 1441.963229 1442.474221 1443.434747 1443.396028 1444.116075 1444.575433
432.510000 1441.995105 1442.500036 1443.460215 1443.426002 1444.143309 1444.608496
432.570000 1442.171696 1442.727810 1443.646292 1443.612956 1444.335077 1444.856038
432.630000 1442.328204 1442.955768 1443.848224 1443.807016 1444.506316 1445.074495
432.710000 1442.540746 1443.330942 1444.170566 1444.081696 1444.764694 1445.372480
432.770000 1442.657763 1443.537123 1444.368007 1444.279649 1444.984709 1445.623997
432.830000 1442.804088 1443.736193 1444.566763 1444.472410 1445.179527 1445.793047
432.890000 1442.977602 1443.933647 1444.751565 1444.669385 1445.394996 1446.040589
432.950000 1443.155957 1444.117480 1444.958609 1444.873133 1445.622535 1446.254920
433.010000 1443.384605 1444.291051 1445.162039 1445.078362 1445.811898 1446.452192
433.130000 1443.986908 1444.792388 1445.615888 1445.554047 1446.279479 1446.876364
433.210000 1444.243154 1445.121640 1445.889881 1445.836380 1446.559697 1447.137678
433.340000 1444.915516 1445.665217 1446.396062 1446.343362 1446.988139 1447.465962
433.455000 1445.649865 1446.279009 1446.894879 1446.849960 1447.431291 1447.789929
433.570000 1446.349485 1446.851054 1447.344139 1447.325979 1447.806549 1448.136794
433.630000 1446.537319 1447.068212 1447.576485 1447.535096 1447.990182 1448.325837
433.690000 1446.761538 1447.265775 1447.766296 1447.727824 1448.155331 1448.499068
433.750000 1447.028144 1447.492766 1447.959340 1447.920258 1448.323485 1448.674135
433.810000 1447.267772 1447.715669 1448.135157 1448.109586 1448.495549 1448.849993
433.870000 1447.519387 1447.893673 1448.313109 1448.293896 1448.675003 1448.996434
433.930000 1447.729708 1448.099563 1448.497181 1448.479167 1448.852752 1449.159710
433.990000 1447.916936 1448.291318 1448.690144 1448.673043 1449.048562 1449.358488
434.030000 1448.030322 1448.424023 1448.823086 1448.808709 1449.192766 1449.482165
434.080000 1448.175810 1448.594325 1448.995317 1448.980368 1449.349864 1449.636119
434.140000 1448.422963 1448.832525 1449.205514 1449.193248 1449.569647 1449.884579
434.190000 1448.606357 1449.021793 1449.384243 1449.363777 1449.743784 1450.008834
434.250000 1448.812043 1449.250991 1449.598263 1449.588080 1449.928933 1450.221249
434.330000 1449.156493 1449.594242 1449.939652 1449.907396 1450.227702 1450.524081
434.390000 1449.443399 1449.833169 1450.165085 1450.140109 1450.442481 1450.714935
