depth(m) lower_95(kyr) lower_68(kyr) median(kyr) mean(kyr) upper_68(kyr) upper_95(kyr)
38.740000 699.791095 700.645323 701.605448 701.587881 702.538277 703.412428
38.840000 701.182013 702.190124 703.261612 703.283417 704.315531 705.463084
38.940000 702.644022 703.714565 704.955248 704.969030 706.225328 707.722811
39.040000 704.110352 705.356691 706.727004 706.811050 708.323488 709.940354
39.140000 705.909775 707.056434 708.531155 708.669487 710.301118 711.923955
39.240000 707.458033 708.713090 710.457245 710.489312 712.175847 713.754866
39.340000 709.097986 710.584009 712.371033 712.410765 714.138979 716.454532
39.440000 710.709908 712.292481 714.236466 714.286108 716.221842 718.618722
39.540000 712.012958 713.846324 715.832202 715.943480 717.973580 720.674741
39.640000 713.523291 715.337536 717.383473 717.576045 719.738667 722.857901
39.740000 714.824471 716.801300 718.937710 719.130974 721.324896 724.293625
39.840000 716.417737 718.363917 720.573734 720.750520 722.958597 726.512732
39.940000 718.042046 720.032605 722.105370 722.314258 724.393205 728.544979
40.040000 719.973319 721.816000 723.772136 724.146982 726.143692 731.637812
40.140000 721.747969 723.659855 725.797850 726.308358 728.557699 735.435167
40.240000 724.026640 726.047343 728.617729 729.230999 732.210867 738.548802
40.340000 726.244304 728.877151 731.979340 732.427790 736.047691 741.099570
40.440000 727.938448 731.449702 735.616367 735.667802 739.939122 743.694455
40.540000 729.552929 734.180158 738.736307 738.616404 743.132254 746.715664
40.640000 731.745393 736.510965 741.175494 741.023644 745.607010 748.982739
40.740000 733.818657 738.796412 743.376285 743.214197 747.774296 751.118646
40.840000 736.498327 740.765053 745.412439 745.214647 749.712730 752.932454
40.940000 738.476919 743.002893 747.713283 747.377026 751.773057 754.577257
41.040000 740.200542 744.843882 750.032753 749.436522 753.729718 756.217809
41.140000 741.742239 746.808847 752.347715 751.515961 755.685768 758.052224
41.240000 743.462907 748.926440 754.163779 753.358200 757.493150 759.793193
41.340000 745.650982 750.938756 755.945633 755.186913 759.196861 761.421339
41.473333 748.878857 753.478846 758.180081 757.596682 761.317229 763.776587
41.606667 752.182433 756.382324 760.417428 760.037669 763.357719 765.996211
41.740000 755.305903 759.279178 762.808650 762.543684 765.712370 768.114309
41.840000 757.926973 761.770197 764.945605 764.702801 767.664307 769.933758
41.940000 760.506830 764.068314 766.922338 766.757029 769.634406 771.764496
42.040000 763.522966 766.479403 769.358374 769.139986 771.700888 773.965438
42.140000 766.413978 769.243732 771.852646 771.656507 773.999697 776.047293
42.240000 769.489335 772.059247 774.409005 774.306931 776.536008 778.417867
42.340000 772.484451 774.661650 776.682258 776.603698 778.679208 780.390949
42.440000 774.657815 776.656121 778.655147 778.630746 780.653422 782.369397
42.540000 776.448384 778.440863 780.453831 780.418683 782.414054 783.919204
42.640000 778.266202 780.195014 782.191676 782.144896 784.033794 785.564509
42.740000 779.956632 781.933404 784.003136 783.911655 785.835127 787.318589
42.840000 782.160416 784.034482 785.998116 785.892278 787.649595 789.146536
42.940000 785.057121 786.805806 788.745160 788.752367 790.565693 792.623597
43.040000 789.155631 790.928673 793.119502 793.236276 795.324266 798.384681
43.140000 792.273486 794.348512 796.809609 796.789641 799.084120 801.258591
43.240000 794.189133 796.639603 799.657971 799.428933 801.970820 804.210765
43.340000 796.033157 798.794531 801.956238 801.658355 804.193218 806.246052
43.440000 798.093209 801.164133 804.139044 803.760464 806.139690 808.025246
43.540000 800.514226 803.696370 806.256707 806.069686 808.340935 810.773493
43.640000 803.387668 806.117914 808.464758 808.477524 810.644232 813.493541
43.740000 805.990594 808.356324 810.660164 810.627509 812.979954 815.801745
43.840000 808.078888 810.261086 812.493874 812.725639 815.158653 818.697025
43.940000 809.996427 812.294410 814.627817 815.075422 817.950132 822.734199
44.040000 811.975608 814.271053 817.043491 817.681462 821.462583 826.536955
44.140000 813.516736 815.981849 819.359650 820.153258 824.909146 829.564126
44.240000 815.578563 818.327505 822.060109 822.838235 828.017914 832.904989
44.340000 818.200049 821.038820 824.833815 825.632452 830.875091 835.437295
44.440000 820.610946 823.875617 828.245138 828.653392 833.740209 837.798326
44.540000 823.284782 827.047167 832.056549 831.836950 836.532050 839.755619
44.640000 826.413329 830.620587 835.514070 835.125727 839.325785 842.492923
44.740000 830.464610 834.839092 839.101010 838.721525 842.335987 845.130025
44.840000 835.622060 840.360602 843.700485 843.485999 846.601152 849.972462
44.940000 841.096720 845.150721 847.894511 847.941807 851.015242 854.245695
45.040000 844.875298 848.186498 851.041298 851.053911 854.327289 856.652409
45.140000 847.011305 850.518846 853.620632 853.491329 856.644061 858.713673
45.240000 849.042376 852.824686 856.051480 855.688468 858.507649 860.321561
45.340000 851.403561 855.476562 858.276757 857.879212 860.334320 861.901469
45.440000 853.222377 857.862726 860.497484 859.997394 862.190461 863.565564
45.540000 856.001082 860.183542 862.310447 861.927308 863.841841 864.984630
45.640000 859.198062 862.476278 864.242933 864.001131 865.660641 866.813549
45.773333 862.395995 864.794341 866.509940 866.453805 868.133440 869.834466
45.906667 865.294593 867.106336 868.724546 868.699945 870.326973 872.257218
46.040000 867.770512 869.293826 870.907786 870.943192 872.524537 874.763102
46.140000 869.307404 870.818727 872.442821 872.507718 874.138928 876.556381
46.240000 871.114210 872.462010 874.100189 874.184702 875.800062 878.362993
46.340000 872.687428 874.174147 875.788910 875.910672 877.619635 880.185796
46.440000 874.279083 875.779132 877.537454 877.728252 879.674868 882.349525
46.540000 875.995665 877.518792 879.281678 879.548607 881.505921 884.752770
46.640000 877.846461 879.371083 881.109687 881.467836 883.764779 886.558394
46.740000 879.568855 881.141072 883.009400 883.355242 885.781954 888.311086
46.860000 881.455042 883.133423 885.205878 885.529175 888.101863 890.778658
46.960000 883.061631 884.843606 887.185320 887.331510 889.934338 892.555442
47.060000 884.852802 886.648461 888.943650 889.171048 891.772513 894.572070
47.160000 886.473012 888.523437 890.941413 891.077380 893.774992 896.332042
47.260000 888.212524 890.532856 893.058446 893.168886 895.857576 898.827010
47.360000 889.919566 892.625132 895.168341 895.295418 898.086519 901.253859
47.460000 892.234486 894.923173 897.412950 897.551344 900.238308 903.488185
47.560000 895.422438 897.722318 900.055087 900.197288 902.857393 905.627148
47.660000 897.576536 900.094634 902.568351 902.681436 905.439462 908.071337
47.760000 899.860816 902.512149 904.910560 904.977979 907.770204 909.970690
47.860000 901.968942 904.569589 907.036323 907.048989 909.732603 911.909437
47.960000 903.675148 906.533214 909.288974 909.137734 911.689801 913.726301
48.060000 906.092458 908.798139 911.565584 911.338742 913.628407 915.732092
48.160000 908.632271 911.417061 913.892914 913.747843 915.787871 918.597367
48.260000 911.365536 914.429655 916.701419 916.735934 918.888966 923.001322
48.360000 914.405950 917.007603 919.459726 919.738087 922.387716 926.468127
48.460000 917.836070 920.146182 922.833177 923.090908 926.020156 929.810547
48.560000 921.295631 924.019381 927.342530 927.469129 930.900368 935.010386
48.660000 926.364712 928.810902 931.500938 931.743112 935.024400 938.120923
48.760000 929.176762 931.977821 934.980534 934.871364 937.816063 940.510273
48.860000 931.871258 934.937831 937.846608 937.738722 940.492483 942.551105
48.960000 934.396201 937.897853 940.528177 940.295646 942.864025 944.474455
49.060000 937.307044 940.458618 942.945235 942.627693 944.825369 946.199814
49.160000 940.228507 942.957927 945.171466 944.876416 946.820410 948.009850
49.260000 943.258471 945.333156 947.102778 946.912279 948.497141 949.616348
49.360000 945.506962 947.419292 948.828672 948.714179 950.030680 951.233335
49.460000 947.847180 949.222362 950.529095 950.467861 951.683396 952.843587
49.560000 949.592362 950.940871 952.118937 952.108701 953.326661 954.477687
49.660000 951.383462 952.545850 953.759385 953.716347 954.851654 955.988445
49.760000 953.136819 954.327935 955.405748 955.401086 956.527044 957.493265
49.860000 955.207035 956.399555 957.493698 957.500209 958.563664 959.905513
49.960000 958.069760 959.291529 960.787940 961.205418 963.148138 966.264315
50.060000 960.110455 961.883676 964.074146 964.299046 966.779054 969.802159
50.160000 962.378722 964.683469 967.379246 967.325392 969.704800 972.078022
50.260000 965.060939 968.070772 970.549584 970.415931 972.707093 975.332186
50.360000 968.387101 971.203066 973.335729 973.412478 975.790627 978.375219
50.460000 971.143255 973.485210 975.806700 975.883753 978.353569 980.920006
50.560000 973.280360 975.795783 978.083201 978.201704 980.697242 983.519196
50.660000 976.006431 978.158224 980.369280 980.538863 982.884530 985.812882
50.760000 978.300129 980.569834 983.013481 983.212412 985.727206 989.385943
50.860000 980.534116 982.797818 985.266455 985.561531 988.542504 992.219248
50.960000 982.291906 984.951423 987.445059 987.760814 990.811773 994.408029
51.060000 984.436564 986.858643 989.739233 989.972268 993.038368 996.921615
51.160000 986.280316 988.902085 992.230828 992.322220 995.636939 999.713036
51.260000 988.191194 991.052191 994.590861 994.687000 998.319491 1001.637079
51.360000 990.052110 993.373033 997.139185 997.099825 1000.776346 1003.815794
51.460000 992.946296 996.334354 999.703215 999.613695 1002.944383 1005.608094
51.560000 996.466688 999.745506 1002.634599 1002.565899 1005.373436 1008.023204
51.660000 1000.352124 1002.907143 1005.494831 1005.458370 1007.918515 1010.178959
51.760000 1003.162792 1005.598237 1008.081185 1008.023773 1010.373451 1012.914745
51.860000 1005.635998 1008.034967 1010.527133 1010.578283 1013.165207 1016.076078
51.960000 1007.903479 1010.533769 1012.917237 1013.040331 1015.699873 1018.716059
52.060000 1010.459575 1012.888723 1015.210858 1015.516961 1018.377203 1021.271728
52.160000 1013.004846 1015.352047 1018.151893 1018.223879 1021.161235 1023.863717
52.260000 1015.702079 1018.116642 1020.997434 1021.040877 1024.005400 1025.994607
52.360000 1018.295160 1020.852858 1023.795003 1023.665865 1026.393445 1028.264833
52.460000 1020.970849 1023.847533 1026.697336 1026.407649 1028.802121 1030.427967
52.560000 1024.609355 1027.371042 1029.698871 1029.380481 1031.252749 1032.763789
52.660000 1030.045034 1031.960362 1033.596782 1033.694015 1035.464514 1037.988414
52.760000 1032.747165 1034.347581 1036.267472 1036.448808 1038.595638 1041.184554
52.860000 1034.618313 1036.253481 1038.566056 1038.669115 1041.017511 1043.712066
52.960000 1036.516155 1038.150761 1040.738324 1040.828506 1043.332242 1046.197226
53.060000 1038.253267 1040.257633 1042.812026 1042.896315 1045.438652 1048.165222
53.160000 1040.106942 1042.124248 1044.775532 1044.883563 1047.575180 1050.489921
53.260000 1042.154072 1044.048464 1046.694010 1046.955057 1050.053005 1052.729323
53.360000 1043.942088 1046.114324 1048.757800 1048.978615 1052.170276 1054.829372
53.460000 1046.099170 1048.370181 1050.935111 1051.214380 1054.307197 1056.747258
53.560000 1048.247804 1050.472105 1053.412215 1053.415658 1056.371855 1058.198728
53.660000 1050.294359 1052.697606 1055.804013 1055.604861 1058.429751 1060.027874
53.760000 1052.641789 1055.375206 1058.382561 1058.015977 1060.389462 1061.849902
53.860000 1055.837933 1058.716551 1060.976133 1060.715653 1062.642326 1063.788656
53.960000 1059.825211 1062.197968 1063.856291 1063.676328 1065.118902 1066.736652
54.060000 1064.584043 1065.977253 1067.377940 1067.576010 1069.289495 1071.410978
54.160000 1066.909008 1068.342792 1070.114619 1070.235629 1072.170626 1074.198798
54.260000 1068.974205 1070.556417 1072.649624 1072.583894 1074.395597 1076.106960
54.360000 1071.093663 1073.141864 1075.196444 1075.164740 1077.080637 1079.296274
54.460000 1073.700023 1076.204691 1078.297171 1078.366138 1080.690699 1083.073174
54.560000 1077.589503 1079.271416 1081.404282 1081.499045 1083.687344 1085.649023
54.660000 1079.582246 1081.651961 1083.982542 1083.942943 1086.199558 1088.139691
54.760000 1082.003304 1084.035733 1086.301574 1086.166631 1088.246357 1089.984984
54.860000 1083.860364 1086.073245 1088.233323 1088.104573 1090.129443 1091.670128
54.960000 1085.778937 1087.933141 1090.058591 1089.896609 1091.789786 1093.173369
55.060000 1087.478786 1089.581768 1091.735866 1091.583719 1093.512814 1094.925912
55.160000 1089.564997 1091.470246 1093.453477 1093.313178 1095.081829 1096.860551
55.260000 1091.606703 1093.584788 1095.298199 1095.239100 1096.874817 1098.548903
55.360000 1093.891062 1095.690762 1097.219691 1097.184867 1098.760099 1100.200183
55.460000 1095.946641 1097.611006 1099.093177 1099.124613 1100.660560 1102.283335
55.560000 1098.076226 1099.610262 1101.259773 1101.338627 1103.055322 1104.976662
55.660000 1100.337341 1101.836798 1103.548777 1103.659781 1105.464536 1107.641132
55.760000 1102.652516 1104.215326 1106.186478 1106.264842 1108.293437 1110.632219
55.860000 1104.523980 1106.400024 1108.679770 1108.661228 1110.944051 1113.112848
55.960000 1107.017725 1109.187180 1111.322786 1111.285221 1113.335170 1115.591676
56.060000 1110.442197 1112.644791 1114.617235 1114.753352 1116.958644 1119.335648
56.160000 1113.143068 1115.014523 1117.319236 1117.386966 1119.810872 1122.299345
56.260000 1115.304668 1117.257724 1119.962856 1119.949035 1122.521549 1124.958831
56.360000 1117.304105 1119.592106 1122.240639 1122.287791 1124.993911 1127.692954
56.460000 1119.343004 1121.794515 1124.531974 1124.546175 1127.354063 1130.120000
56.560000 1121.250366 1123.974254 1126.787665 1126.769460 1129.487316 1132.095371
56.660000 1123.708500 1126.151308 1129.023471 1128.990800 1131.693289 1134.551544
56.760000 1126.086951 1128.596232 1131.273114 1131.412674 1134.159769 1137.125405
56.860000 1129.050466 1131.346811 1133.964518 1134.171708 1137.272989 1140.086729
56.960000 1130.973285 1133.371721 1136.289874 1136.374383 1139.473749 1142.514810
57.060000 1132.920673 1135.265952 1138.233449 1138.464004 1141.691929 1145.273622
57.160000 1134.806017 1137.166364 1140.110970 1140.488330 1143.942056 1147.353449
57.260000 1137.181378 1139.351177 1142.225958 1142.719357 1146.261398 1149.861153
57.360000 1138.943103 1141.359920 1144.397761 1144.860570 1148.557057 1151.944109
57.460000 1140.696516 1143.503205 1146.833438 1147.139839 1150.804514 1154.433272
57.560000 1143.083838 1145.848766 1149.517857 1149.646143 1153.591309 1156.964356
57.660000 1145.585017 1148.355397 1152.574803 1152.424230 1156.151823 1159.431262
57.760000 1148.018378 1151.419617 1155.656677 1155.337630 1158.947773 1162.012371
57.860000 1151.258055 1154.621667 1158.559255 1158.293506 1161.663926 1164.598272
57.960000 1154.071758 1158.065381 1161.087325 1160.997271 1163.955341 1166.815936
58.060000 1157.288170 1160.641719 1163.520372 1163.481477 1166.432357 1169.276805
58.160000 1160.505585 1163.315718 1166.032408 1165.939316 1168.639772 1171.376568
58.260000 1163.251887 1165.819769 1168.449951 1168.446143 1170.953504 1173.768123
58.360000 1166.148717 1168.816960 1171.282227 1171.257470 1173.702187 1176.584569
58.460000 1169.255827 1171.351521 1173.860491 1173.868407 1176.430463 1179.105925
58.560000 1171.276776 1173.526347 1175.987044 1176.098437 1178.555975 1181.303305
58.685000 1173.464786 1176.008470 1178.559847 1178.622232 1181.305538 1184.000706
58.810000 1176.033783 1178.226420 1180.990905 1181.044617 1183.927952 1186.496006
58.935000 1178.229175 1180.776790 1183.584732 1183.518891 1186.306855 1188.388619
59.060000 1180.984055 1183.508880 1186.127452 1186.043633 1188.528969 1190.568171
59.160000 1183.436205 1186.104589 1188.753632 1188.588110 1190.798409 1193.369908
59.260000 1186.517776 1189.146928 1191.343760 1191.223361 1193.110902 1195.700694
59.360000 1190.179022 1192.057223 1193.653512 1193.759263 1195.398276 1198.079584
59.460000 1192.564137 1194.125424 1195.746872 1195.915920 1197.778216 1200.239843
59.560000 1194.373424 1195.909258 1197.628906 1197.889219 1200.019205 1202.562442
59.660000 1196.025597 1197.607662 1199.503735 1199.745012 1201.963907 1204.681185
59.760000 1197.775410 1199.317907 1201.328885 1201.640734 1203.978064 1206.831231
59.860000 1199.591027 1201.264079 1203.402608 1203.540841 1205.866998 1208.489314
59.960000 1201.581627 1203.302959 1205.703060 1205.774667 1208.111588 1210.921797
60.060000 1203.837910 1205.977792 1208.218162 1208.436408 1210.796749 1214.654804
60.160000 1206.888040 1209.206141 1211.515988 1211.784751 1214.273134 1218.600028
60.260000 1210.187477 1212.892667 1215.381289 1215.760923 1218.994694 1222.751101
60.360000 1213.346426 1215.805654 1219.224271 1219.294515 1222.763545 1225.505405
60.460000 1216.010972 1219.088702 1222.821666 1222.587277 1225.896898 1228.167079
60.560000 1218.947298 1222.834104 1225.995824 1225.675111 1228.461414 1230.488067
60.660000 1222.685998 1225.855306 1228.504887 1228.283621 1230.705481 1232.604452
60.760000 1225.126165 1228.201099 1230.518568 1230.323976 1232.577833 1234.161284
60.860000 1227.425402 1230.143896 1232.211887 1232.151802 1234.305594 1235.915353
60.960000 1229.669957 1231.980405 1234.037384 1233.919838 1236.043183 1237.499157
61.060000 1231.754808 1233.743190 1235.805689 1235.654538 1237.518298 1238.950150
61.160000 1233.543303 1235.553933 1237.460835 1237.343634 1239.164911 1240.500236
61.260000 1235.498265 1237.404979 1239.271187 1239.160440 1240.848180 1242.428415
61.360000 1237.547508 1239.532816 1241.481034 1241.478145 1243.297579 1245.801928
61.460000 1240.186120 1241.882024 1243.791202 1243.915579 1245.998642 1248.417165
61.560000 1243.049102 1244.320404 1246.015534 1246.287163 1248.457054 1250.944700
61.660000 1244.709663 1246.355020 1248.324890 1248.628107 1251.122544 1253.481985
61.760000 1246.335471 1247.936287 1250.305217 1250.533501 1253.291548 1255.765688
61.860000 1247.640612 1249.522798 1252.011306 1252.277157 1255.250773 1257.648107
61.960000 1248.865036 1251.093235 1253.844684 1253.984548 1257.134936 1259.282552
62.060000 1250.436301 1252.823135 1255.561724 1255.659998 1258.701097 1260.897971
62.160000 1252.280013 1254.583579 1257.399100 1257.425347 1260.439887 1262.366123
62.260000 1254.380729 1256.586309 1259.482791 1259.397882 1262.095180 1264.004373
62.360000 1255.992644 1258.886251 1261.565815 1261.360824 1263.860531 1265.521847
62.460000 1258.256954 1261.415946 1263.799409 1263.535828 1265.746532 1267.390521
62.560000 1261.616101 1264.398828 1266.320937 1266.237063 1268.110803 1269.982924
62.660000 1265.085576 1267.217443 1268.948621 1268.976813 1270.887979 1272.576644
62.760000 1268.483293 1270.026050 1271.864121 1271.863122 1273.643328 1275.289447
62.860000 1270.503329 1272.314449 1274.046834 1274.046555 1275.788436 1277.441626
62.960000 1272.658981 1274.355046 1276.122652 1276.063726 1277.740778 1279.258565
63.060000 1274.711576 1276.284053 1277.974760 1277.927989 1279.543919 1280.992280
63.160000 1276.695748 1278.201837 1279.761809 1279.793539 1281.414949 1282.690993
63.260000 1278.768472 1280.293804 1281.818274 1281.863171 1283.387284 1285.147343
63.360000 1281.275851 1282.871277 1284.277648 1284.450799 1286.043086 1288.962591
63.460000 1283.955021 1285.352536 1286.990100 1287.518162 1289.671345 1294.187431
63.560000 1285.739014 1287.218808 1289.607710 1290.160850 1293.213653 1297.688239
63.660000 1287.143347 1289.088714 1292.302737 1292.627436 1296.102823 1300.487817
63.760000 1288.910190 1291.449502 1294.953352 1295.159510 1298.788518 1302.730461
63.860000 1290.747524 1293.697350 1297.763918 1297.791646 1301.747938 1305.343937
63.960000 1292.805034 1296.493175 1300.413356 1300.298576 1304.171929 1306.827245
64.060000 1294.937284 1299.195550 1303.032967 1302.769418 1306.346199 1308.965894
64.160000 1297.833895 1302.126891 1305.952691 1305.551976 1308.815720 1311.327537
