depth(m) lower_95(kyr) lower_68(kyr) median(kyr) mean(kyr) upper_68(kyr) upper_95(kyr)
26.000000 709.658288 710.606458 711.539271 711.549975 712.471040 713.493644
26.120000 711.946662 713.116968 714.343740 714.561827 715.998686 718.325716
26.240000 714.286991 715.561453 717.365030 717.540496 719.584954 721.715745
26.330000 716.166761 717.840383 720.016612 719.978775 722.053830 724.103168
26.390000 717.672787 719.459983 721.835953 721.753488 723.905333 725.704940
26.440000 719.129983 721.373764 723.749052 723.580572 725.717530 727.473491
26.490000 720.551062 723.186968 725.637975 725.488861 727.731707 729.796154
26.570000 722.721854 725.604138 728.192050 728.148496 730.660677 733.661158
26.710000 725.943335 728.698152 731.534461 731.738880 735.004752 738.570817
26.830000 728.015341 731.180241 734.312951 734.542850 738.166319 741.501404
26.950000 730.643012 733.770273 736.930418 737.197337 740.832467 744.775393
27.070000 733.105444 736.486787 739.625647 739.810335 743.429706 747.126274
27.175000 735.743099 738.663280 741.828927 742.068698 745.777947 749.059186
27.280000 738.356953 741.010508 743.942516 744.248060 747.777619 751.016966
27.370000 740.428308 742.994036 745.903045 746.196622 749.745118 752.738112
27.440000 741.951540 744.505195 747.619743 747.782942 751.260481 753.997091
27.490000 743.362809 745.623700 748.791812 748.941686 752.311325 754.901948
27.560000 744.867133 747.309139 750.384602 750.472892 753.738833 756.437948
27.645000 746.541088 749.220052 752.141330 752.254641 755.426819 758.302487
27.730000 748.603109 751.090215 754.085659 754.150970 757.144377 759.910242
27.850000 751.295023 753.779255 756.905117 756.847119 759.726752 762.431151
27.980000 754.703532 757.427239 760.304483 760.265718 763.184736 765.564914
28.090000 757.758362 760.520297 763.554976 763.558699 766.543894 769.226839
28.190000 760.683722 763.469491 766.389852 766.369615 769.298385 771.957320
28.290000 763.918550 766.487159 769.211085 769.284940 772.201120 774.550774
28.390000 766.718892 769.524335 772.201032 772.101371 774.753220 777.035611
28.480000 769.668325 772.054413 774.639482 774.542155 777.052635 779.476116
28.580000 772.567801 775.077106 777.393132 777.363671 779.675367 781.561670
28.680000 775.058144 777.718522 779.899079 779.848871 782.038727 783.867299
28.780000 777.460801 780.182390 782.424689 782.164702 784.144144 785.743673
28.890000 780.136001 782.716582 784.771793 784.556890 786.319759 787.825783
28.990000 783.017164 785.275946 787.096613 786.884239 788.537625 790.124610
29.080000 784.947931 787.111716 788.869089 788.793284 790.485629 792.037104
29.175000 787.124415 788.902186 790.660777 790.653411 792.455195 794.243872
29.270000 789.080409 790.925689 792.561698 792.616821 794.349537 796.174514
29.370000 792.012242 793.770565 795.545679 795.607143 797.533027 799.555966
29.480000 794.664956 796.350230 798.210075 798.360397 800.393213 802.948141
29.590000 796.914523 798.837036 800.895484 801.068166 803.421335 806.078682
29.690000 799.379083 801.309862 803.700984 803.761185 806.137138 808.802297
29.780000 801.347994 803.536596 806.187878 806.143139 808.604249 811.145794
29.870000 803.656299 805.894924 808.553867 808.596075 811.110213 814.136623
29.970000 805.934304 808.211888 810.811212 810.846289 813.269560 816.395160
30.080000 808.281694 810.672512 813.321318 813.455146 816.048334 819.751598
30.180000 811.464736 813.380440 815.984758 816.294640 819.090539 823.582373
30.280000 813.836565 816.256546 819.015100 819.456408 822.753246 827.034655
30.380000 816.082296 818.872043 822.184449 822.549130 826.214984 830.505542
30.470000 818.102223 821.069774 825.082076 825.176351 829.176043 833.204938
30.573333 820.415540 823.854000 827.965513 828.022034 832.217339 835.479127
30.676667 823.151399 826.721995 830.920315 830.828084 834.893788 838.050135
30.780000 825.536583 829.780447 833.742107 833.539311 837.313130 840.096133
30.880000 827.928770 832.753668 836.676993 836.270052 839.782056 842.201752
30.980000 831.511871 835.982564 839.415732 839.094676 842.261016 844.306501
31.080000 835.151999 839.598603 842.492485 842.182548 844.814769 846.956402
31.180000 839.987865 843.222950 845.657323 845.545571 847.752776 850.643854
31.280000 843.212081 846.129675 848.151509 848.229091 850.570466 853.720252
31.380000 845.890423 848.416217 850.447599 850.657934 853.190484 856.181984
31.490000 848.030694 850.478688 852.834167 853.009300 855.940060 858.342578
31.590000 850.436884 852.598180 855.153549 855.267423 858.327983 860.327196
31.680000 852.773730 855.085533 857.479175 857.471471 860.095152 861.986066
31.780000 855.038766 857.954266 860.423093 860.156896 862.307317 863.725085
31.890000 858.983326 861.727777 863.555346 863.271516 864.809996 866.073919
32.020000 863.648750 865.093070 866.608274 866.513027 867.933103 869.187790
32.160000 866.190582 867.712386 868.997245 869.028998 870.360793 871.891212
32.240000 867.708003 869.107993 870.475805 870.483807 871.785684 873.514417
32.320000 869.197266 870.499223 871.886317 871.907005 873.224898 875.063519
32.460000 871.331983 872.710609 874.197371 874.221104 875.670455 877.289286
32.570000 873.207020 874.615002 876.046512 876.117535 877.568386 879.624365
32.660000 874.691407 876.141704 877.644414 877.839832 879.470126 881.935539
32.740000 876.189524 877.807741 879.419220 879.712435 881.613542 885.147019
32.820000 877.758129 879.454735 881.454513 881.764592 884.097479 887.587727
32.910000 879.600628 881.504839 883.825991 884.185711 886.982053 890.505347
33.020000 882.121695 884.293359 887.213001 887.412932 890.722379 893.660443
33.150000 885.240859 888.347039 891.808196 891.621490 894.809702 897.679662
33.260000 889.694658 893.166003 896.373412 896.084752 898.833526 901.860092
33.330000 894.408338 897.513973 899.710568 899.683359 902.143445 904.024096
33.390000 897.174658 899.527410 901.612123 901.668787 903.945032 905.723944
33.430000 898.606443 900.613567 902.878669 902.851756 905.099375 906.729991
33.480000 900.002585 901.932758 904.349803 904.193865 906.331192 908.088423
33.530000 901.203192 903.255086 905.552126 905.431007 907.541892 909.086550
33.600000 902.743495 904.867067 907.145340 907.012410 909.115531 910.639866
33.700000 904.600967 907.032709 909.217912 909.040258 911.057061 912.559328
33.805000 906.868496 909.145235 911.342772 911.141049 913.036919 914.822917
33.910000 909.021274 911.441592 913.339258 913.236141 915.040981 916.665135
34.025000 911.537563 913.779208 915.589051 915.512882 917.252744 918.980307
34.140000 914.292153 916.174649 917.751632 917.801641 919.476091 921.246485
34.270000 917.140670 918.881083 920.368178 920.395228 921.984240 923.648812
34.350000 919.196874 920.652892 922.172384 922.222133 923.849373 925.332217
34.400000 920.303499 921.911628 923.589107 923.610256 925.347444 927.062117
34.430000 921.261209 922.850787 924.587424 924.666323 926.427019 928.721310
34.540000 924.371054 926.217822 928.333586 928.808833 931.592294 935.208413
34.670000 928.757746 931.042089 934.857514 934.983273 938.782728 941.959792
34.770000 932.466329 936.335990 939.960924 939.722424 943.318554 945.551598
34.880000 937.820730 941.941473 944.650640 944.374858 946.835867 948.611834
34.980000 942.371520 945.306700 947.474670 947.213982 949.149614 950.378418
35.090000 946.480347 948.272381 950.061616 949.890396 951.403826 952.527961
35.190000 949.115263 950.779929 952.138571 952.076820 953.392365 954.799672
35.290000 951.464449 952.905693 954.106645 954.126029 955.395212 956.696214
35.390000 953.977206 955.076125 956.320721 956.280109 957.399548 958.588397
35.480000 956.028332 957.372333 958.597787 959.053690 960.524727 965.880275
35.580000 958.062352 959.163310 960.791688 961.683769 963.835559 973.071018
35.680000 960.118539 961.566395 963.843843 964.749037 967.625036 976.964882
35.780000 962.391647 964.595368 967.674457 968.087443 970.752962 982.516087
35.880000 965.184104 968.589218 971.407698 971.873753 974.266391 985.520079
35.980000 969.289378 972.023274 974.493656 975.175596 977.872320 988.837183
36.080000 972.409034 974.760558 977.410266 978.228432 981.033341 991.773984
36.180000 975.021568 977.627418 980.391886 981.505068 985.339322 994.403477
36.280000 977.656485 980.931901 984.885675 985.812032 991.248580 996.655789
36.380000 980.968082 985.099668 990.861180 990.491924 995.629144 999.690365
36.480000 984.410431 991.115719 995.432476 995.062939 998.943199 1002.603477
36.570000 988.519250 995.405266 999.068493 998.776169 1002.250014 1006.839817
36.670000 994.060912 999.755440 1003.209403 1003.161091 1006.757801 1011.504811
36.760000 1000.286457 1003.464946 1006.818018 1006.997692 1010.672770 1014.715873
36.780000 1001.022507 1004.098509 1007.642763 1007.768488 1011.409227 1015.274422
36.870000 1005.433373 1008.334619 1011.855022 1012.060418 1015.450979 1020.356867
36.960000 1011.316174 1014.866728 1018.676846 1018.748061 1022.936964 1026.107353
36.980000 1012.239762 1015.608671 1019.514371 1019.554293 1023.813327 1026.891695
37.060000 1016.897912 1020.760203 1024.755039 1024.203154 1027.517187 1029.110750
37.080000 1017.786364 1021.545807 1025.631243 1025.030518 1028.277747 1029.955867
37.160000 1022.473388 1027.484534 1029.920583 1029.388535 1031.460842 1032.802609
37.180000 1023.296944 1028.332688 1030.816355 1030.266422 1032.318699 1033.807915
37.260000 1029.214485 1031.551356 1032.862194 1032.777505 1034.317057 1035.900039
37.360000 1032.584827 1033.962297 1035.175256 1035.277833 1036.765884 1038.387650
37.460000 1034.376056 1035.874356 1037.268424 1037.404240 1038.956045 1041.404064
37.550000 1036.230979 1037.504106 1039.008964 1039.188918 1040.920364 1043.260073
37.650000 1037.804590 1039.340468 1040.980289 1041.186961 1043.092345 1045.541220
37.750000 1039.529481 1041.289675 1043.020241 1043.279374 1045.296096 1048.338270
37.850000 1041.259753 1043.184377 1045.093411 1045.415771 1047.771917 1050.883704
37.940000 1042.955366 1044.986070 1047.115016 1047.418033 1049.944056 1053.274019
38.040000 1045.054853 1046.899768 1049.513581 1049.803593 1052.845269 1055.442066
38.140000 1047.087027 1049.039382 1052.194922 1052.266756 1055.434209 1057.816437
38.240000 1049.326764 1051.769191 1055.196363 1054.977016 1058.133846 1059.764408
38.340000 1051.994971 1055.145500 1058.297469 1057.903943 1060.451592 1061.718570
38.440000 1056.128011 1059.077814 1061.391971 1061.003564 1062.808384 1064.043812
38.540000 1061.042006 1062.835573 1064.068386 1063.986639 1065.113396 1066.513741
38.640000 1064.109278 1065.171271 1066.218521 1066.310724 1067.401031 1069.001604
38.730000 1066.006223 1066.951097 1068.021235 1068.159764 1069.463310 1071.064753
38.830000 1067.387499 1068.566262 1069.779953 1069.892851 1071.209246 1073.050820
38.930000 1068.859278 1070.072391 1071.346575 1071.470004 1072.867082 1074.751198
39.030000 1070.222416 1071.590996 1072.905285 1073.034912 1074.480207 1076.358349
39.140000 1072.212918 1073.453408 1074.684390 1074.780127 1076.103157 1077.939299
39.230000 1073.655438 1074.950126 1076.209009 1076.264920 1077.545323 1079.238770
39.330000 1075.400178 1076.603874 1077.807411 1077.898035 1079.222496 1080.950914
39.440000 1077.175126 1078.347098 1079.650616 1079.732304 1081.109028 1082.856567
39.540000 1078.636853 1079.969573 1081.290818 1081.437878 1082.870891 1085.059630
39.640000 1080.441328 1081.887955 1083.304151 1083.538523 1085.123922 1088.000533
39.740000 1082.695718 1084.150407 1086.079070 1086.474597 1088.961322 1091.602015
39.850000 1085.019783 1086.722762 1089.362806 1089.382544 1091.951110 1094.256241
39.960000 1087.249721 1089.338612 1092.076585 1091.895222 1094.289479 1096.394495
40.070000 1089.025210 1091.736925 1094.273010 1094.051492 1096.331633 1098.312590
40.190000 1091.654851 1094.013900 1096.362574 1096.228705 1098.232032 1100.192563
40.310000 1094.352813 1096.495097 1098.606268 1098.447654 1100.238092 1101.941733
40.410000 1096.800017 1098.736293 1100.465783 1100.420198 1102.130874 1103.740050
40.500000 1099.476530 1100.907504 1102.490419 1102.522625 1104.124977 1105.741094
40.580000 1101.094037 1102.687918 1104.263840 1104.335027 1106.102751 1107.988926
40.720000 1103.747788 1105.169158 1107.011568 1107.050665 1108.893059 1110.859679
40.790000 1105.287235 1106.793756 1108.520635 1108.590403 1110.380917 1112.135950
40.860000 1106.625239 1108.455319 1110.290489 1110.251039 1112.059046 1113.606740
40.930000 1108.389172 1110.285164 1112.196789 1112.096674 1113.797313 1115.438920
41.020000 1111.377126 1113.147343 1114.879349 1114.903652 1116.633573 1118.685266
41.120000 1113.827402 1115.573229 1117.401110 1117.394801 1119.304029 1121.262025
41.220000 1115.939765 1117.727278 1119.636074 1119.678944 1121.610976 1123.737630
41.350000 1118.249074 1120.259877 1122.174088 1122.290254 1124.338524 1126.548232
41.470000 1120.541306 1122.595911 1124.486515 1124.586992 1126.702006 1128.793005
41.600000 1122.919791 1124.727563 1126.924053 1126.936427 1129.080978 1131.138185
41.720000 1125.010178 1126.995510 1129.112533 1129.164469 1131.357372 1133.335557
41.820000 1126.917815 1128.983975 1131.312495 1131.250442 1133.489013 1135.552349
41.920000 1129.380348 1131.240418 1133.557446 1133.578669 1135.789814 1138.049348
42.010000 1131.261365 1133.617929 1135.728715 1135.850776 1138.185929 1140.810348
42.110000 1134.238284 1136.590660 1138.764800 1139.101585 1141.954587 1145.646246
42.190000 1136.366865 1138.698299 1141.189347 1141.592436 1144.834089 1148.549882
42.280000 1138.961685 1140.908088 1143.607740 1144.015642 1147.466527 1151.001771
42.380000 1140.825995 1143.142253 1146.094939 1146.438291 1150.010872 1153.686077
42.480000 1142.743946 1145.089890 1148.437619 1148.667044 1152.518224 1155.458453
42.580000 1144.646508 1147.260525 1150.728347 1150.860631 1154.655686 1157.406676
42.690000 1146.879976 1149.577637 1153.265137 1153.350705 1157.152118 1159.951277
42.790000 1148.884925 1151.631696 1155.668486 1155.613805 1159.367569 1162.312776
42.900000 1150.863468 1153.868469 1158.191162 1157.969536 1161.774549 1164.892337
43.000000 1152.950955 1155.700485 1160.193894 1159.993632 1163.907751 1167.453789
43.090000 1154.541057 1157.279768 1161.755389 1161.674800 1165.618677 1169.434838
43.190000 1156.360198 1159.076052 1163.436553 1163.536694 1167.772102 1172.060387
43.280000 1157.920836 1160.642432 1164.987747 1165.154512 1169.365805 1174.290675
43.380000 1159.726875 1162.427534 1166.777346 1166.949237 1171.228114 1176.355596
43.480000 1161.063984 1163.988528 1168.691500 1168.824527 1173.430765 1178.618580
43.580000 1162.876074 1165.648315 1170.452675 1170.850007 1175.942116 1181.013816
43.690000 1164.989327 1167.643275 1172.776000 1173.286463 1179.159613 1183.046825
43.790000 1166.875675 1169.836535 1175.248303 1175.666206 1181.914760 1184.904961
43.890000 1168.942525 1171.852245 1178.710211 1178.367114 1184.486097 1187.143005
43.990000 1171.049108 1173.940277 1182.971747 1181.264554 1187.131976 1189.835321
44.080000 1173.251098 1175.985429 1186.594308 1184.483191 1190.726263 1195.731932
44.170000 1174.964940 1178.114107 1189.191015 1188.145796 1194.811079 1206.839216
44.260000 1176.883528 1180.491554 1191.212499 1192.431655 1206.639068 1211.050456
44.350000 1179.498102 1183.460622 1193.348744 1196.376499 1210.374278 1213.998672
44.450000 1182.789273 1186.699331 1203.228200 1200.465171 1213.703356 1217.018055
44.550000 1187.451176 1190.380674 1208.102809 1204.491036 1215.994428 1219.232849
44.650000 1190.500227 1193.508793 1211.808449 1208.650394 1217.947686 1221.315854
44.770000 1200.459329 1209.281014 1215.693286 1214.873433 1220.854942 1223.904465
44.880000 1211.330452 1214.902696 1220.268345 1219.563219 1223.600332 1226.844711
44.980000 1215.865356 1220.302757 1224.151451 1223.721133 1226.930741 1230.166410
45.090000 1220.766669 1224.765836 1227.652927 1227.511699 1230.425471 1233.133118
45.180000 1224.332780 1227.404435 1230.263518 1230.298276 1233.109791 1236.154149
45.270000 1227.170474 1230.137888 1232.717086 1232.763832 1235.656700 1238.322898
45.360000 1230.268024 1232.986801 1235.658359 1235.492940 1238.092314 1240.009767
45.450000 1233.102855 1235.868439 1238.436309 1238.205551 1240.464525 1241.785699
45.550000 1237.053445 1240.189012 1241.962887 1241.747898 1243.468951 1244.855100
45.660000 1242.455482 1243.813810 1245.213960 1245.319041 1246.883654 1248.692796
45.770000 1245.341025 1246.717331 1248.481572 1248.535009 1250.351091 1252.173146
45.830000 1246.543070 1248.165902 1249.967547 1250.005672 1251.875595 1253.576450
45.870000 1247.377527 1249.034266 1250.946556 1250.973330 1252.900867 1254.568029
45.900000 1248.128392 1249.808787 1251.690355 1251.700435 1253.676456 1255.433397
45.940000 1248.922546 1250.686816 1252.576831 1252.612802 1254.594697 1256.327389
46.010000 1250.430329 1252.103675 1254.119096 1254.132881 1256.045478 1257.873274
46.110000 1252.197618 1254.232709 1256.455235 1256.421233 1258.590343 1260.518039
46.220000 1254.412055 1256.558262 1258.803150 1258.850182 1261.147772 1263.244889
46.340000 1257.401328 1259.401919 1261.831295 1261.718414 1264.051584 1265.744271
46.430000 1259.526070 1261.750867 1264.144625 1263.981641 1266.177135 1267.725293
46.530000 1262.268988 1264.697903 1266.735432 1266.571201 1268.379245 1270.082473
46.630000 1265.646446 1267.465034 1269.326080 1269.254314 1270.980312 1272.980175
46.730000 1268.178159 1270.024580 1271.645053 1271.712649 1273.482611 1275.398892
46.830000 1270.542087 1272.198439 1273.831388 1273.918478 1275.760523 1277.353619
46.940000 1272.876737 1274.503517 1276.324378 1276.268830 1278.080759 1279.531552
47.040000 1274.822757 1276.561339 1278.382601 1278.308008 1279.988117 1281.285667
47.130000 1276.733037 1278.470905 1280.263087 1280.135451 1281.735697 1282.880694
47.230000 1279.252938 1280.823696 1282.406375 1282.293190 1283.694062 1285.029271
47.330000 1281.793190 1283.305015 1284.618091 1284.642613 1285.923144 1287.603891
47.430000 1284.352787 1285.594228 1286.912707 1287.066552 1288.587598 1291.000116
47.530000 1286.143463 1287.404928 1288.983387 1289.186642 1290.928596 1293.138885
47.630000 1287.806348 1289.091636 1290.875132 1291.142053 1293.303265 1295.430509
47.730000 1289.381529 1290.826608 1292.820604 1292.989517 1295.170960 1297.342776
47.830000 1290.927304 1292.683359 1294.738253 1294.866064 1297.157875 1299.123281
47.900000 1292.149077 1293.983350 1296.082427 1296.171506 1298.466664 1300.496084
48.000000 1294.001754 1295.754813 1297.992508 1298.030327 1300.306863 1302.058748
48.060000 1295.167393 1297.076366 1299.241193 1299.244042 1301.431897 1303.041227
48.130000 1296.578853 1298.676119 1300.878043 1300.737925 1302.861087 1304.441312
48.200000 1297.877534 1300.171665 1302.345208 1302.176492 1304.069598 1305.530609
48.310000 1299.873956 1302.279052 1304.419167 1304.204247 1306.015232 1307.263654
48.430000 1302.491242 1304.744862 1306.561439 1306.372964 1307.990717 1309.232799
48.505000 1304.139951 1306.296585 1307.911884 1307.777192 1309.281876 1310.616112
48.580000 1305.988069 1307.706418 1309.263150 1309.160328 1310.548180 1311.757156
48.655000 1307.518382 1309.173877 1310.589918 1310.503589 1311.835161 1313.080015
48.730000 1309.156378 1310.514295 1311.825991 1311.795784 1313.046320 1314.312102
48.860000 1311.428006 1312.681606 1313.840921 1313.815870 1314.934455 1316.154591
48.950000 1312.788027 1314.111754 1315.230296 1315.209405 1316.235835 1317.469544
49.040000 1314.217572 1315.616672 1316.631752 1316.622593 1317.688797 1318.779356
49.100000 1315.451107 1316.591127 1317.668028 1317.642710 1318.661287 1319.858682
49.180000 1317.062238 1318.147717 1319.185817 1319.280388 1320.344294 1322.125998
49.240000 1318.510427 1319.535998 1320.636745 1320.922985 1322.329687 1324.718507
49.290000 1319.646921 1320.705469 1322.028755 1322.440270 1324.246961 1327.252253
49.360000 1321.016852 1322.142866 1323.935846 1324.402460 1326.736913 1329.988087
49.430000 1322.214738 1323.686870 1325.940874 1326.352572 1329.090579 1332.875901
49.490000 1323.266719 1324.932971 1327.586179 1328.042271 1331.182776 1335.546218
