depth(m) lower_95(kyr) lower_68(kyr) median(kyr) mean(kyr) upper_68(kyr) upper_95(kyr)
105.890000 698.458870 699.401689 700.368623 700.341892 701.289158 702.102705
105.965000 699.147411 700.116958 701.106206 701.141615 702.153122 703.490333
106.040000 699.770017 700.751196 701.890437 701.957964 703.128436 704.577354
106.115000 700.333486 701.389947 702.657077 702.720632 704.028989 705.480877
106.190000 701.068480 702.055341 703.488430 703.500124 704.874897 706.259539
106.265000 701.685184 702.730645 704.227453 704.236199 705.722235 707.040313
106.340000 702.261303 703.575928 704.911113 704.961403 706.494253 707.778226
106.415000 702.773761 704.182226 705.638782 705.650992 707.149065 708.433121
106.490000 703.326488 704.854422 706.379650 706.365830 707.798673 709.333120
106.565000 704.071951 705.450164 707.100386 707.068227 708.428854 710.213561
106.640000 704.690824 706.079733 707.795071 707.735910 709.169495 710.983504
106.751250 705.690117 707.164059 708.706847 708.733281 710.217647 712.299547
106.862500 706.564869 708.227637 709.610807 709.696559 711.227017 713.412354
106.973750 707.566999 709.246350 710.473536 710.675841 712.341845 714.399265
107.085000 708.716164 710.129546 711.374616 711.665732 713.379957 715.425551
107.160000 709.437402 710.779568 712.014590 712.344397 714.197283 716.161247
107.235000 710.088091 711.401199 712.611288 713.019380 715.026534 717.082250
107.310000 710.707848 711.915073 713.193071 713.640819 715.750482 717.927370
107.385000 711.377678 712.462762 713.759459 714.256175 716.493531 718.559959
107.460000 711.933376 712.997001 714.343423 714.852253 717.178075 719.203152
107.535000 712.453180 713.513138 714.974257 715.433420 717.738824 719.972162
107.610000 712.953762 714.013541 715.614227 716.016431 718.292174 720.513324
107.685000 713.434529 714.566152 716.258219 716.619419 718.943274 720.974010
107.785000 714.171638 715.266508 717.076653 717.389717 719.681104 721.699449
107.885000 714.938116 715.937549 717.921110 718.159290 720.422951 722.400955
107.985000 715.533684 716.668738 718.737522 718.920017 721.218000 723.166151
108.085000 716.226840 717.416265 719.543321 719.679790 721.918462 723.837954
108.185000 716.871571 718.176791 720.359152 720.436304 722.608719 724.447770
108.285000 717.489628 719.026518 721.214912 721.219926 723.286250 725.029192
108.385000 718.328257 719.845225 722.110270 722.018879 724.063397 725.656049
108.485000 719.043440 720.814274 722.903664 722.849453 724.923067 726.384830
108.585000 719.818966 721.772891 723.765641 723.717650 725.638774 727.171863
108.660000 720.413622 722.469879 724.455181 724.374066 726.296871 727.991460
108.735000 721.040254 723.112223 725.079956 725.042636 726.875966 728.645517
108.810000 721.784504 723.998703 725.801529 725.763659 727.518903 729.310181
108.885000 722.753503 724.841372 726.549043 726.506074 728.191191 729.894516
108.960000 723.766813 725.669831 727.267003 727.268972 728.876267 731.094746
109.035000 724.362242 726.494537 727.999906 728.010682 729.570948 731.857843
109.110000 725.211561 727.230324 728.662598 728.728394 730.315266 732.716500
109.185000 725.976379 727.846964 729.412235 729.447518 731.052790 733.202168
109.260000 726.569488 728.598338 730.136942 730.156187 731.753747 733.870014
109.335000 727.090098 729.244991 730.832590 730.836996 732.408014 734.533637
109.410000 727.657697 729.941195 731.541368 731.525845 733.107651 735.285559
109.485000 728.122498 730.519627 732.217543 732.174838 733.753098 735.923996
109.560000 728.599034 731.155078 732.877266 732.805757 734.434566 736.564629
109.635000 729.088244 731.716369 733.457603 733.419604 735.120949 737.184072
109.710000 729.594807 732.269987 734.126051 734.041360 735.848550 737.844343
109.785000 730.455717 732.963283 734.707627 734.670041 736.479100 738.455481
109.860000 731.196275 733.511948 735.317869 735.290181 737.202420 738.996575
109.935000 731.697731 734.156810 735.930231 735.918034 737.958148 739.482334
110.010000 732.329745 734.712366 736.506750 736.520991 738.688435 740.127643
110.085000 732.794779 735.275207 737.106663 737.149182 739.383003 740.666645
110.160000 733.290960 735.836009 737.710501 737.748601 739.968830 741.259771
110.235000 734.083757 736.436157 738.268606 738.339950 740.565760 741.726669
110.310000 734.860066 736.994744 738.833856 738.931644 741.137098 742.247122
110.385000 735.500425 737.675602 739.396587 739.540200 741.690296 742.844833
110.460000 736.110254 738.256212 739.970853 740.129953 742.360964 743.363446
110.535000 736.751572 738.877569 740.549251 740.734620 742.969092 743.964152
110.610000 737.345176 739.470694 741.140329 741.326419 743.476082 744.570812
110.685000 737.960605 740.098154 741.836747 741.931403 743.999351 745.034837
110.760000 738.748905 740.807023 742.513975 742.568932 744.579421 745.498981
110.835000 739.287675 741.451545 743.273267 743.218562 745.105497 746.034367
110.910000 740.126841 742.039695 744.077984 743.867120 745.611498 746.503462
110.985000 740.741749 742.686193 744.831554 744.490323 746.157790 747.039179
111.085000 741.604421 743.440344 745.635754 745.256545 746.817434 747.669382
111.185000 742.307296 744.238308 746.457863 746.015687 747.456893 748.297888
111.285000 743.057104 745.028910 747.184295 746.761833 748.150639 748.871104
111.360000 743.719962 745.614572 747.764639 747.328163 748.647201 749.341980
111.435000 744.363883 746.309629 748.343176 747.893504 749.161943 749.862134
111.510000 744.914038 746.879671 748.863474 748.426378 749.634749 750.299164
111.585000 745.424766 747.513189 749.373070 748.979601 750.153968 750.844746
111.660000 745.930577 748.088363 749.878824 749.516275 750.634363 751.349018
111.735000 746.545273 748.667568 750.396270 750.040938 751.166814 751.750388
111.810000 746.951916 749.202645 750.907141 750.565561 751.656373 752.304703
111.885000 747.464291 749.829285 751.445246 751.084007 752.129835 752.843809
111.960000 747.998605 750.436410 751.972171 751.588584 752.617067 753.294125
112.035000 748.385313 751.093964 752.450271 752.090466 753.081759 753.959210
112.110000 748.876464 751.635298 752.945277 752.600419 753.577939 754.502442
112.185000 749.460844 752.161352 753.401570 753.103462 754.071269 754.993189
112.260000 750.008157 752.706394 753.866457 753.626478 754.578566 755.676940
112.335000 750.561546 753.263008 754.388109 754.153214 755.093061 756.312320
112.410000 751.093138 753.871276 754.899279 754.673797 755.635498 756.958389
112.485000 751.619088 754.466372 755.437057 755.212002 756.138663 757.531561
112.560000 752.240401 755.058456 755.960354 755.762003 756.687020 758.121280
112.635000 752.838935 755.504636 756.456483 756.294474 757.232205 758.635502
112.710000 753.311983 756.051972 756.963096 756.854384 757.855777 759.304756
112.785000 754.035523 756.590082 757.489184 757.430424 758.464508 760.080199
112.860000 754.780176 757.161447 758.042061 758.022371 759.110746 760.748095
112.935000 755.339481 757.704526 758.571850 758.617930 759.825125 761.690601
113.010000 755.898316 758.223117 759.122228 759.233273 760.479638 762.620301
113.085000 756.510602 758.794790 759.722451 759.872772 761.155539 763.357357
113.160000 757.250809 759.328811 760.339204 760.545136 761.972189 764.114229
113.235000 757.843215 759.898793 761.008673 761.246384 762.780069 764.887245
113.310000 758.700184 760.483127 761.760738 761.981447 763.598635 765.777580
113.385000 759.674153 761.103088 762.522823 762.708339 764.408210 766.675557
113.460000 760.395106 761.823198 763.309599 763.517496 765.278310 767.521225
113.535000 761.163581 762.571866 764.124637 764.321852 766.147876 768.266856
113.610000 761.833834 763.297350 765.021998 765.149818 767.092977 769.080358
113.685000 762.478280 764.086656 765.856418 766.005342 768.041285 769.871308
113.760000 763.077292 764.972358 766.729970 766.855928 768.876874 770.724841
113.835000 763.823149 765.784295 767.654818 767.720377 769.715350 771.496674
113.910000 764.615797 766.627651 768.557963 768.591430 770.593982 772.284108
113.985000 765.350586 767.534801 769.574694 769.485433 771.450273 773.057367
114.060000 766.424195 768.328090 770.477581 770.334735 772.260604 773.907362
114.135000 767.400602 769.211302 771.400241 771.219118 773.118879 774.619825
114.210000 768.454538 770.127154 772.254470 772.109709 774.035926 775.521444
114.285000 769.193239 771.093530 773.055330 772.971383 774.812167 776.391711
114.360000 770.256284 772.082877 774.005643 773.906643 775.697599 777.271331
114.435000 771.249150 773.053236 774.870535 774.828014 776.559633 778.213177
114.510000 772.036144 773.896067 775.735587 775.721675 777.497131 779.105441
114.585000 773.113596 774.877130 776.663231 776.636341 778.284386 779.942398
114.660000 773.880885 775.694933 777.569318 777.474053 779.107737 780.873381
114.735000 774.926552 776.505592 778.422358 778.267513 779.744423 781.487207
114.810000 775.547013 777.271723 779.213074 779.038980 780.646552 782.270342
114.885000 776.323956 778.121205 779.976634 779.823028 781.376862 782.847493
114.960000 777.324037 778.934062 780.744073 780.596404 782.120024 783.476877
115.035000 777.999416 779.665936 781.439406 781.318696 782.816028 784.126073
115.110000 778.775295 780.576223 782.167608 782.052499 783.516737 784.837964
115.185000 779.613132 781.377550 782.847967 782.789210 784.199186 785.410063
115.260000 780.383240 782.169460 783.547230 783.511072 784.891755 786.222793
115.335000 781.336352 783.038935 784.293178 784.290271 785.598346 786.893071
115.410000 782.228362 783.889159 785.168842 785.148055 786.458515 787.613819
115.485000 783.083535 784.828235 786.094478 786.033928 787.285191 788.536923
115.560000 784.078608 785.617078 786.868621 786.870115 788.134863 789.390866
115.635000 784.924379 786.397081 787.700696 787.686022 788.971854 790.157627
115.710000 785.743219 787.161899 788.436767 788.445790 789.745602 790.994559
115.785000 786.601375 787.945494 789.199370 789.207927 790.524519 791.750708
115.901667 787.700252 789.057783 790.410364 790.399739 791.721862 793.056613
116.018333 789.028157 790.353497 791.655881 791.627088 792.935039 794.111469
116.135000 790.434864 791.624572 792.843340 792.813759 793.995638 795.047936
116.235000 791.515616 792.704352 793.891642 793.861299 794.999697 796.098735
116.335000 792.631260 793.851306 794.877704 794.858948 795.900805 796.947551
116.435000 793.747720 794.774737 795.756371 795.784748 796.772425 797.846067
116.535000 794.734691 795.704446 796.678414 796.689000 797.705780 798.834746
116.635000 795.521707 796.449819 797.470861 797.480569 798.471994 799.577368
116.735000 796.372263 797.202636 798.202784 798.259265 799.297094 800.418594
116.835000 796.975381 797.968733 798.968793 799.034470 800.037184 801.377607
116.935000 797.806688 798.707946 799.734662 799.824522 800.900991 802.430100
117.035000 798.497638 799.544344 800.557523 800.696264 801.854562 803.454554
117.135000 799.250880 800.379154 801.472976 801.624496 802.943777 804.831089
117.235000 800.169133 801.210239 802.490337 802.640531 804.074293 805.848855
117.335000 801.042970 802.058944 803.602696 803.682192 805.196135 807.122978
117.435000 802.022871 803.182208 804.825919 804.901354 806.585382 808.392782
117.535000 802.906019 804.344652 806.050152 806.177182 808.109077 809.772567
117.635000 804.070649 805.657237 807.535414 807.639724 809.649235 811.535762
117.735000 805.339974 807.339201 809.252116 809.296417 811.311518 813.009978
117.835000 807.146039 809.142758 811.132185 811.114611 813.096871 815.078660
117.935000 809.164622 810.930647 813.034654 813.030846 815.053066 817.216755
118.035000 811.098530 812.952595 815.075139 815.028929 816.966816 819.070472
118.135000 813.120157 815.145092 817.007423 817.108424 819.177414 821.508581
118.235000 815.109668 817.044051 819.058994 819.175269 821.344074 823.524612
118.335000 816.842855 818.859327 820.902930 820.995553 823.117064 825.668910
118.435000 818.651466 820.457125 822.623939 822.727627 824.907570 827.714357
118.535000 820.010257 821.937592 824.128767 824.317732 826.722872 829.544909
118.635000 821.273675 823.291473 825.696179 825.982042 828.815898 831.684302
118.735000 822.642084 824.831242 827.527894 827.697812 830.731446 833.785864
118.835000 824.305836 826.601473 829.335330 829.497891 832.495405 835.635918
118.935000 825.787327 828.152956 831.122562 831.281334 834.414279 837.140333
119.035000 827.216870 829.967922 833.159157 833.061226 836.200843 838.685122
119.135000 828.553566 831.701789 835.005243 834.828945 837.743586 840.414898
119.235000 830.273777 833.707925 837.018781 836.760293 839.778680 842.026958
119.335000 832.480943 835.743471 838.882269 838.635794 841.343775 843.533774
119.435000 834.869610 837.905929 840.739839 840.535076 842.926546 845.190042
119.540000 837.016431 840.262019 842.779720 842.573603 844.798024 846.797418
119.640000 838.916446 842.293164 844.602600 844.363708 846.389455 848.378107
119.740000 840.774131 843.984140 846.280026 846.065412 848.180559 850.130870
119.840000 842.195647 845.475233 847.740242 847.564831 849.860952 851.291405
119.940000 843.457548 846.709908 848.991187 848.857033 851.112742 852.668799
120.040000 844.865170 847.974387 850.266856 850.090668 852.248505 853.944238
120.140000 846.062314 849.234122 851.556391 851.328335 853.404695 855.172227
120.240000 847.561715 850.480521 852.814741 852.587460 854.585400 856.327715
120.340000 849.336655 851.944022 854.082837 853.879723 855.731116 857.367422
120.435000 850.600920 853.290681 855.288469 855.122199 856.933181 858.553350
120.535000 852.582835 854.836664 856.507432 856.445615 858.155881 859.761891
120.635000 854.582684 856.183724 857.764336 857.708530 859.323872 860.666767
120.735000 855.951773 857.484136 859.003208 859.011491 860.567307 861.817275
120.835000 857.420901 858.908474 860.543842 860.463396 861.973124 863.122424
120.935000 858.939651 860.599098 862.111043 862.007580 863.403138 864.459446
121.035000 860.846610 862.336266 863.610116 863.534930 864.693218 865.715469
121.135000 862.548322 863.913457 865.081692 865.020460 866.112183 867.088382
121.235000 863.926548 865.287315 866.311020 866.255355 867.258849 868.136861
121.335000 865.467956 866.514269 867.401128 867.372128 868.246403 869.066971
121.435000 866.596788 867.461513 868.299898 868.311613 869.159164 870.048864
121.535000 867.402445 868.265189 869.112453 869.082821 869.892541 870.714008
121.635000 868.149932 868.974469 869.813445 869.802039 870.642333 871.432182
121.735000 868.849830 869.691972 870.495400 870.498084 871.300711 872.138288
121.835000 869.480522 870.364405 871.164094 871.175681 872.015959 872.916045
121.935000 870.112553 870.972105 871.823061 871.821759 872.664533 873.538091
122.035000 870.750789 871.647409 872.469897 872.466759 873.320373 874.217427
122.168333 871.581643 872.426103 873.293895 873.285123 874.157993 874.986201
122.301667 872.397371 873.233032 874.121769 874.102612 874.993423 875.789401
122.435000 873.198085 874.109912 874.907360 874.931435 875.820805 876.640653
122.535000 873.872310 874.705072 875.561412 875.578736 876.499455 877.357753
122.635000 874.491328 875.361932 876.211867 876.222414 877.156160 877.949977
122.735000 875.117253 875.983917 876.823811 876.860954 877.801794 878.645155
122.835000 875.768378 876.652957 877.449784 877.505022 878.499179 879.251420
122.935000 876.360045 877.288994 878.081904 878.158133 879.132042 879.988693
123.035000 877.135536 877.908128 878.731635 878.815273 879.817356 880.607514
123.135000 877.704906 878.568420 879.392274 879.464293 880.469251 881.300055
123.235000 878.352400 879.226493 880.050916 880.126065 881.188809 881.978989
123.335000 879.052928 879.858384 880.667807 880.776486 881.813043 882.568078
123.435000 879.679839 880.479895 881.300096 881.444447 882.502636 883.296046
123.535000 880.364982 881.123292 881.997546 882.104435 883.220617 883.978619
123.635000 881.027877 881.793134 882.691286 882.773254 883.896839 884.667612
123.735000 881.687784 882.398730 883.382103 883.435006 884.530125 885.368740
123.835000 882.319110 883.040037 884.020308 884.103276 885.194231 886.130240
123.935000 883.001219 883.739663 884.693645 884.783861 885.847759 886.744973
124.035000 883.730426 884.420512 885.421016 885.469943 886.542326 887.613888
124.135000 884.329806 885.061774 886.064597 886.139830 887.221212 888.313638
124.235000 884.999957 885.755511 886.779184 886.816303 887.889660 888.957986
124.335000 885.652025 886.447552 887.455590 887.510861 888.601142 889.739224
124.435000 886.296151 887.102312 888.138987 888.223280 889.330012 890.512141
124.535000 887.064568 887.846374 888.876545 888.964862 890.087535 891.369224
124.635000 887.698299 888.597286 889.633523 889.703515 890.840964 892.241555
124.735000 888.444614 889.272854 890.340780 890.442688 891.590930 893.127141
124.835000 889.170976 890.027961 891.088654 891.196551 892.360319 893.861585
124.935000 889.919651 890.833145 891.896251 891.970710 893.121362 894.655355
125.035000 890.603959 891.595048 892.693762 892.794706 893.998334 895.426947
125.135000 891.411456 892.379944 893.571684 893.640169 894.827931 896.327733
125.235000 892.247675 893.242194 894.521318 894.565100 895.871206 897.333784
125.335000 893.100140 894.219924 895.551831 895.643051 897.117783 898.593011
125.435000 894.156966 895.292747 896.761416 896.855233 898.406690 900.118098
125.535000 895.184030 896.503907 898.042272 898.173091 899.906678 901.869248
125.635000 896.244087 897.717634 899.411789 899.525297 901.337871 903.634839
125.740000 897.440143 899.092617 900.906012 901.081105 903.291493 905.332120
125.840000 898.501561 900.344792 902.388971 902.549936 904.853716 906.856791
125.940000 899.566239 901.636420 903.913040 903.890805 906.247220 908.012418
126.040000 900.529368 902.882439 905.373477 905.225041 907.600285 909.190022
126.140000 901.478135 904.022394 906.727219 906.419614 908.675692 909.996966
126.240000 902.584784 905.373924 907.945163 907.598820 909.701202 910.968624
126.340000 903.980366 906.691099 909.175054 908.761855 910.692811 911.754365
126.440000 905.128300 908.118771 910.313224 909.909548 911.654513 912.591888
126.540000 906.711782 909.473547 911.429630 911.039695 912.593499 913.464752
126.640000 907.896695 910.717644 912.366605 912.086015 913.522422 914.206339
126.740000 909.452148 911.979389 913.350930 913.105599 914.350458 915.256966
126.840000 911.220380 913.165196 914.303376 914.154373 915.207831 916.137161
126.935000 912.797980 914.202717 915.121444 915.074874 915.974937 916.919075
127.035000 914.162766 915.192346 916.024903 916.034019 916.918554 917.889767
127.135000 915.105421 916.037202 916.816048 916.865002 917.724125 918.786602
127.235000 916.120618 916.842185 917.638020 917.693116 918.536725 919.698868
127.335000 916.869776 917.640542 918.422508 918.485396 919.362730 920.391607
127.435000 917.694017 918.406267 919.223250 919.289055 920.174518 921.185948
127.535000 918.467448 919.173084 920.031363 920.104568 921.048320 922.090724
127.635000 919.289009 919.925882 920.824298 920.910728 921.892827 922.887570
127.735000 920.035895 920.743083 921.672041 921.759700 922.856759 923.985585
127.835000 920.887344 921.598326 922.607020 922.689402 923.788061 925.175641
127.935000 921.728877 922.536434 923.617850 923.708270 924.844634 926.333444
128.035000 922.674181 923.559664 924.743890 924.843637 926.045517 927.644509
128.135000 923.726100 924.856902 926.215762 926.335819 927.687568 929.674059
128.235000 925.142589 926.423877 927.844723 928.032310 929.695098 932.237712
128.335000 926.555205 927.874143 929.772573 929.867881 931.621870 934.034950
128.435000 927.856560 929.317646 931.390199 931.509874 933.677982 935.812868
128.535000 929.211427 930.888894 933.160348 933.176473 935.433868 937.335440
128.635000 930.529464 932.580792 934.918943 934.844159 937.075296 939.236989
128.735000 931.820602 934.455894 936.718329 936.651962 938.900779 941.203013
128.835000 933.778008 936.310767 938.772292 938.683249 941.034109 943.260761
128.935000 935.781419 938.243560 940.736031 940.644001 942.976268 945.216828
129.035000 937.287751 940.171571 942.647772 942.587183 945.058004 947.072418
