depth(m) lower_95(kyr) lower_68(kyr) median(kyr) mean(kyr) upper_68(kyr) upper_95(kyr)
182.745000 701.252209 702.132085 702.953993 702.974925 703.939516 704.669967
182.845000 701.519282 702.430569 703.232232 703.286011 704.293883 704.884415
182.945000 701.762488 702.738131 703.528624 703.587538 704.599793 705.177638
183.045000 702.113468 703.021333 703.806742 703.884490 704.897013 705.458887
183.145000 702.337471 703.288172 704.037923 704.163156 705.189886 705.699676
183.245000 702.607000 703.535123 704.321526 704.433055 705.453819 705.953691
183.345000 702.907324 703.795425 704.593669 704.691248 705.696866 706.204959
183.481667 703.192360 704.137560 704.920078 705.023277 706.016344 706.523636
183.618333 703.532048 704.471449 705.320665 705.357734 706.353294 706.871600
183.755000 703.832843 704.798582 705.676879 705.688482 706.689014 707.207745
183.891667 704.151760 705.109390 705.996716 706.014274 706.997219 707.528424
184.028333 704.494706 705.414849 706.332972 706.342604 707.301839 707.820082
184.165000 704.876529 705.742889 706.708106 706.681504 707.626922 708.111360
184.265000 705.092744 706.013854 707.005850 706.942913 707.858343 708.378556
184.365000 705.373594 706.313694 707.254039 707.209351 708.130746 708.611708
184.465000 705.798041 706.584268 707.572173 707.486821 708.366955 708.951620
184.589000 706.216989 706.933668 707.946781 707.835676 708.668099 709.334676
184.720500 706.669240 707.310160 708.341916 708.230118 709.020793 709.671175
184.852000 707.070876 707.688668 708.764102 708.636299 709.387470 710.128654
184.983500 707.526751 708.124469 709.151992 709.045951 709.758407 710.562558
185.115000 707.865909 708.562853 709.555919 709.472256 710.196809 710.995741
185.215000 708.171456 708.920102 709.824236 709.784592 710.502983 711.368317
185.315000 708.465559 709.287245 710.131475 710.103922 710.819951 711.775539
185.415000 708.785638 709.648403 710.461899 710.446720 711.155496 712.326321
185.515000 709.027955 710.031067 710.820194 710.813945 711.529471 712.748238
185.615000 709.397336 710.416788 711.145136 711.196243 711.925350 713.412265
185.715000 709.820519 710.813662 711.515081 711.601269 712.372229 714.032751
185.815000 710.247524 711.201962 711.895395 712.012843 712.779825 714.536173
185.915000 710.552383 711.588327 712.279974 712.417448 713.207100 715.048883
186.015000 710.966257 711.921045 712.674435 712.816123 713.640477 715.472269
186.105500 711.420053 712.328026 713.113639 713.249373 714.119879 716.085183
186.196000 711.867861 712.662201 713.540857 713.662081 714.571312 716.477951
186.315000 712.333011 713.132105 714.093100 714.219892 715.238011 716.897353
186.415000 712.700393 713.553963 714.543988 714.651092 715.707711 717.572598
186.515000 713.032084 713.917216 714.971113 715.067932 716.196303 718.094907
186.615000 713.304919 714.243578 715.422156 715.504022 716.743611 718.629813
186.715000 713.538944 714.540244 715.851055 715.912325 717.254302 719.232970
186.815000 713.798899 714.840516 716.240746 716.297534 717.730708 719.841663
186.915000 714.038670 715.100848 716.577099 716.692681 718.216683 720.321358
187.015000 714.279913 715.375265 716.933942 717.074690 718.751258 720.626456
187.115000 714.594234 715.638113 717.288965 717.456114 719.247564 721.077162
187.215000 714.874655 715.942524 717.634835 717.843568 719.770835 721.458722
187.315000 715.151832 716.298698 717.997153 718.218267 720.270751 721.854364
187.415000 715.433504 716.607712 718.343262 718.583137 720.727400 722.288019
187.515000 715.756445 716.953108 718.745519 718.944971 721.113858 722.701006
187.607500 716.076442 717.259240 719.129521 719.283080 721.458757 723.158877
187.700000 716.383146 717.567579 719.462861 719.622471 721.857430 723.488064
187.815000 716.813725 718.116675 719.924820 720.066221 722.241939 723.961178
187.915000 717.102845 718.572288 720.296330 720.452586 722.576213 724.458868
188.015000 717.495198 718.975337 720.706843 720.855207 722.946957 724.722231
188.115000 717.919700 719.354648 721.127465 721.260859 723.286235 725.267276
188.218333 718.320071 719.774334 721.525786 721.700818 723.668301 725.665559
188.321667 718.736070 720.247648 722.066410 722.184354 724.049932 726.241611
188.425000 719.101426 720.747384 722.664772 722.679401 724.459730 726.653704
188.535000 719.583391 721.381125 723.214186 723.267916 725.065819 727.274361
188.645000 720.161057 722.020402 723.849346 723.879360 725.663573 727.979238
188.755000 720.937562 722.628032 724.452866 724.523334 726.243040 728.767676
188.885000 721.780857 723.542470 725.307438 725.441964 727.343638 729.849742
189.015000 722.701299 724.544600 726.300255 726.401012 728.278489 730.753675
189.145333 723.344174 725.345364 727.102953 727.227257 729.098255 731.749289
189.275667 724.108758 726.078264 727.941952 728.050737 730.066071 732.594441
189.406000 724.885956 726.962903 728.756596 728.896765 730.939237 733.253830
189.549923 725.761140 727.747653 729.678033 729.867141 732.076780 734.573573
189.693846 726.847731 728.546047 730.740355 730.867815 733.110086 735.872190
189.837769 727.751909 729.510844 731.775436 731.875253 734.122399 736.955760
189.981692 728.534204 730.539424 732.742313 732.879191 735.204172 738.301458
190.125615 729.525409 731.537997 733.875916 733.941741 736.343203 739.200468
190.269538 730.501004 732.571622 734.891587 735.006886 737.486489 740.143884
190.413462 731.434214 733.619854 735.963059 736.049858 738.536722 741.367838
190.557385 732.316587 734.495390 736.986130 737.066136 739.662469 742.479051
190.701308 733.294950 735.508117 738.108450 738.168138 741.050477 743.684990
190.845231 733.908695 736.506819 739.159007 739.249381 742.075690 744.804732
190.989154 735.136570 737.436492 740.215952 740.336697 743.314204 746.127081
191.133077 735.909322 738.474659 741.281239 741.389766 744.414758 747.152131
191.277000 737.151097 739.436032 742.331865 742.399168 745.556710 747.951463
191.377000 737.829051 739.950154 743.071160 743.004756 746.222817 748.400398
191.477000 738.364105 740.416261 743.753037 743.573280 746.709205 748.918405
191.577000 738.779600 740.972130 744.288620 744.114759 747.197422 749.622105
191.677000 739.287825 741.434467 744.779050 744.628462 747.715453 750.125375
191.777000 739.830113 741.929027 745.329766 745.124942 748.372405 750.532805
191.877000 740.351668 742.419468 745.864518 745.622727 748.926088 751.060206
191.977000 740.796970 742.898611 746.429177 746.088391 749.332031 751.366002
192.077000 741.248555 743.286954 746.902707 746.555096 749.845516 751.827614
192.177000 742.002489 743.666040 747.487747 746.983513 750.128351 752.263702
192.198000 742.039493 743.737666 747.584350 747.065737 750.192328 752.323954
192.337500 742.410153 744.322213 748.295110 747.696251 750.703963 752.665743
192.477000 742.855886 744.868231 748.876359 748.329297 751.222091 753.102233
192.577000 743.140195 745.250690 749.297412 748.739722 751.593040 753.327879
192.677000 743.427492 745.740751 749.661737 749.145897 751.963302 753.644048
192.777000 743.712780 746.160802 750.092443 749.546944 752.279200 753.909493
192.897000 744.198499 746.752660 750.562924 750.041366 752.688583 754.285333
193.017000 744.765414 747.377866 751.104686 750.540270 753.149698 754.650019
193.137000 745.007450 747.929782 751.658700 751.064677 753.697619 755.019162
193.257000 745.494325 748.453704 752.289239 751.578004 754.166098 755.326299
193.377000 746.036359 748.894377 752.794277 752.044424 754.611587 755.761056
193.464000 746.431431 749.236952 753.152766 752.387666 754.933254 756.041990
193.551000 746.793645 749.557167 753.544986 752.740533 755.246831 756.410931
193.693000 747.259017 750.253576 754.161202 753.342843 755.711383 757.304625
193.835000 747.670838 750.961770 754.739258 753.937833 756.130135 757.859450
193.977000 748.057523 751.773097 755.277542 754.505689 756.552081 758.527634
194.083500 748.357068 752.218176 755.708346 754.915481 756.856214 759.083526
194.190000 748.747823 752.671410 756.109093 755.307933 757.174533 759.457824
194.277000 749.198066 753.019943 756.432153 755.634326 757.463256 759.721388
194.377000 749.699872 753.404551 756.804188 756.015391 757.765637 760.070500
194.477000 749.994004 753.800735 757.170842 756.398422 758.065303 760.584228
194.577000 750.526150 754.201703 757.499676 756.773750 758.395352 761.109283
194.677000 751.144147 754.653051 757.823761 757.143383 758.730475 761.548244
194.777000 751.466855 755.029899 758.167903 757.510677 759.105428 761.829741
194.877000 751.863725 755.532779 758.453915 757.869559 759.463784 762.250912
194.977000 752.169409 756.008880 758.765800 758.256064 759.835904 762.613721
195.077000 752.533449 756.533059 759.089095 758.640699 760.266718 763.078990
195.177000 752.865749 757.034957 759.401412 759.047055 760.683508 763.491238
195.302000 753.264367 757.814186 759.807816 759.522401 761.071681 764.122195
195.427000 753.603937 758.506978 760.249218 760.033687 761.533908 764.839129
195.552000 754.325745 759.125081 760.691737 760.509329 761.991345 765.461450
195.677000 754.819656 759.583239 761.183073 760.995936 762.500842 766.158370
195.777000 755.412702 759.939334 761.506082 761.356906 762.847462 766.455944
195.877000 755.998400 760.297695 761.859421 761.728120 763.223268 766.792546
195.977000 756.520564 760.650923 762.227282 762.102685 763.633348 767.182737
196.077000 756.900761 760.918143 762.559823 762.458206 763.979191 767.345250
196.177000 757.446482 761.179804 762.896813 762.823153 764.375873 767.565320
196.277000 757.873055 761.487223 763.238981 763.185536 764.713519 767.907309
196.377000 758.145819 761.749750 763.567907 763.529477 765.069002 768.260724
196.477000 758.787571 762.058534 763.893580 763.861640 765.412329 768.527130
196.577000 759.258627 762.405466 764.187404 764.183987 765.734674 768.760533
196.677000 759.696129 762.871757 764.492329 764.499118 766.030184 768.937107
196.777000 759.883960 763.210835 764.814090 764.808398 766.322527 769.191510
196.877000 760.144910 763.627828 765.107640 765.109218 766.643344 769.496366
196.977000 760.402687 763.901055 765.406862 765.398686 766.958635 769.765223
197.117435 760.705228 764.227120 765.757597 765.777836 767.347206 770.083288
197.257870 761.177651 764.563917 766.159283 766.151010 767.693921 770.436903
197.398304 761.901997 764.899357 766.576848 766.528100 768.071940 770.804927
197.538739 762.250018 765.267493 766.927339 766.907106 768.513945 771.168491
197.679174 762.708879 765.602553 767.297711 767.268018 768.946515 771.510622
197.819609 763.358389 765.975607 767.652805 767.630304 769.316032 771.839444
197.960043 763.834474 766.323724 767.982381 767.990555 769.797551 772.102504
198.100478 764.279801 766.642841 768.352913 768.352164 770.220004 772.477859
198.240913 764.621065 767.005190 768.705180 768.719152 770.610769 772.873456
198.381348 764.883734 767.308674 769.061561 769.074496 770.961133 773.259083
198.521783 765.365596 767.615183 769.422530 769.423494 771.302045 773.608274
198.662217 765.663446 767.960222 769.763691 769.777248 771.694630 774.090410
198.802652 765.938065 768.275101 770.120657 770.125791 772.008098 774.460476
198.943087 766.188668 768.620046 770.437683 770.476603 772.396655 774.893704
199.083522 766.550797 768.927270 770.751140 770.814589 772.742516 775.319357
199.223957 766.850201 769.269885 771.106761 771.169527 773.187940 775.890806
199.364391 767.135494 769.628839 771.488416 771.532765 773.599296 776.243343
199.504826 767.340094 769.898531 771.832590 771.902936 774.052283 776.734861
199.645261 767.692230 770.204414 772.171591 772.276975 774.506862 777.114210
199.785696 768.118928 770.555326 772.520813 772.664008 774.901220 777.803837
199.926130 768.417331 770.890140 772.863270 773.054421 775.421863 778.111936
200.066565 768.976868 771.275375 773.205589 773.451599 775.786817 778.598137
200.207000 769.474039 771.591854 773.574733 773.847199 776.212531 779.106757
200.341000 769.836096 771.914806 773.933089 774.232270 776.610484 779.561877
200.475000 770.022180 772.241379 774.301898 774.643544 777.123186 779.958548
200.609000 770.566951 772.660414 774.718676 775.065786 777.544111 780.557928
200.743000 770.882398 773.004003 775.100268 775.516031 778.095775 781.104111
200.877000 771.295210 773.392033 775.496010 775.981366 778.707942 781.433949
201.011000 771.902395 773.778316 776.056268 776.471001 779.383207 781.832696
201.145000 772.316248 774.310021 776.598127 776.984565 780.081408 782.373459
201.279000 772.700049 774.749901 777.166976 777.482040 780.667374 782.698890
201.413000 773.287425 775.356258 777.730804 777.995825 781.074295 783.129182
201.513000 773.789685 775.724641 778.190424 778.381964 781.573687 783.462740
201.613000 774.089822 776.064767 778.731011 778.794574 781.942439 783.730337
201.713000 774.469829 776.453715 779.123183 779.219864 782.279185 783.957666
201.813000 774.972475 776.914679 779.645740 779.695102 782.803224 784.161653
201.913000 775.413259 777.385785 780.165060 780.181137 783.287213 784.400358
202.013000 776.072163 777.810923 780.638471 780.658294 783.553786 784.633941
202.113000 776.597957 778.404645 781.274147 781.156956 783.984805 784.825570
202.213000 777.294663 779.070989 781.845585 781.667317 784.306316 785.161712
202.313000 777.717109 779.720140 782.457542 782.161796 784.708327 785.364041
202.413000 778.071109 780.285156 783.009921 782.678947 785.066040 785.692502
202.513000 778.449037 780.879973 783.544894 783.165235 785.359923 786.123022
202.613000 778.628797 781.564937 784.110988 783.683193 785.641529 786.609354
202.757500 779.091534 782.829595 785.041652 784.571511 786.070800 787.450075
202.902000 779.532128 784.694714 786.059121 785.465058 786.659565 788.123711
202.913000 779.584613 784.732429 786.098629 785.509317 786.696062 788.161380
203.013000 780.480100 785.090893 786.398204 785.940609 787.193330 788.454704
203.113000 781.343445 785.443730 786.688952 786.332089 787.702201 788.732063
203.213000 782.322162 785.826901 786.974122 786.744830 788.142034 788.998909
203.313000 783.105142 786.152821 787.274286 787.131536 788.537923 789.360161
203.413000 783.773053 786.481672 787.607453 787.528503 788.876595 789.827198
203.513000 784.645662 786.888392 787.946974 787.915086 789.188974 790.265209
203.586000 785.180077 787.154435 788.202103 788.186060 789.403400 790.590013
203.699500 785.895506 787.664809 788.583687 788.617609 789.713369 790.998256
203.813000 786.446471 788.047666 788.991000 789.030551 790.056644 791.507756
203.926333 787.021180 788.438517 789.418100 789.427970 790.415251 791.875483
204.039667 787.627837 788.846241 789.797152 789.827779 790.829961 792.187259
204.153000 788.280463 789.181298 790.168994 790.216464 791.221076 792.549721
204.233000 788.611772 789.414469 790.436305 790.475838 791.476414 792.794822
204.313000 788.945330 789.680073 790.682469 790.743233 791.824512 793.000791
204.413000 789.278453 789.984077 790.999647 791.082548 792.193815 793.310568
204.513000 789.688641 790.337956 791.313419 791.432268 792.607622 793.581993
204.613000 789.982714 790.720232 791.670202 791.786905 793.013878 794.144678
204.713000 790.292472 791.062844 792.011541 792.133811 793.331715 794.450161
204.813000 790.656480 791.367473 792.345797 792.465270 793.652934 794.762104
204.913000 791.010310 791.736238 792.689998 792.820128 793.948778 795.145606
205.053000 791.457004 792.242346 793.256019 793.376764 794.460843 795.709430
205.193000 791.954110 792.753584 793.882575 793.946083 795.040196 796.313940
205.338000 792.466654 793.210575 794.438230 794.490426 795.647350 797.247006
205.483000 792.958574 793.725688 794.969231 795.036161 796.260986 798.322838
205.550000 793.173105 793.917831 795.174900 795.282516 796.515686 798.556880
205.631500 793.522845 794.140172 795.429377 795.558587 796.852086 798.782507
205.713000 793.740464 794.388101 795.732584 795.826269 797.123280 799.231461
205.813000 794.007361 794.661231 796.058393 796.164928 797.508426 799.562500
205.913000 794.301649 794.933321 796.358490 796.485126 797.814464 800.040141
206.013000 794.566609 795.205197 796.741261 796.812312 798.153109 800.523637
206.133000 794.813499 795.530107 797.104411 797.191106 798.595403 800.899724
206.253000 795.142291 795.871694 797.437308 797.553481 798.994049 801.285329
206.373000 795.459443 796.181562 797.817283 797.925343 799.407144 801.856780
206.493000 795.684438 796.511874 798.158029 798.277699 799.857378 802.286736
206.613000 796.039125 796.876366 798.479743 798.628275 800.210998 802.576902
206.713000 796.276272 797.166979 798.772493 798.931471 800.580032 803.044975
206.813000 796.530554 797.455380 799.051012 799.230941 800.961345 803.499701
206.913000 796.878537 797.774212 799.343701 799.555745 801.265559 803.794044
207.053000 797.217280 798.138736 799.774997 800.003544 801.725769 804.375807
207.190000 797.528348 798.550474 800.245514 800.456642 802.292202 804.849194
207.327000 797.787551 798.921772 800.704520 800.910260 802.911779 805.345656
207.464000 798.165314 799.389291 801.128712 801.381084 803.414999 805.812291
207.601000 798.524876 799.766933 801.634302 801.839623 803.944770 806.225096
207.738000 798.918797 800.186469 802.213475 802.308637 804.455760 806.666814
207.875000 799.409170 800.535146 802.703994 802.787063 805.011819 807.300223
208.012000 799.787887 800.918162 803.261087 803.284665 805.539306 808.010256
208.149000 800.077310 801.299844 803.829815 803.776981 806.121111 808.559510
208.286000 800.458297 801.662152 804.320056 804.267156 806.681145 808.962379
208.423000 800.795501 802.119797 804.842033 804.789471 807.243618 809.666452
208.560000 801.128853 802.616035 805.255886 805.283796 807.724724 810.381766
208.693455 801.448508 803.050194 805.810968 805.817545 808.331823 810.978795
208.826909 801.945138 803.478775 806.372440 806.370578 808.850478 811.667584
208.960364 802.194033 804.077867 806.998891 806.927226 809.471442 812.212431
209.093818 802.553239 804.607988 807.520471 807.489337 810.083464 812.940592
209.227273 802.870986 805.233921 808.175683 808.075272 810.656104 813.493904
209.360727 803.312147 805.777783 808.742952 808.634211 811.246761 814.069088
209.494182 803.581546 806.381076 809.254870 809.174534 811.802988 814.681469
209.627636 803.918632 807.044832 809.738747 809.719005 812.279394 815.133206
209.761091 804.228874 807.577937 810.304034 810.259379 812.969550 815.652653
209.894545 804.693869 808.087077 810.786747 810.793431 813.554048 816.080229
210.028000 805.001156 808.677947 811.324521 811.312422 814.105282 816.554922
210.172364 805.686854 809.137989 811.956273 811.858167 814.682487 817.058265
210.316727 806.154591 809.678862 812.404119 812.385448 815.256281 817.736377
210.461091 806.812875 810.232379 812.904198 812.909245 815.773129 818.266751
210.605455 807.431905 810.858704 813.283895 813.421194 816.328818 818.647774
210.749818 808.185650 811.396224 813.763192 813.910894 816.723225 819.283999
210.894182 808.976690 811.831057 814.275561 814.417397 817.281548 819.921803
211.038545 809.449176 812.318197 814.800435 814.897067 817.689710 820.291323
211.182909 809.975280 812.841141 815.232959 815.361726 818.144116 820.638351
211.327273 810.580040 813.338050 815.759646 815.839275 818.651817 821.255970
211.471636 811.077038 813.748299 816.200515 816.314946 819.150103 821.809987
211.616000 811.668841 814.158075 816.676846 816.787745 819.526045 822.344416
211.760364 812.161865 814.610456 817.189399 817.243156 819.989543 823.039293
211.904727 812.601088 814.969279 817.637950 817.709846 820.377338 823.415860
212.049091 813.122632 815.508472 818.088713 818.177067 820.854074 823.785125
212.193455 813.782091 815.975134 818.565037 818.644098 821.334419 824.233740
212.337818 814.252414 816.485468 819.004898 819.103096 821.737151 824.641319
212.482182 814.760002 816.992014 819.474060 819.583719 822.222889 825.062922
212.626545 815.200058 817.446082 819.983448 820.064875 822.677049 825.512920
212.770909 815.673258 817.908088 820.390290 820.555026 823.147496 826.020980
212.915273 815.973965 818.420268 820.890919 821.035112 823.594487 826.549977
213.059636 816.322727 818.911370 821.416128 821.509298 823.953830 826.869162
