depth(m) lower_95(kyr) lower_68(kyr) median(kyr) mean(kyr) upper_68(kyr) upper_95(kyr)
117.020000 37574.297436 37575.275712 37576.156397 37576.181250 37577.136172 37578.084066
117.060000 37577.331661 37579.156451 37581.117269 37582.046338 37584.732413 37592.342340
117.100000 37580.801289 37582.989463 37585.971299 37587.671765 37592.642582 37602.166159
117.140000 37584.396994 37587.129167 37591.608019 37593.357772 37599.781560 37610.374312
117.180000 37588.173450 37591.563368 37597.877437 37599.147691 37607.222476 37617.678347
117.220000 37592.026373 37596.490165 37603.412773 37604.863077 37613.732897 37623.521533
117.260000 37596.972277 37601.494676 37609.609354 37610.630953 37620.434035 37629.534644
117.300000 37600.428185 37606.737041 37615.641532 37616.734592 37626.893695 37637.506116
117.340000 37605.409322 37612.949642 37623.203187 37623.359672 37633.235546 37643.299507
117.380000 37610.421111 37619.802400 37630.318611 37630.625066 37641.585458 37650.832829
117.420000 37616.537790 37626.907626 37638.561260 37638.623891 37649.945471 37660.363775
117.460000 37623.480377 37635.172876 37646.500165 37646.447813 37657.806654 37667.420095
117.500000 37630.988796 37642.881910 37653.627156 37653.863658 37664.914739 37674.493866
117.540000 37638.821034 37650.068326 37661.630016 37661.121886 37671.926545 37682.184255
117.580000 37646.695807 37657.210804 37668.553120 37667.965561 37678.598659 37688.583295
117.620000 37652.808951 37664.571713 37675.043213 37674.607508 37684.671417 37694.738187
117.660000 37659.512488 37670.393288 37681.072114 37680.797295 37690.846030 37701.067215
117.700000 37666.001227 37677.028068 37687.550557 37687.015519 37697.142424 37707.326684
117.740000 37672.247383 37684.167813 37693.394890 37693.527172 37703.623162 37712.649548
117.780000 37680.336849 37690.360702 37699.709524 37699.868395 37709.528789 37718.939872
117.820000 37686.129098 37696.642942 37706.559032 37706.220527 37716.165703 37724.005100
117.860000 37693.867337 37702.674031 37712.639759 37712.550536 37722.330498 37732.221944
117.900000 37700.354374 37709.175442 37718.597666 37719.000566 37728.428354 37738.155450
117.940000 37707.217515 37715.509203 37725.195004 37725.280027 37734.635189 37744.304839
117.980000 37713.275314 37721.867134 37731.276541 37731.442850 37741.158459 37749.843041
118.020000 37718.573862 37728.015766 37737.355437 37737.491867 37747.238089 37756.769890
118.060000 37725.005381 37734.132787 37743.663758 37743.739457 37753.269163 37762.200418
118.100000 37730.623693 37739.959273 37749.738231 37749.584830 37758.867657 37767.832301
118.140000 37737.354916 37745.921972 37755.599196 37755.558490 37765.451100 37773.441110
118.180000 37743.024620 37752.005326 37761.553841 37761.372793 37771.198801 37778.094280
118.220000 37748.675098 37758.039659 37767.207678 37767.056950 37776.357082 37784.071751
118.260000 37754.201654 37763.234431 37773.204528 37772.640976 37781.180175 37789.278985
118.300000 37759.654750 37769.267212 37778.649229 37778.117641 37786.522883 37794.689943
118.340000 37765.764986 37774.639333 37784.194087 37783.669863 37792.142997 37799.275501
118.380000 37772.002800 37780.271982 37789.449970 37788.999233 37797.301034 37804.471021
118.420000 37778.746251 37785.921557 37794.339357 37794.232285 37802.141287 37809.999663
118.460000 37784.061491 37791.712245 37799.725035 37799.564263 37807.345676 37815.357644
118.500000 37789.121461 37796.966212 37804.921541 37804.808333 37812.200503 37820.329305
118.540000 37794.340474 37802.228607 37810.270990 37809.949581 37817.648023 37825.304080
118.580000 37798.411914 37807.363752 37815.231234 37814.973382 37822.884329 37829.642517
118.620000 37803.495688 37812.034037 37820.223451 37819.902871 37827.828663 37834.311059
118.660000 37808.261864 37816.913934 37824.702312 37824.661723 37832.650614 37840.425639
118.700000 37813.502308 37821.586292 37830.082709 37829.676048 37837.310099 37844.534918
118.740000 37819.182588 37826.907551 37834.635622 37834.539822 37841.914628 37849.661225
118.780000 37824.488415 37831.906697 37839.323616 37839.477689 37846.803376 37854.586011
118.820000 37828.956331 37836.710257 37844.448274 37844.370609 37851.941258 37858.882389
118.860000 37834.291254 37841.404575 37849.231212 37849.058607 37856.462875 37862.858364
118.900000 37839.258469 37846.243613 37853.717704 37853.754524 37861.625085 37867.223717
118.940000 37843.968091 37851.373763 37858.542832 37858.309756 37865.591118 37871.191939
118.980000 37847.891891 37855.947163 37862.925590 37862.591311 37869.679693 37875.357603
119.020000 37852.951782 37860.284292 37867.084256 37866.932635 37873.998403 37879.855377
119.060000 37857.641600 37864.775249 37871.205196 37871.131961 37878.037912 37883.451781
119.100000 37862.428741 37868.754705 37875.265438 37875.420031 37882.370293 37887.325389
119.140000 37867.078123 37873.249390 37879.457957 37879.569299 37886.201907 37890.993747
119.180000 37871.299858 37877.498660 37883.568126 37883.556586 37889.965367 37894.814893
119.220000 37875.396297 37881.340129 37887.578225 37887.387960 37893.233379 37898.010867
119.260000 37879.456715 37885.117050 37891.193004 37890.988969 37896.901812 37901.597108
119.300000 37883.258211 37888.862948 37894.691383 37894.533113 37900.178498 37904.986238
119.340000 37887.084395 37892.272202 37898.290931 37898.140430 37903.840273 37908.373850
119.380000 37890.228173 37895.934263 37901.592138 37901.665408 37907.158893 37911.942107
119.420000 37894.047193 37899.596661 37905.232775 37905.101165 37910.349587 37915.378298
119.460000 37897.634010 37902.798131 37908.632283 37908.587045 37914.164737 37919.486592
119.490000 37900.028483 37905.518105 37911.271306 37911.282854 37916.805743 37922.888011
119.540000 37904.845015 37910.300223 37915.548757 37915.651508 37921.286232 37927.269588
119.580000 37907.922069 37913.459097 37919.083275 37919.231607 37924.979305 37931.154532
119.620000 37911.432892 37916.637938 37922.521539 37922.705601 37928.774621 37934.769838
119.660000 37915.498773 37920.087394 37926.092644 37926.295889 37932.581221 37938.491252
119.700000 37918.618823 37923.495930 37929.643551 37929.847296 37936.490417 37942.491011
119.740000 37921.788985 37927.009052 37933.239261 37933.489721 37940.086611 37945.920239
119.780000 37925.075718 37930.623719 37936.908023 37937.096323 37943.794520 37949.555690
119.820000 37928.969853 37934.550976 37940.789540 37940.903196 37947.310139 37953.393120
119.860000 37932.346166 37938.479278 37944.815700 37944.744294 37951.038882 37956.767708
119.900000 37935.533313 37942.263295 37948.630003 37948.467664 37954.544763 37960.408473
119.940000 37939.499611 37945.917666 37952.438477 37952.110034 37958.008842 37964.108090
119.980000 37943.803218 37950.104705 37956.258422 37955.911805 37961.521942 37967.385772
120.020000 37947.135190 37953.897289 37959.911902 37959.594411 37965.219093 37970.595959
120.060000 37951.377900 37957.400220 37963.317877 37963.088985 37968.582145 37974.195523
120.100000 37955.692740 37961.082079 37966.533606 37966.572204 37971.936747 37977.969026
120.140000 37959.645028 37964.377594 37970.010086 37970.076691 37975.494760 37981.248981
120.180000 37962.683457 37968.281940 37973.557931 37973.641943 37979.333423 37985.503238
120.220000 37966.158050 37971.675510 37977.170159 37977.097967 37982.695729 37988.443573
120.260000 37969.171246 37975.154725 37980.659664 37980.630939 37986.263924 37991.684051
120.300000 37973.516412 37978.534483 37984.025144 37984.146668 37989.798514 37995.773874
120.340000 37976.926208 37982.042318 37987.295882 37987.644940 37993.265186 37999.281459
120.380000 37980.631215 37985.628780 37991.087952 37991.259303 37997.359624 38002.902861
120.420000 37984.342688 37988.956542 37994.789214 37995.042537 38001.027725 38007.066171
120.460000 37987.877031 37992.651964 37998.742796 37998.905798 38005.249673 38010.699991
120.500000 37991.326861 37996.717956 38002.777695 38003.030347 38009.611867 38015.976613
120.540000 37995.125901 38000.431919 38006.631671 38007.198994 38013.872211 38021.097002
120.580000 37999.143043 38004.905506 38011.448689 38011.857662 38018.926839 38027.189498
120.620000 38003.669364 38009.125498 38016.333064 38016.652883 38023.627796 38032.464390
120.660000 38008.058193 38013.649369 38021.887084 38021.845780 38029.438428 38036.666927
120.700000 38012.033763 38018.680309 38026.677917 38026.817356 38035.004812 38043.125348
120.740000 38016.331736 38023.427205 38032.363784 38032.001957 38039.925838 38048.602073
120.780000 38021.368609 38029.232926 38037.939351 38037.690067 38045.780060 38053.460331
120.820000 38027.330304 38035.414695 38043.835596 38043.568695 38051.885827 38059.655611
120.860000 38033.119306 38041.425168 38049.518116 38049.623182 38058.147469 38066.265000
120.900000 38038.173581 38047.238170 38055.562786 38055.288463 38063.490262 38070.217455
120.940000 38045.316029 38053.028496 38061.170242 38060.856394 38068.586547 38074.965149
120.980000 38050.872813 38058.563231 38066.383109 38066.178979 38073.419235 38079.952644
121.020000 38055.879455 38063.917236 38071.226797 38070.893501 38078.028518 38084.304988
121.060000 38060.868649 38068.855519 38075.764732 38075.327543 38081.918649 38087.072212
121.100000 38065.804198 38073.467003 38080.102710 38079.550983 38085.684489 38090.188823
121.140000 38071.244400 38077.576362 38083.781473 38083.316202 38088.814802 38092.952780
121.180000 38075.723810 38081.477572 38087.130658 38086.864082 38091.992176 38096.015629
121.220000 38079.314936 38084.795714 38090.340805 38090.044358 38094.912955 38099.298833
121.260000 38082.390887 38088.171591 38093.548407 38093.099138 38097.778992 38102.145529
121.300000 38085.829223 38091.343777 38096.675299 38096.121598 38100.453021 38104.854406
121.340000 38089.491272 38094.126002 38099.184260 38099.001170 38103.546482 38108.770146
121.380000 38092.824253 38096.721730 38101.776900 38101.711799 38106.399504 38111.574488
121.420000 38095.261349 38099.541472 38104.543639 38104.459686 38109.145013 38113.981095
121.460000 38098.091323 38102.314086 38107.151876 38107.254231 38112.191287 38117.098600
121.500000 38100.734449 38105.141904 38109.882719 38109.947076 38114.661314 38119.926471
121.540000 38103.443204 38107.681343 38112.578650 38112.625963 38117.532672 38122.716238
121.580000 38106.103092 38110.435452 38115.320176 38115.423740 38120.596837 38125.251454
121.620000 38108.800387 38113.336793 38117.959678 38118.185940 38123.439260 38128.257052
121.660000 38111.722928 38115.831021 38120.815635 38121.030832 38126.359918 38130.938527
121.700000 38114.721267 38118.732546 38123.863025 38124.006395 38129.517418 38134.098451
121.740000 38116.728172 38121.816472 38126.935334 38127.089009 38132.632500 38137.434229
121.780000 38118.961498 38124.921255 38130.067515 38130.195647 38135.656061 38140.716008
121.820000 38122.425401 38127.734221 38133.452229 38133.242146 38138.742032 38143.454895
121.860000 38125.653779 38131.038709 38136.615608 38136.476036 38141.911538 38147.083963
121.900000 38128.583375 38134.034416 38139.775543 38139.617271 38145.074900 38150.355986
121.940000 38131.869617 38137.451462 38142.984375 38142.843307 38148.077053 38153.207878
121.980000 38135.130278 38140.564891 38146.158718 38146.016679 38151.384286 38156.522544
122.020000 38138.418974 38143.944945 38149.205889 38149.227599 38154.592892 38159.775376
122.060000 38141.566587 38147.019840 38152.471566 38152.541940 38158.288839 38163.140858
122.100000 38145.165710 38150.470575 38155.770471 38155.882853 38161.729908 38166.562753
122.140000 38148.923118 38153.718175 38159.320249 38159.404929 38165.381215 38170.307665
122.180000 38152.065349 38157.174008 38162.817678 38162.977718 38168.875432 38173.903472
122.220000 38155.875513 38160.692772 38166.267351 38166.436908 38172.512383 38178.130091
122.260000 38159.405711 38164.386857 38169.810768 38170.114045 38176.113138 38182.079088
122.300000 38162.918567 38167.851140 38173.748992 38173.954153 38180.186699 38186.104368
122.340000 38166.243203 38171.320767 38177.467918 38177.594392 38183.865602 38189.669069
122.380000 38170.156733 38174.980797 38181.153728 38181.207267 38187.333829 38193.720135
122.420000 38173.188074 38178.917396 38184.853816 38185.065041 38191.260874 38196.944536
122.460000 38176.918798 38183.010209 38188.867847 38188.857534 38194.800598 38201.270812
122.490000 38179.591456 38185.854131 38191.809374 38191.802459 38197.797890 38204.588911
122.540000 38184.934173 38190.534695 38196.569332 38196.771421 38203.013086 38209.711017
122.580000 38188.901335 38194.447750 38200.699413 38200.823648 38207.015505 38213.735028
122.620000 38192.277748 38198.275028 38205.065571 38205.082879 38212.008956 38218.355501
122.660000 38196.950138 38202.337217 38208.834964 38209.244514 38216.528522 38222.985041
122.700000 38200.998147 38206.983423 38213.230677 38213.637989 38221.026531 38226.790608
122.740000 38204.361730 38211.131683 38217.695322 38217.971574 38225.138794 38231.884155
122.780000 38208.926705 38215.355137 38222.129889 38222.193992 38229.298972 38236.079209
122.820000 38213.302052 38218.935418 38226.474984 38226.334529 38233.711004 38239.960120
122.860000 38217.393432 38223.544610 38230.569028 38230.505614 38237.398820 38243.650971
122.900000 38221.489675 38227.795049 38234.675104 38234.788934 38241.975497 38248.551066
122.940000 38224.729902 38231.862180 38239.080297 38238.921872 38246.286106 38252.498512
122.980000 38229.230875 38236.169765 38243.190789 38243.206983 38250.508590 38257.034390
123.020000 38233.241682 38240.238130 38247.367298 38247.476355 38254.621717 38261.877222
123.060000 38237.824111 38244.727095 38251.656868 38251.863574 38259.329551 38265.968429
123.100000 38242.521235 38249.374539 38256.285835 38256.387564 38263.653827 38270.526906
123.140000 38246.919251 38254.118009 38261.119933 38261.006273 38267.849739 38274.925118
123.180000 38251.595857 38258.604813 38265.360001 38265.653315 38273.260016 38279.102271
123.220000 38256.834137 38262.904030 38270.327458 38270.497059 38277.871669 38284.407695
123.260000 38261.605150 38267.988689 38275.382202 38275.266035 38282.310367 38288.519982
123.300000 38265.767598 38272.965766 38280.243849 38280.132590 38286.988274 38292.813952
123.340000 38270.641515 38277.742506 38284.857070 38284.812528 38291.537328 38297.610247
123.380000 38276.017298 38282.239550 38289.710796 38289.375105 38295.868460 38302.683707
123.420000 38280.659408 38287.055023 38294.130580 38293.927140 38300.323208 38307.329783
123.460000 38284.996305 38291.561473 38298.104883 38298.181123 38305.012798 38311.927912
123.500000 38288.643333 38295.701254 38302.604236 38302.651216 38309.843476 38316.962544
123.540000 38292.832430 38300.073019 38306.844555 38307.353695 38314.564623 38323.241492
123.580000 38298.146126 38304.283222 38311.865905 38312.362859 38320.299395 38329.987891
123.620000 38302.532959 38308.766681 38317.224249 38317.533284 38325.983960 38335.422034
123.660000 38306.887814 38313.739267 38322.596252 38322.973569 38332.164231 38342.653885
123.700000 38311.587387 38319.427002 38328.164199 38328.908884 38338.650629 38349.461861
123.740000 38316.339043 38325.447390 38334.462911 38335.261322 38345.704080 38357.373073
123.780000 38320.926469 38331.588231 38341.760025 38342.121002 38353.096043 38363.874200
123.820000 38326.481452 38337.785402 38349.758911 38349.209054 38360.726440 38371.318784
123.860000 38334.291541 38344.886827 38357.087762 38356.855674 38368.425671 38378.193519
123.900000 38342.466776 38352.900824 38364.875520 38364.776560 38377.158958 38385.463832
123.940000 38350.375358 38361.090805 38372.585654 38372.481251 38384.060842 38392.654436
123.980000 38359.414227 38369.585718 38380.579324 38380.203211 38391.076769 38399.476777
124.020000 38366.636022 38377.441287 38388.063647 38387.447686 38397.335799 38405.204506
124.060000 38373.712751 38384.787463 38394.839818 38394.348587 38403.477581 38411.943977
124.100000 38381.485560 38391.182143 38400.984707 38400.737436 38410.167510 38418.826820
124.140000 38389.326166 38398.170063 38407.305630 38407.051139 38415.873725 38425.153247
124.180000 38395.190043 38403.936683 38413.462824 38413.172635 38421.837444 38431.277276
124.220000 38401.075213 38409.950036 38419.457938 38419.149059 38427.520195 38437.144768
124.260000 38408.227653 38416.613652 38425.088156 38425.074826 38434.036030 38443.458283
124.300000 38414.139451 38422.444603 38430.911571 38431.159405 38440.150266 38449.277565
124.340000 38419.886515 38428.510023 38436.471354 38437.042605 38445.861987 38454.401488
124.380000 38425.743482 38434.335657 38442.590290 38443.093272 38452.187944 38461.387270
124.420000 38431.762486 38440.184480 38448.786196 38449.126781 38458.716431 38467.582039
124.460000 38437.567539 38445.904805 38454.726969 38455.087050 38464.818971 38473.902596
124.500000 38443.481451 38452.007244 38460.479952 38461.160490 38470.666157 38479.266875
124.540000 38449.083080 38457.786913 38467.027175 38467.129210 38476.469846 38485.377896
124.580000 38455.459719 38464.388946 38473.802330 38473.643554 38483.037120 38492.325823
124.620000 38461.208931 38470.296510 38480.208786 38479.774087 38489.396418 38498.125607
124.660000 38466.758699 38476.458347 38485.904902 38485.805882 38495.013640 38504.740378
124.700000 38473.777349 38482.356435 38491.913561 38491.783380 38501.015506 38510.825512
124.740000 38479.775081 38488.133249 38497.718503 38497.761477 38507.302331 38517.007607
124.780000 38485.084888 38493.700177 38503.488276 38503.916905 38514.368645 38524.087514
124.820000 38491.197659 38499.821340 38509.474201 38510.338251 38520.959721 38530.569984
124.860000 38498.171909 38506.264842 38515.855992 38516.789810 38527.696488 38537.938045
124.900000 38504.051413 38513.418803 38523.657440 38524.104546 38534.855451 38545.434299
124.940000 38510.182953 38519.832801 38531.963826 38531.429789 38542.584017 38552.878101
124.980000 38516.552137 38527.921666 38539.123171 38539.114666 38550.328343 38560.776529
125.020000 38523.405432 38535.710458 38547.190468 38546.834611 38558.245540 38568.484996
125.060000 38531.112312 38543.665769 38554.479387 38554.508272 38565.587097 38576.397190
125.100000 38539.487247 38551.012335 38562.301806 38562.185411 38573.009524 38585.174916
125.140000 38546.454658 38558.476862 38570.164433 38569.730191 38580.777721 38591.885189
125.180000 38553.508953 38565.864088 38577.339299 38577.145273 38588.130530 38598.533082
125.220000 38563.024322 38572.909717 38584.810027 38584.520212 38595.421348 38606.371388
125.260000 38570.453338 38581.041983 38592.428255 38591.966959 38603.016221 38613.139412
125.300000 38576.998695 38587.894102 38599.252972 38599.146506 38610.293545 38621.159165
125.340000 38585.195727 38595.104127 38606.315904 38606.289142 38617.301053 38628.059242
125.380000 38591.391884 38601.889078 38613.918099 38613.509692 38625.168638 38634.232235
125.420000 38599.485842 38609.935541 38620.903405 38620.693581 38631.596500 38641.671925
125.460000 38606.245051 38616.624672 38627.784123 38627.482082 38638.263451 38647.556181
125.500000 38613.934676 38623.313184 38634.265560 38633.976206 38644.395275 38653.528514
125.540000 38620.584552 38630.699522 38640.775511 38640.623277 38650.420218 38660.294144
125.580000 38626.603865 38637.447015 38647.072633 38647.069392 38656.109762 38665.576519
125.620000 38634.531467 38643.811185 38653.659271 38653.323801 38662.267998 38671.483160
125.660000 38640.256360 38650.381538 38659.685500 38659.345071 38668.778593 38676.911710
125.700000 38647.676658 38656.443047 38665.517637 38665.291691 38674.037662 38681.598463
125.740000 38654.595601 38663.217513 38671.421577 38671.319359 38679.539272 38686.654195
125.780000 38660.255683 38669.160678 38677.534057 38677.265191 38685.346116 38692.311493
125.800000 38663.637396 38672.055454 38680.469016 38680.234092 38688.282544 38696.333882
125.840000 38670.186518 38678.222363 38686.425314 38686.439109 38694.510513 38703.155271
125.880000 38676.067241 38683.916972 38692.423419 38692.249377 38700.141760 38709.567923
