depth(m) lower_95(kyr) lower_68(kyr) median(kyr) mean(kyr) upper_68(kyr) upper_95(kyr)
291.497000 53873.614908 53874.534682 53875.437551 53875.453174 53876.377858 53877.418743
291.507000 53873.998216 53875.102157 53875.980492 53876.039417 53877.024442 53878.067773
291.517000 53874.443980 53875.622864 53876.549560 53876.614471 53877.714780 53878.895686
291.526000 53874.843622 53876.043499 53877.026003 53877.115971 53878.242468 53879.555376
291.536000 53875.321867 53876.480679 53877.583377 53877.669681 53878.868845 53880.350151
291.546000 53875.783714 53876.964700 53878.079652 53878.227397 53879.540536 53881.183122
291.555000 53876.308820 53877.377593 53878.571142 53878.713849 53880.102611 53881.858754
291.568000 53876.898461 53878.027003 53879.288445 53879.455696 53880.957213 53882.786922
291.585000 53877.630266 53878.805265 53880.199521 53880.348228 53881.905291 53883.997129
291.602000 53878.245725 53879.585003 53881.131482 53881.271034 53882.873314 53885.289227
291.618000 53878.978250 53880.328866 53881.999542 53882.141714 53883.868266 53886.463151
291.635000 53879.517363 53881.159191 53882.873600 53883.052131 53884.805827 53887.730418
291.651000 53880.176375 53881.869671 53883.798318 53883.933469 53885.868501 53888.808744
291.668000 53881.128469 53882.739712 53884.718493 53884.849348 53886.969212 53889.765261
291.685000 53881.896118 53883.515507 53885.631299 53885.771498 53888.027663 53890.921969
291.701000 53882.453087 53884.271102 53886.535044 53886.644585 53888.928946 53891.961073
291.718000 53883.112342 53885.136935 53887.448306 53887.568572 53889.922310 53893.007152
291.734000 53883.856663 53886.112517 53888.240865 53888.477786 53890.862710 53893.918814
291.751000 53884.508551 53886.963833 53889.148320 53889.408423 53891.974103 53894.871512
291.768000 53885.244871 53887.993815 53890.188674 53890.374072 53893.084526 53895.913527
291.784000 53885.866395 53888.793410 53891.044461 53891.263447 53894.066833 53897.240481
291.801000 53886.746722 53889.732460 53891.930165 53892.201169 53895.052486 53898.088402
291.818000 53887.543095 53890.566815 53892.801080 53893.123686 53896.081369 53899.143289
291.834000 53888.280368 53891.323847 53893.734204 53893.980060 53897.006171 53899.850493
291.851000 53888.995983 53892.260464 53894.613717 53894.911028 53897.946667 53900.857680
291.867000 53890.006655 53893.106677 53895.392548 53895.777045 53898.918300 53901.988226
291.884000 53890.779426 53893.869827 53896.406990 53896.687543 53899.939543 53903.103848
291.901000 53891.497720 53894.661077 53897.339432 53897.588445 53901.032680 53903.872944
291.917000 53892.696172 53895.428808 53898.192147 53898.457278 53901.873492 53904.790991
291.934000 53893.509926 53896.234182 53899.057540 53899.385574 53902.900620 53905.697048
291.951000 53894.431656 53897.063171 53900.064579 53900.304963 53903.786453 53906.911369
291.967000 53895.488481 53897.870915 53900.999135 53901.185914 53904.717831 53907.767363
291.984000 53896.357379 53898.631640 53901.909872 53902.141261 53905.810110 53908.817295
292.000000 53897.159143 53899.480592 53902.802971 53903.007433 53906.787652 53909.894044
292.017000 53898.135332 53900.304998 53903.807746 53903.971836 53907.666807 53910.800661
292.034000 53898.930186 53901.190482 53904.815001 53904.962319 53908.743701 53911.693418
292.050000 53899.622387 53902.122394 53905.817986 53905.911787 53909.769045 53912.638527
292.067000 53900.292541 53903.046144 53906.930701 53906.905582 53910.823123 53913.453231
292.083000 53901.115704 53903.875631 53907.854203 53907.848764 53911.686582 53914.247797
292.100000 53902.152430 53904.860330 53908.763651 53908.824935 53912.829679 53915.107805
292.117000 53903.251541 53905.751792 53909.733226 53909.760661 53913.820726 53916.269688
292.133000 53904.002490 53906.673053 53910.604828 53910.673051 53914.755683 53917.413979
292.150000 53904.858957 53907.587370 53911.751967 53911.680746 53915.695455 53918.455240
292.167000 53905.652012 53908.596797 53912.685690 53912.696819 53916.816835 53919.689532
292.183000 53906.536131 53909.392414 53913.591372 53913.625173 53917.610955 53920.632534
292.200000 53907.618027 53910.393613 53914.690339 53914.654738 53918.614522 53921.375726
292.216000 53908.638946 53911.473219 53915.588463 53915.580865 53919.483176 53922.621997
292.233000 53909.588345 53912.551434 53916.687829 53916.565426 53920.439974 53923.413271
292.250000 53910.547414 53913.424628 53917.789512 53917.579948 53921.615271 53924.467545
292.266000 53911.397964 53914.332954 53918.769766 53918.532007 53922.539228 53925.558380
292.283000 53912.108460 53915.320605 53919.798649 53919.571747 53923.561764 53926.572366
292.299000 53912.734219 53916.301661 53920.695876 53920.538765 53924.405220 53927.474620
292.316000 53914.227194 53917.442394 53921.653358 53921.620131 53925.544660 53928.635059
292.333000 53915.180041 53918.686035 53922.706481 53922.716587 53926.667914 53929.937900
292.349000 53916.224919 53919.674104 53923.611452 53923.665826 53927.726431 53930.879275
292.366000 53917.380907 53920.857322 53924.648714 53924.721506 53928.710517 53932.500578
292.383000 53918.316942 53921.793426 53925.565348 53925.735474 53929.829609 53933.508201
292.399000 53919.439676 53922.964501 53926.683142 53926.774729 53930.903304 53934.804127
292.416000 53920.560655 53924.006117 53927.788144 53927.902074 53931.859130 53935.820706
292.432000 53921.484639 53924.885687 53928.743178 53928.925127 53933.014084 53936.846846
292.449000 53922.661096 53925.944137 53929.854542 53930.021285 53934.291296 53937.787558
292.466000 53923.635727 53927.036908 53931.103923 53931.090985 53935.272224 53938.926981
292.482000 53924.811467 53928.162577 53932.059574 53932.112498 53936.358959 53939.998690
292.499000 53926.100042 53929.314598 53933.074743 53933.263097 53937.498734 53941.398817
292.516000 53926.960884 53930.519291 53934.138485 53934.379935 53938.429103 53942.431360
292.532000 53928.201958 53931.631074 53935.179580 53935.435312 53939.521904 53943.346998
292.549000 53929.345198 53932.746121 53936.310827 53936.581861 53940.657871 53944.696950
292.565000 53930.719344 53933.981223 53937.418715 53937.681696 53941.437115 53945.826475
292.582000 53931.664998 53935.169732 53938.698813 53938.837749 53942.649057 53946.841750
292.599000 53932.561278 53936.324412 53939.872034 53939.984826 53943.766732 53948.190320
292.615000 53933.919317 53937.390595 53940.902123 53941.034306 53944.909265 53948.962487
292.632000 53934.960947 53938.631351 53942.091252 53942.185524 53945.876494 53949.911381
292.648000 53936.121030 53939.694658 53943.176448 53943.224096 53946.725725 53951.004694
292.665000 53937.644536 53940.761657 53944.222821 53944.309368 53947.700728 53951.946199
292.682000 53938.469078 53941.776830 53945.235236 53945.394192 53948.852214 53953.006558
292.695000 53939.573217 53942.661556 53946.097781 53946.218801 53949.601424 53954.371274
292.705000 53940.196748 53943.282909 53946.720235 53946.843245 53950.235782 53954.849627
292.715000 53941.011215 53943.980516 53947.273729 53947.444939 53950.749983 53955.264334
292.725000 53941.593968 53944.601642 53947.917800 53948.060979 53951.366731 53955.773217
292.735000 53942.172199 53945.228373 53948.526374 53948.665358 53951.945229 53956.279507
292.745000 53942.828700 53945.882527 53949.081001 53949.261073 53952.461044 53956.921746
292.755000 53943.539060 53946.637806 53949.687554 53949.871181 53952.948686 53957.782063
292.765000 53944.164644 53947.237651 53950.194904 53950.427574 53953.473946 53958.112991
292.775000 53944.738770 53947.725503 53950.668403 53951.008863 53954.028302 53958.711581
292.785000 53945.451094 53948.288272 53951.208672 53951.574476 53954.602529 53959.314682
292.795000 53946.050497 53948.863069 53951.698343 53952.122390 53955.099182 53959.675583
292.805000 53946.729991 53949.514487 53952.258341 53952.682927 53955.779721 53960.234372
292.815000 53947.181358 53950.165403 53952.800209 53953.236012 53956.391220 53960.825669
292.825000 53947.711164 53950.698434 53953.325061 53953.784812 53956.933821 53961.379140
292.835000 53948.384379 53951.354892 53953.859932 53954.332990 53957.645671 53962.243161
292.845000 53948.926890 53951.837590 53954.455517 53954.871907 53958.228121 53962.706188
292.855000 53949.392511 53952.373480 53955.043513 53955.424176 53958.769729 53963.237530
292.865000 53949.834391 53952.854496 53955.607557 53955.964842 53959.286115 53964.052765
292.875000 53950.360959 53953.541408 53956.040674 53956.505777 53960.007227 53964.405867
292.885000 53950.890873 53954.038021 53956.554120 53957.035838 53960.631591 53964.951479
292.895000 53951.455787 53954.514640 53957.096985 53957.568020 53961.181270 53965.449432
292.905000 53951.937804 53954.961496 53957.666092 53958.099754 53961.697417 53965.870661
292.915000 53952.459723 53955.438468 53958.228517 53958.644113 53962.222121 53966.464454
292.925000 53953.095397 53955.885458 53958.707250 53959.167170 53962.892006 53967.189274
292.935000 53953.725127 53956.373466 53959.210248 53959.667938 53963.359326 53967.742259
292.945000 53954.416737 53956.851461 53959.734902 53960.200123 53963.898236 53968.191690
292.955000 53954.801848 53957.263425 53960.213911 53960.722810 53964.464516 53968.721202
292.965000 53955.327671 53957.686144 53960.781644 53961.258201 53964.925643 53969.229265
292.975000 53956.147394 53958.137495 53961.379120 53961.792357 53965.445364 53970.018799
292.985000 53956.852727 53958.570158 53961.824582 53962.296807 53965.979259 53970.651988
292.995000 53957.253631 53958.985174 53962.306358 53962.800036 53966.470816 53971.094924
293.003000 53957.613814 53959.324420 53962.696893 53963.208962 53966.866560 53971.459512
293.009000 53957.878824 53959.559551 53963.085480 53963.505920 53967.081284 53971.796840
293.017000 53958.318129 53959.865855 53963.476256 53963.903453 53967.492577 53972.064903
293.025000 53958.794538 53960.189754 53963.978237 53964.313694 53967.993592 53972.400087
293.035000 53959.330518 53960.633280 53964.482702 53964.825180 53968.758149 53972.917862
293.045000 53959.633389 53961.092134 53964.964074 53965.306123 53969.102207 53973.464361
293.055000 53960.347318 53961.503767 53965.461747 53965.811367 53969.618138 53973.917365
293.065000 53960.796534 53961.945140 53965.939030 53966.309511 53970.249877 53974.475694
293.075000 53961.141648 53962.372318 53966.397705 53966.796720 53970.800703 53974.853686
293.085000 53961.625638 53962.880589 53966.884371 53967.284699 53971.304475 53975.300548
293.095000 53961.891096 53963.286714 53967.331418 53967.776754 53971.889102 53975.987294
293.105000 53962.340312 53963.809478 53967.908523 53968.297387 53972.574438 53976.491412
293.115000 53962.742042 53964.356810 53968.411771 53968.807605 53973.038544 53976.960251
293.125000 53963.171979 53964.990985 53968.924943 53969.311847 53973.708243 53977.541439
293.135000 53963.505375 53965.504016 53969.394909 53969.806669 53974.195342 53978.059303
293.145000 53963.862195 53965.978445 53969.802580 53970.301866 53974.733120 53978.563235
293.155000 53964.336914 53966.473806 53970.248044 53970.786112 53975.251947 53978.984010
293.165000 53964.712685 53966.978291 53970.774123 53971.279798 53975.739877 53979.345714
293.175000 53965.099130 53967.491709 53971.294451 53971.769243 53976.310291 53979.917885
293.185000 53965.443184 53967.926245 53971.721484 53972.237124 53976.804039 53980.335146
293.195000 53965.906521 53968.402377 53972.147801 53972.721389 53977.283440 53980.661540
293.205000 53966.346547 53968.829122 53972.610147 53973.196231 53977.886610 53981.188859
293.215000 53966.794815 53969.330782 53973.194168 53973.687556 53978.370705 53981.749474
293.225000 53967.275638 53969.723958 53973.646064 53974.176315 53978.871208 53982.302739
293.235000 53967.873346 53970.299867 53974.151259 53974.678657 53979.337747 53982.854562
293.245000 53968.295409 53970.733435 53974.737158 53975.165179 53979.897424 53983.334006
293.255000 53968.825681 53971.274289 53975.191825 53975.634687 53980.497791 53983.746609
293.265000 53969.305057 53971.753991 53975.604909 53976.124589 53981.085750 53984.210996
293.275000 53969.876478 53972.297865 53976.198286 53976.603821 53981.528367 53984.584227
293.285000 53970.406148 53972.594697 53976.699242 53977.067396 53982.080391 53985.021370
293.295000 53970.851435 53973.035152 53977.175192 53977.531693 53982.619578 53985.401616
293.305000 53971.457749 53973.488638 53977.608681 53978.003746 53983.061832 53985.859224
293.315000 53971.866389 53973.945766 53978.142652 53978.482088 53983.613218 53986.361600
293.325000 53972.341957 53974.368964 53978.729002 53978.966181 53984.062564 53986.985282
293.335000 53972.746023 53974.878348 53979.285250 53979.447464 53984.499700 53987.510829
293.345000 53973.177235 53975.252120 53979.846258 53979.897451 53985.031327 53988.120963
293.355000 53973.676238 53975.690307 53980.417911 53980.354177 53985.489036 53988.696386
293.365000 53974.133292 53976.186495 53980.892277 53980.835240 53985.933074 53989.151782
293.375000 53974.613162 53976.539884 53981.311431 53981.299190 53986.376516 53989.704565
293.385000 53975.034423 53976.988408 53981.800764 53981.788974 53986.749215 53990.146252
293.395000 53975.496923 53977.439980 53982.456603 53982.271761 53987.197814 53990.576233
293.405000 53976.038191 53977.834805 53982.804783 53982.759605 53987.623337 53990.954463
293.415000 53976.578166 53978.394839 53983.353846 53983.250679 53988.098581 53991.361432
293.425000 53977.032054 53978.947308 53983.826438 53983.767974 53988.587000 53991.975329
293.435000 53977.456127 53979.440609 53984.238276 53984.259590 53989.066918 53992.437383
293.445000 53977.938873 53979.964488 53984.865734 53984.757125 53989.554735 53992.821285
293.455000 53978.351241 53980.370232 53985.398443 53985.249904 53990.002078 53993.401570
293.465000 53978.735529 53980.821880 53985.907952 53985.722000 53990.446243 53994.003541
293.475000 53979.194310 53981.317671 53986.420632 53986.217550 53990.925719 53994.511298
293.485000 53979.629348 53981.811357 53987.004608 53986.724572 53991.326542 53995.139775
293.495000 53980.008111 53982.301061 53987.475785 53987.222935 53991.844003 53995.574048
293.505000 53980.505900 53982.808924 53987.834403 53987.727314 53992.243058 53996.066782
293.515000 53981.104035 53983.348740 53988.255854 53988.225114 53992.707961 53996.497627
293.525000 53981.680718 53983.907425 53988.823421 53988.758133 53993.292264 53996.835383
293.535000 53982.087987 53984.462862 53989.278184 53989.260723 53993.858438 53997.353868
293.545000 53982.700747 53984.955942 53989.722596 53989.779547 53994.350436 53998.065494
293.555000 53983.250746 53985.572115 53990.182810 53990.295748 53994.874721 53998.548389
293.565000 53983.573372 53986.087805 53990.785302 53990.819589 53995.290023 53998.948684
293.575000 53984.068944 53986.639186 53991.226475 53991.318856 53995.813979 53999.595445
293.585000 53984.741303 53987.150305 53991.846374 53991.836043 53996.329584 54000.035604
293.595000 53985.135322 53987.736573 53992.392076 53992.356723 53996.907561 54000.537617
293.605000 53985.731989 53988.329293 53992.899551 53992.881351 53997.430545 54001.186116
293.615000 53986.308921 53988.875820 53993.333599 53993.398149 53997.875159 54001.648356
293.625000 53986.919570 53989.410992 53993.783190 53993.897005 53998.419680 54002.311838
293.635000 53987.563321 53989.939580 53994.270407 53994.400234 53998.916383 54002.897446
293.645000 53987.995312 53990.462313 53994.714708 53994.882151 53999.407176 54003.285689
293.655000 53988.472363 53991.013224 53995.166034 53995.394924 53999.889951 54003.632902
293.665000 53988.998306 53991.621405 53995.709397 53995.918889 54000.454327 54004.026530
293.675000 53989.560598 53992.191571 53996.273103 53996.448535 54000.939958 54004.553430
293.685000 53990.298953 53992.777929 53996.770890 53997.001628 54001.317834 54004.939424
293.695000 53990.894645 53993.165156 53997.323870 53997.517387 54001.842553 54005.350161
293.705000 53991.328894 53993.639075 53997.887988 53998.020137 54002.274089 54005.924676
293.715000 53991.817993 53994.136573 53998.321740 53998.512503 54002.698204 54006.424748
293.725000 53992.192876 53994.817453 53998.770650 53999.026440 54003.207601 54006.794083
293.735000 53992.496815 53995.308943 53999.266877 53999.516746 54003.615884 54007.105386
293.745000 53992.960209 53995.747840 53999.765511 54000.014279 54004.018204 54007.634064
293.755000 53993.309725 53996.247625 54000.223421 54000.506878 54004.418714 54008.136375
293.765000 53993.767835 53996.877454 54000.754547 54001.016439 54004.895262 54008.587523
293.775000 53994.302736 53997.422696 54001.222400 54001.516670 54005.286785 54008.947223
293.785000 53994.749001 53997.930770 54001.739599 54002.022241 54005.832740 54009.422196
293.795000 53995.343627 53998.446849 54002.205499 54002.514873 54006.315942 54009.839351
293.805000 53995.911547 53999.139424 54002.658865 54003.030663 54006.769887 54010.328294
293.815000 53996.302771 53999.713664 54003.127795 54003.547993 54007.408746 54010.873210
293.825000 53996.706659 54000.321429 54003.629973 54004.061726 54007.967214 54011.377203
293.835000 53997.158532 54000.865899 54004.220592 54004.569193 54008.689298 54011.788945
293.845000 53997.767024 54001.415543 54004.748254 54005.082589 54009.091869 54012.232779
293.855000 53998.268522 54001.977935 54005.346293 54005.606835 54009.657054 54012.703694
293.865000 53998.709234 54002.558687 54005.763515 54006.099052 54010.309467 54013.236738
293.875000 53999.620234 54003.094743 54006.358742 54006.617276 54010.910162 54013.701956
293.885000 54000.087486 54003.653342 54006.865364 54007.133871 54011.355625 54014.065391
293.895000 54000.672077 54004.243508 54007.466687 54007.656371 54011.926109 54014.570592
293.905000 54001.399887 54004.647492 54007.983922 54008.164075 54012.474660 54014.958424
293.915000 54002.006059 54005.239243 54008.491211 54008.676484 54012.846360 54015.507546
293.925000 54002.622009 54005.849984 54009.005057 54009.181603 54013.284810 54015.929101
293.935000 54003.165833 54006.422396 54009.555050 54009.698880 54013.838743 54016.468419
293.945000 54003.761410 54006.884584 54010.040545 54010.212211 54014.200647 54017.103635
293.955000 54004.379494 54007.330899 54010.538411 54010.711547 54014.754350 54017.660141
293.965000 54004.886573 54007.845904 54011.024648 54011.207009 54015.192000 54018.078421
293.975000 54005.251362 54008.455853 54011.489176 54011.701828 54015.589657 54018.594504
293.985000 54005.782372 54008.816297 54011.988316 54012.190581 54016.181372 54019.119256
293.995000 54006.208465 54009.424842 54012.511418 54012.677082 54016.648231 54019.813624
294.005000 54006.680149 54010.020308 54012.952155 54013.169971 54017.092688 54020.120132
294.015000 54007.147676 54010.413959 54013.397490 54013.648925 54017.517814 54020.553260
294.025000 54007.614260 54010.833066 54013.937045 54014.140656 54017.889144 54021.056561
294.035000 54008.064361 54011.299413 54014.423915 54014.651913 54018.432987 54021.554169
294.045000 54008.636716 54011.966638 54014.951496 54015.157811 54018.850941 54022.030761
294.055000 54009.062844 54012.365503 54015.458748 54015.671516 54019.360941 54022.550661
294.065000 54009.539570 54012.860213 54015.926916 54016.161895 54019.822556 54023.138706
294.075000 54009.993290 54013.408518 54016.393961 54016.667520 54020.222078 54023.799898
294.085000 54010.557601 54013.942805 54016.825856 54017.171940 54020.628078 54024.220123
294.095000 54011.078190 54014.582539 54017.248588 54017.668558 54021.082089 54024.644884
294.105000 54011.460209 54015.144394 54017.738139 54018.161651 54021.406872 54025.090693
294.115000 54011.980382 54015.508701 54018.240368 54018.667167 54021.969534 54025.547831
294.125000 54012.688246 54015.940835 54018.759972 54019.162277 54022.453735 54026.205558
294.135000 54013.324972 54016.342126 54019.227279 54019.645722 54022.887539 54026.560714
294.145000 54013.772201 54016.799093 54019.683216 54020.133522 54023.353910 54027.069565
294.155000 54014.276877 54017.241552 54020.169975 54020.644602 54023.929401 54027.603385
