depth(m) lower_95(kyr) lower_68(kyr) median(kyr) mean(kyr) upper_68(kyr) upper_95(kyr)
131.220000 42060.326417 42061.145724 42062.265004 42062.224891 42063.188690 42064.312211
131.260000 42061.641497 42062.613637 42063.764001 42064.031068 42065.402504 42068.476004
131.320000 42063.077130 42064.418474 42066.142651 42066.697386 42068.942875 42073.223512
131.380000 42064.748708 42066.247331 42068.811572 42069.387217 42072.567181 42077.174067
131.440000 42066.400750 42068.311817 42071.634680 42072.034713 42075.662078 42080.272826
131.500000 42068.297407 42070.446474 42074.305889 42074.582145 42078.666006 42083.537181
131.560000 42069.918469 42072.643951 42076.924014 42077.125087 42081.527389 42086.033497
131.620000 42071.939172 42075.236503 42079.544701 42079.675680 42084.062136 42088.950877
131.680000 42074.016301 42077.798110 42082.064452 42082.154381 42086.644750 42090.942433
131.740000 42076.089316 42080.021469 42084.524515 42084.643787 42089.464891 42093.063769
131.800000 42077.931761 42082.560433 42086.823539 42087.073014 42091.939835 42095.625907
131.860000 42080.767639 42084.679177 42089.291686 42089.408365 42094.291785 42097.778560
131.920000 42082.855213 42087.014527 42091.729647 42091.737972 42096.519270 42100.458564
131.980000 42085.577792 42089.253585 42094.146423 42094.036456 42098.603800 42102.665509
132.040000 42087.632314 42091.586086 42096.322884 42096.318058 42100.934406 42105.429745
132.100000 42089.757898 42093.960665 42098.570659 42098.530511 42103.157846 42107.273894
132.160000 42092.083318 42096.109879 42100.896615 42100.794445 42105.411718 42109.729405
132.220000 42094.038562 42098.408345 42103.099125 42103.024100 42107.813384 42111.695488
132.280000 42096.204282 42100.886957 42105.280422 42105.270327 42109.837046 42114.146777
132.340000 42098.714796 42103.024886 42107.475909 42107.501781 42111.913857 42116.384647
132.400000 42101.168020 42105.469517 42109.536782 42109.676376 42113.935302 42118.618795
132.460000 42104.104032 42107.719733 42111.827641 42111.937858 42116.110417 42120.657265
132.520000 42106.061357 42109.902864 42113.988578 42114.077489 42118.243251 42122.923003
132.580000 42108.066480 42111.870395 42116.066653 42116.221282 42120.373484 42125.544918
132.640000 42109.890974 42114.134737 42118.296163 42118.371619 42122.660011 42127.860087
132.700000 42111.865198 42116.096250 42120.478933 42120.508242 42124.864181 42129.407075
132.760000 42114.403202 42118.381287 42122.681204 42122.759844 42127.153850 42131.738773
132.820000 42116.607863 42120.518964 42124.746518 42124.935131 42129.636038 42134.005969
132.880000 42118.850028 42122.817470 42126.649851 42127.075783 42131.652274 42136.402397
132.940000 42121.193424 42124.868064 42128.808126 42129.208474 42133.918137 42138.198057
133.000000 42123.291719 42126.967530 42131.041030 42131.288001 42136.020568 42139.681005
133.060000 42125.144696 42129.031310 42133.220525 42133.425098 42137.933117 42142.240342
133.120000 42127.139582 42131.367056 42135.297318 42135.549615 42140.106407 42144.221555
133.180000 42129.292865 42133.327406 42137.498576 42137.622853 42141.928615 42146.274269
133.240000 42131.159895 42135.126707 42139.722771 42139.618309 42144.001069 42147.723510
133.300000 42133.141267 42136.978505 42141.915042 42141.672332 42146.120108 42149.733955
133.360000 42134.973085 42138.952520 42143.862051 42143.633032 42148.038741 42151.587275
133.420000 42137.184370 42141.191931 42145.864159 42145.609909 42149.908983 42153.192115
133.480000 42139.186950 42143.001093 42147.931184 42147.535154 42151.687489 42155.227881
133.540000 42141.359986 42144.963284 42149.857951 42149.493406 42153.451306 42157.253253
133.600000 42143.273930 42146.936650 42151.683918 42151.451767 42155.465367 42159.218567
133.660000 42145.008568 42149.006116 42153.811685 42153.426231 42157.318376 42161.254420
133.720000 42146.786339 42151.087808 42155.645527 42155.322881 42159.306820 42163.065545
133.780000 42148.627535 42152.886928 42157.284759 42157.144414 42161.083636 42165.065784
133.840000 42150.221061 42155.249421 42159.067852 42158.981323 42162.809891 42166.792631
133.900000 42152.442585 42157.030990 42160.859062 42160.748299 42164.687473 42168.371259
133.960000 42154.326941 42158.809691 42162.543056 42162.510573 42166.411750 42169.913210
134.020000 42156.397913 42160.446093 42164.229636 42164.254776 42168.190425 42171.627917
134.080000 42158.155452 42162.097746 42166.098378 42165.980543 42169.956235 42173.400593
134.140000 42160.153909 42163.820991 42167.705055 42167.723021 42171.692947 42175.026610
134.200000 42162.147265 42165.483153 42169.438553 42169.451870 42173.384060 42177.050548
134.260000 42163.761620 42167.284674 42171.054022 42171.165233 42175.284357 42179.101858
134.320000 42165.738772 42169.125238 42172.777633 42172.937218 42176.926891 42181.157708
134.380000 42167.173380 42170.664978 42174.424093 42174.662507 42178.827434 42182.735358
134.440000 42168.758164 42172.135597 42176.261083 42176.357280 42180.374386 42184.320921
134.500000 42170.452319 42173.755768 42177.957283 42178.037613 42182.202736 42185.869415
134.560000 42172.138100 42175.379376 42179.508865 42179.684992 42183.988329 42187.870131
134.620000 42173.553681 42176.839553 42181.203740 42181.364190 42185.688420 42189.891563
134.680000 42175.163906 42178.629190 42182.816048 42183.065873 42187.422067 42192.028857
134.740000 42176.776660 42180.494612 42184.502751 42184.771166 42189.254922 42193.781946
134.800000 42178.503569 42182.102264 42186.237427 42186.440008 42190.836729 42195.429685
134.860000 42180.115319 42183.775918 42187.873074 42188.120747 42192.590983 42197.392200
134.920000 42181.896556 42185.450460 42189.530131 42189.831754 42194.319850 42198.851655
134.980000 42183.459758 42186.906522 42191.348988 42191.440091 42195.783714 42200.438536
135.100000 42186.722446 42190.129452 42194.328758 42194.542744 42198.887161 42203.469839
135.160000 42188.629591 42191.792515 42196.013140 42196.196050 42200.601599 42205.406295
135.220000 42190.140833 42193.413158 42197.783688 42197.866188 42202.292820 42207.028692
135.240000 42190.608591 42193.985187 42198.412762 42198.389377 42202.716242 42207.483376
135.300000 42192.299774 42195.450527 42199.847396 42199.990034 42204.463990 42208.709098
135.360000 42193.520518 42197.200852 42201.542410 42201.555008 42206.007526 42210.050327
135.420000 42195.102029 42198.747078 42203.139121 42203.099760 42207.235799 42211.715368
135.480000 42196.405476 42200.316346 42204.689334 42204.618078 42208.641376 42213.259439
135.540000 42197.979257 42201.912946 42206.275001 42206.180636 42210.241788 42214.523574
135.600000 42199.864713 42203.419071 42207.839948 42207.774784 42211.753392 42215.729642
135.660000 42201.300921 42205.099761 42209.519164 42209.376079 42213.431689 42217.153342
135.720000 42203.014430 42206.867536 42210.947562 42210.930221 42215.043851 42218.636839
135.780000 42204.353214 42208.314118 42212.514619 42212.481013 42216.746514 42220.057952
135.840000 42206.319041 42210.050589 42213.851698 42214.007710 42218.236964 42221.530302
135.900000 42207.877541 42211.667291 42215.376327 42215.535293 42219.463663 42223.184874
135.960000 42209.658516 42213.279297 42216.956679 42217.061953 42221.059757 42224.871492
136.020000 42210.971892 42214.824674 42218.385397 42218.637095 42222.761578 42226.626372
136.080000 42212.535119 42216.360532 42219.890724 42220.150484 42224.169625 42228.293834
136.140000 42213.929747 42217.741509 42221.462119 42221.615007 42225.529234 42229.631123
136.200000 42215.212710 42219.288955 42223.093999 42223.175389 42227.128795 42231.330416
136.260000 42216.920202 42220.693977 42224.742023 42224.757788 42228.824180 42232.804400
136.320000 42218.532557 42222.228985 42226.282242 42226.309569 42230.422004 42234.726280
136.380000 42220.104985 42223.807216 42227.784487 42227.849239 42232.081957 42236.145979
136.440000 42221.722610 42225.244338 42229.183168 42229.361508 42233.723299 42237.573863
136.500000 42223.355938 42226.769710 42230.747551 42230.896918 42235.102414 42239.194937
136.560000 42225.107371 42228.292211 42232.324108 42232.460495 42236.665401 42240.645664
136.620000 42226.827685 42229.813185 42233.978408 42234.009087 42238.202465 42242.027774
136.680000 42228.224378 42231.577546 42235.525280 42235.636197 42239.766213 42243.591868
136.740000 42229.957817 42233.242103 42236.997646 42237.191440 42241.300544 42245.159118
136.800000 42231.579262 42234.677423 42238.439727 42238.675605 42242.699061 42246.536829
136.860000 42233.081295 42236.326090 42240.008437 42240.214686 42244.338791 42247.862492
136.920000 42234.290748 42237.784805 42241.538714 42241.720829 42245.686939 42249.280968
136.980000 42235.839952 42239.165861 42243.151757 42243.200702 42247.256292 42250.753894
137.040000 42237.007316 42240.681754 42244.614473 42244.683484 42248.712332 42252.157186
137.100000 42238.605884 42242.349505 42246.162564 42246.223020 42250.098253 42253.679751
137.160000 42240.504314 42243.934157 42247.761141 42247.765427 42251.740943 42255.283103
137.220000 42241.902289 42245.408457 42249.345137 42249.310863 42253.276445 42256.952719
137.280000 42243.150839 42246.872113 42250.663584 42250.781220 42254.826091 42258.386858
137.340000 42244.923356 42248.260099 42252.296775 42252.299300 42256.281690 42260.374339
137.400000 42246.401999 42249.861680 42253.762491 42253.798923 42257.810093 42262.074606
137.460000 42247.932324 42251.150593 42255.279868 42255.288405 42259.195555 42263.726060
137.520000 42249.389124 42252.681189 42256.852530 42256.806482 42260.639883 42265.189427
137.580000 42250.806254 42254.006818 42258.204430 42258.280291 42262.384217 42266.581341
137.640000 42251.831620 42255.476800 42259.620267 42259.753591 42263.790179 42268.203826
137.700000 42253.587550 42257.025763 42261.292758 42261.255985 42265.293662 42269.683629
137.760000 42254.887297 42258.473801 42262.654106 42262.736314 42266.827817 42271.010937
137.820000 42256.274678 42260.110500 42264.171630 42264.226421 42268.496861 42272.216048
137.880000 42257.975398 42261.689632 42265.539128 42265.688394 42269.839281 42273.330620
137.940000 42259.591502 42263.156972 42267.095407 42267.162791 42271.334248 42274.770801
138.000000 42260.793445 42264.620555 42268.552602 42268.623360 42272.943195 42276.343511
138.060000 42262.353960 42265.920110 42270.086007 42270.065245 42274.383809 42277.620866
138.120000 42263.995803 42267.427505 42271.618969 42271.556444 42275.666655 42279.225915
138.180000 42265.081210 42269.009887 42273.153868 42273.002941 42277.008641 42280.925626
138.240000 42266.729326 42270.516616 42274.583820 42274.505593 42278.494059 42282.200438
138.300000 42268.227203 42272.012188 42276.104177 42276.005477 42279.958091 42283.318427
138.360000 42269.852241 42273.316096 42277.559933 42277.513381 42281.438458 42284.575025
138.420000 42271.214611 42274.792154 42279.106504 42278.972837 42282.925816 42285.813181
138.480000 42272.898420 42276.574133 42280.597718 42280.479112 42284.200739 42287.355332
138.540000 42274.322137 42278.079864 42282.015598 42281.920410 42285.714052 42289.130846
138.600000 42275.448993 42279.509698 42283.453008 42283.375892 42287.131728 42290.529945
138.660000 42276.742608 42281.247985 42284.964367 42284.835336 42288.600033 42292.044293
138.720000 42278.410196 42282.434096 42286.234017 42286.235405 42289.933096 42294.078191
138.780000 42279.960461 42283.844341 42287.634177 42287.679606 42291.295212 42295.125057
138.840000 42281.087495 42285.259406 42289.167405 42289.158526 42292.943882 42296.539851
138.900000 42282.303887 42286.785590 42290.590943 42290.584068 42294.536691 42298.511796
138.960000 42283.547389 42288.149366 42291.997223 42291.980672 42295.831271 42300.184230
139.020000 42285.233052 42289.625568 42293.399778 42293.435430 42297.278999 42301.656147
139.140000 42288.919259 42292.310545 42296.070339 42296.260261 42300.379994 42304.481896
139.200000 42290.337876 42293.683177 42297.395185 42297.705454 42301.793622 42306.218989
139.260000 42292.162306 42295.253605 42298.750763 42299.133214 42303.315975 42307.463256
139.320000 42293.448384 42296.754929 42300.228810 42300.549041 42304.676862 42308.661314
139.380000 42294.967791 42298.097351 42301.573349 42301.983957 42306.063707 42310.376492
139.440000 42296.101617 42299.548141 42303.032557 42303.436119 42307.698031 42311.684475
139.500000 42297.332364 42301.127279 42304.532537 42304.955415 42309.141894 42313.155064
139.560000 42299.127144 42302.480914 42306.222969 42306.486159 42310.829232 42314.844061
139.620000 42300.693215 42303.804059 42307.730008 42307.955535 42312.327557 42316.177158
139.680000 42301.991444 42305.135449 42309.195127 42309.385043 42313.703516 42317.588738
139.740000 42303.362901 42306.532588 42310.743425 42310.822261 42315.231655 42318.909834
139.800000 42304.844700 42308.049035 42312.129755 42312.272298 42316.520486 42320.586503
139.860000 42306.037907 42309.489328 42313.759850 42313.756737 42317.853469 42322.146070
139.920000 42307.839751 42310.858687 42315.346341 42315.260051 42319.333451 42323.498107
139.980000 42308.997843 42312.264032 42316.877778 42316.724398 42320.716086 42324.520788
140.040000 42310.681452 42313.790231 42318.288878 42318.180541 42322.329578 42325.877040
140.100000 42312.178714 42315.220933 42319.768052 42319.633805 42323.660704 42327.317788
140.160000 42313.534222 42316.658629 42321.292742 42321.117866 42325.347874 42328.889504
140.220000 42315.175796 42318.229662 42322.725301 42322.639807 42326.712763 42330.532484
140.270000 42316.068928 42319.467490 42324.088228 42323.926643 42328.150492 42331.730936
140.320000 42317.427234 42320.524971 42325.402765 42325.179314 42329.376750 42333.068430
140.360000 42318.130872 42321.599518 42326.381027 42326.161871 42330.382856 42334.363645
140.420000 42319.394309 42322.983769 42327.776600 42327.629894 42331.713157 42335.715890
140.480000 42320.704202 42324.569706 42329.228361 42329.121528 42333.213446 42337.327345
140.540000 42322.003367 42325.898250 42330.837250 42330.585271 42334.601197 42338.859274
140.600000 42323.261272 42327.405360 42332.250011 42332.014080 42336.256185 42340.256423
140.660000 42324.305903 42329.013880 42333.592353 42333.486283 42337.860171 42341.865376
140.720000 42325.281192 42330.530183 42334.993782 42334.962420 42339.593167 42343.403932
140.780000 42326.622243 42332.256156 42336.507931 42336.477491 42340.981447 42345.054788
140.840000 42328.149189 42333.633686 42338.094281 42337.929981 42342.341541 42346.460794
140.900000 42329.443399 42335.163401 42339.569896 42339.392475 42343.895017 42347.819845
140.960000 42330.872357 42336.460285 42341.145755 42340.817433 42345.341606 42349.214729
141.020000 42332.790058 42337.888164 42342.672556 42342.322017 42346.829703 42350.364912
141.080000 42334.279899 42339.243654 42344.215418 42343.827131 42348.442522 42351.681627
141.140000 42335.715420 42340.622175 42345.643945 42345.302465 42349.903961 42353.036029
141.200000 42337.090970 42342.285808 42347.097724 42346.711699 42351.256914 42354.301660
141.260000 42338.683884 42343.805477 42348.513955 42348.149129 42352.857472 42355.567766
141.320000 42340.786605 42345.289190 42349.799112 42349.590736 42354.088174 42356.930121
141.380000 42342.182442 42346.711923 42351.147828 42351.043332 42355.632407 42358.461345
141.440000 42343.457569 42348.328490 42352.652525 42352.458616 42356.921645 42359.771519
141.500000 42345.014977 42349.721344 42354.001468 42353.881132 42358.265958 42361.421086
141.560000 42346.589408 42351.183871 42355.486552 42355.293233 42359.628772 42362.497829
141.620000 42348.355381 42352.734582 42356.828537 42356.714802 42360.888030 42363.503793
141.680000 42349.807545 42354.288402 42358.283246 42358.119176 42362.030758 42364.838702
141.740000 42352.046524 42355.821075 42359.882080 42359.576161 42363.488886 42366.063810
141.800000 42353.230123 42357.424898 42361.221554 42360.979608 42364.714607 42367.355980
141.860000 42354.543436 42358.637696 42362.690803 42362.389179 42365.928938 42368.956225
141.920000 42356.107434 42360.077709 42364.103732 42363.784442 42367.309662 42370.344052
141.980000 42357.938945 42361.648948 42365.443082 42365.194154 42368.605647 42371.580600
142.040000 42359.101429 42363.091739 42366.869680 42366.616843 42369.995044 42373.605334
142.100000 42361.120848 42364.414236 42368.144470 42367.953544 42371.291812 42374.994229
142.160000 42362.872164 42365.845454 42369.490869 42369.357872 42372.544826 42376.412942
142.220000 42364.265798 42367.521456 42370.765192 42370.793398 42373.996214 42378.027713
142.280000 42365.671460 42368.857708 42372.161119 42372.205608 42375.516339 42379.594429
142.340000 42367.099862 42370.326670 42373.583606 42373.570180 42376.857732 42380.653904
142.400000 42368.430614 42371.706663 42374.750809 42374.903552 42378.262576 42381.830420
142.460000 42369.941577 42373.061759 42376.111331 42376.364150 42379.733980 42383.349779
142.520000 42371.399988 42374.289747 42377.471060 42377.720445 42381.170242 42384.419335
142.580000 42372.677137 42375.650751 42378.758091 42379.049294 42382.712636 42385.911755
142.640000 42374.451081 42377.161798 42380.144717 42380.453001 42384.086534 42387.716558
142.700000 42375.519523 42378.608816 42381.430730 42381.849776 42385.559326 42389.263592
142.760000 42376.962831 42379.993327 42382.854143 42383.273287 42386.969801 42390.661252
142.820000 42378.574891 42381.366075 42384.375939 42384.741741 42388.527584 42392.351846
142.880000 42380.321011 42382.653101 42385.805701 42386.207888 42390.000226 42394.162218
142.940000 42381.563754 42384.042200 42387.262027 42387.598801 42391.311472 42395.528052
143.000000 42382.641709 42385.432531 42388.731277 42389.042331 42392.647598 42397.049613
143.060000 42384.021933 42386.966757 42390.180882 42390.516117 42394.242432 42399.010647
143.120000 42385.491322 42388.234140 42391.688247 42391.981503 42395.718240 42400.443649
143.180000 42386.739145 42389.645369 42393.233529 42393.433812 42397.275055 42402.027229
143.240000 42388.109352 42391.054814 42394.671543 42394.915264 42399.012849 42403.489895
143.300000 42389.482973 42392.528289 42396.085284 42396.443556 42400.577712 42405.159203
143.360000 42390.786902 42393.928975 42397.550028 42397.926243 42402.157320 42406.481177
143.420000 42392.318836 42395.332262 42399.068999 42399.385797 42403.450918 42408.190051
143.480000 42393.823229 42396.849404 42400.466855 42400.884524 42404.808942 42409.672204
143.540000 42395.076135 42398.368578 42401.937757 42402.373154 42406.639503 42410.938551
143.600000 42396.575237 42399.849818 42403.392018 42403.849999 42408.232215 42412.675343
143.660000 42398.020164 42401.401040 42404.844525 42405.334619 42409.714060 42414.072814
143.720000 42399.189939 42402.886281 42406.507004 42406.828761 42411.285180 42415.643040
143.780000 42400.469872 42404.167205 42408.015114 42408.319111 42412.726815 42417.194445
143.840000 42401.920119 42405.459445 42409.724810 42409.823280 42414.257443 42418.673535
143.900000 42403.554665 42406.901377 42411.236640 42411.319374 42415.598397 42420.188049
143.960000 42404.568552 42408.447401 42412.956487 42412.878850 42417.114898 42421.796899
144.020000 42406.565131 42410.027289 42414.608503 42414.449470 42418.838379 42423.260564
144.080000 42407.869387 42411.592139 42416.066447 42415.995299 42420.256259 42424.511980
144.130000 42409.265009 42412.916528 42417.385444 42417.291901 42421.554479 42425.893102
144.180000 42410.299462 42414.073289 42418.678502 42418.521549 42422.992828 42426.875522
144.220000 42411.317356 42415.025792 42419.623352 42419.522277 42424.014312 42427.521642
144.280000 42412.801555 42416.570815 42421.136645 42420.970409 42425.457196 42428.908476
144.340000 42414.399220 42417.900403 42422.519337 42422.398085 42426.860518 42430.253471
144.400000 42415.456750 42419.351030 42423.895812 42423.788230 42428.198785 42431.565617
144.520000 42418.401660 42422.182298 42426.700234 42426.642161 42431.018367 42434.871274
144.580000 42419.697044 42423.536770 42428.107283 42428.020326 42432.377740 42436.399706
