depth(m) lower_95(kyr) lower_68(kyr) median(kyr) mean(kyr) upper_68(kyr) upper_95(kyr)
0.250000 7.868779 9.351503 10.110115 10.278997 11.504655 12.570475
0.325000 7.978881 9.488118 10.236328 10.406753 11.615241 12.697379
0.400000 8.122280 9.623408 10.355403 10.537207 11.739868 12.829194
0.450000 8.241467 9.718735 10.436627 10.621782 11.826468 12.920688
0.500000 8.308875 9.830403 10.558266 10.705258 11.892598 12.995786
0.550000 8.385827 9.929230 10.632498 10.788318 11.962411 13.087687
0.600000 8.481325 9.992434 10.719711 10.867389 12.019005 13.154957
0.650000 8.594091 10.082154 10.777264 10.949068 12.103742 13.210919
0.700000 8.680634 10.184297 10.845702 11.030025 12.191243 13.289554
0.750000 8.766178 10.268509 10.920503 11.113441 12.254732 13.367134
0.800000 8.835160 10.362651 10.994760 11.195422 12.345131 13.420681
0.850000 8.940393 10.472391 11.067643 11.278987 12.433897 13.488204
0.900000 9.045180 10.548972 11.139277 11.364685 12.526157 13.565053
0.950000 9.084663 10.635399 11.207375 11.453289 12.633745 13.624332
1.000000 9.174120 10.719368 11.307952 11.544818 12.765482 13.672824
1.050000 9.349356 10.809561 11.415254 11.638518 12.849339 13.754624
1.100000 9.596263 10.891929 11.523459 11.739398 13.002937 13.833660
1.150000 9.830816 10.988572 11.626049 11.848273 13.246420 13.938907
1.200000 10.046240 11.075719 11.756493 11.960347 13.387297 14.021908
1.250000 10.189981 11.170713 11.881288 12.089099 13.526891 14.134691
1.300000 10.417981 11.294966 12.040075 12.242728 13.641798 14.222244
1.350000 10.861103 11.511690 12.225561 12.456849 13.758020 14.345523
1.400000 11.080763 11.657715 12.360688 12.588977 13.848050 14.438022
1.450000 11.287238 11.814806 12.497345 12.727808 13.934411 14.523271
1.500000 11.376220 11.979623 12.644064 12.866060 14.029411 14.585025
1.550000 11.496563 12.108161 12.869905 12.999967 14.112034 14.728007
1.600000 11.617639 12.225816 13.112808 13.158565 14.229407 14.928114
1.650000 11.757732 12.344173 13.290947 13.300586 14.360666 15.076608
1.700000 11.903517 12.470876 13.433236 13.436725 14.458871 15.180823
1.750000 12.048618 12.609838 13.578858 13.578682 14.581248 15.315032
1.800000 12.145183 12.721755 13.704631 13.715573 14.700756 15.417083
1.875000 12.423263 13.025688 14.014049 14.025536 14.928631 15.606882
1.950000 12.722165 13.367129 14.411321 14.317857 15.117615 15.783797
2.000000 12.901405 13.506919 14.539185 14.441844 15.238829 15.901959
2.050000 12.987523 13.655444 14.664737 14.562269 15.364748 15.986794
2.100000 13.106117 13.835484 14.804792 14.689988 15.475384 16.060437
2.175000 13.313084 14.078847 14.990763 14.884652 15.629983 16.213694
2.250000 13.493462 14.277590 15.211159 15.094033 15.814352 16.394224
2.300000 13.633104 14.403074 15.326725 15.216929 15.923586 16.542261
2.400000 13.960942 14.755155 15.598209 15.524169 16.168081 16.878433
2.450000 14.075187 14.879478 15.705581 15.642779 16.287967 16.966547
2.500000 14.201904 15.053746 15.840903 15.790035 16.404310 17.110515
2.550000 14.405691 15.227833 15.987499 15.949441 16.546732 17.309502
2.650000 14.821886 15.780667 16.251577 16.285650 16.902070 17.630429
2.750000 15.093732 16.017760 16.436685 16.526031 17.178781 17.864538
2.800000 15.195503 16.096963 16.526994 16.622757 17.276025 17.985275
2.875000 15.448952 16.239771 16.633950 16.764840 17.449083 18.197094
2.950000 15.754621 16.367201 16.750308 16.912653 17.612954 18.415494
3.050000 15.989658 16.526761 16.893392 17.095105 17.811851 18.797171
3.100000 16.077199 16.609884 16.958782 17.176873 17.912942 18.924425
3.200000 16.262316 16.742148 17.100773 17.329217 18.086575 19.142926
3.250000 16.327324 16.814082 17.159766 17.405473 18.183681 19.247180
3.300000 16.389727 16.881997 17.229565 17.478514 18.267270 19.332511
3.350000 16.448978 16.952514 17.300963 17.555124 18.350979 19.397394
3.400000 16.517482 17.022620 17.374767 17.635796 18.428419 19.541422
3.500000 16.632458 17.157111 17.539306 17.804365 18.628857 19.770477
3.550000 16.705841 17.221723 17.630234 17.884095 18.725285 19.895654
3.600000 16.783775 17.289663 17.706648 17.963773 18.817244 19.957614
3.700000 16.906819 17.422714 17.873943 18.123789 18.990171 20.084898
3.800000 17.087995 17.540500 18.059899 18.279291 19.211906 20.297431
3.900000 17.223093 17.662481 18.221947 18.432987 19.405956 20.526043
3.950000 17.316531 17.728296 18.298130 18.513071 19.472498 20.611170
4.000000 17.405944 17.798497 18.384256 18.596197 19.571129 20.724746
4.050000 17.471081 17.867637 18.458696 18.677426 19.663426 20.774845
4.125000 17.565466 17.970923 18.582897 18.804859 19.795172 20.928196
4.200000 17.668972 18.059750 18.726717 18.932077 19.935174 21.202288
4.250000 17.736165 18.128679 18.797570 19.009662 19.991352 21.293679
4.300000 17.816061 18.190926 18.892136 19.092906 20.050250 21.347482
4.350000 17.867819 18.263107 18.974479 19.172666 20.124680 21.428396
4.400000 17.941284 18.327105 19.055065 19.256961 20.201773 21.539649
4.450000 18.034245 18.387465 19.160693 19.336134 20.289201 21.657913
4.500000 18.095096 18.449293 19.225447 19.414687 20.368636 21.751920
4.550000 18.152970 18.509758 19.291021 19.492491 20.439857 21.804171
4.600000 18.254109 18.577874 19.394731 19.571275 20.504219 21.872707
4.650000 18.323533 18.648463 19.467906 19.650463 20.582900 21.939503
4.700000 18.398602 18.714002 19.541479 19.727383 20.644305 21.997229
4.750000 18.460207 18.776252 19.645337 19.806525 20.725284 22.101146
4.800000 18.539423 18.840142 19.713144 19.886272 20.813095 22.210529
4.900000 18.649348 18.992475 19.858802 20.044790 20.981717 22.401818
4.950000 18.728255 19.056855 19.938045 20.121613 21.077533 22.480237
5.000000 18.776819 19.149137 20.011533 20.201099 21.150983 22.627350
5.050000 18.828427 19.224457 20.082733 20.278639 21.215576 22.718987
5.100000 18.888295 19.293704 20.169629 20.357935 21.321188 22.799192
5.150000 18.958886 19.362922 20.265232 20.437515 21.410123 22.864730
5.200000 19.009251 19.436566 20.354069 20.514866 21.481070 22.965591
5.250000 19.074701 19.528008 20.433861 20.593167 21.571120 23.076552
5.300000 19.114894 19.599479 20.519063 20.673844 21.667636 23.136873
5.350000 19.197188 19.691986 20.633971 20.756772 21.766891 23.210027
5.400000 19.281977 19.796758 20.738600 20.839495 21.839226 23.278552
5.450000 19.344973 19.877285 20.861102 20.921601 21.913821 23.368758
5.500000 19.414855 19.944851 20.972016 21.003332 21.992481 23.478843
5.550000 19.463571 20.000121 21.057941 21.082682 22.070983 23.527391
5.600000 19.549721 20.072444 21.149255 21.167246 22.167159 23.602129
5.620000 19.569924 20.104648 21.177034 21.200786 22.215015 23.627787
5.650000 19.613319 20.150606 21.247526 21.250985 22.254678 23.670858
5.700000 19.686374 20.240972 21.354312 21.336189 22.321495 23.792867
5.750000 19.749590 20.337154 21.432526 21.420875 22.388519 23.896562
5.800000 19.813769 20.412501 21.521557 21.507731 22.490009 23.970059
5.850000 19.876815 20.493935 21.588244 21.588620 22.585244 24.073150
5.900000 19.954852 20.568499 21.669506 21.673606 22.662676 24.155834
5.950000 20.023839 20.648075 21.738310 21.755874 22.759150 24.238893
6.000000 20.104701 20.743898 21.804561 21.837700 22.840824 24.316571
6.050000 20.185963 20.804248 21.862884 21.919236 22.924073 24.437339
6.100000 20.250186 20.873707 21.939660 22.001817 23.027682 24.522489
6.150000 20.324130 20.955044 21.999534 22.081884 23.120746 24.616278
6.200000 20.383702 21.033712 22.070219 22.164029 23.230781 24.689483
6.250000 20.465434 21.116058 22.145263 22.246252 23.299887 24.758008
6.300000 20.541970 21.205087 22.205274 22.328323 23.395082 24.822615
6.350000 20.617172 21.278417 22.273005 22.408332 23.478772 24.891348
6.425000 20.716920 21.405388 22.368593 22.529326 23.691028 24.978528
6.500000 20.832612 21.517406 22.469525 22.649271 23.802247 25.099864
6.550000 20.896862 21.588435 22.551690 22.733386 23.905564 25.196732
6.600000 20.990817 21.660051 22.633351 22.817435 24.021027 25.259765
6.640000 21.040906 21.719656 22.698729 22.882710 24.102392 25.335254
6.690000 21.116584 21.795612 22.780080 22.966038 24.226971 25.402338
6.740000 21.177932 21.873727 22.859047 23.047820 24.309065 25.458134
6.790000 21.242851 21.963335 22.938944 23.132028 24.389423 25.541853
6.840000 21.320037 22.073285 23.018171 23.218865 24.478337 25.595737
6.890000 21.420530 22.168767 23.099095 23.306333 24.579992 25.669931
6.990000 21.544900 22.441198 23.259388 23.475881 24.709223 25.793496
7.090000 21.690340 22.627089 23.449524 23.642801 24.870127 25.960103
7.190000 21.849744 22.798632 23.680889 23.821229 25.051726 26.098307
7.240000 21.913140 22.870845 23.764919 23.908138 25.129925 26.172916
7.290000 21.966823 22.940316 23.857185 23.993617 25.199899 26.237554
7.390000 22.076283 23.106588 24.064660 24.167132 25.399266 26.364419
7.490000 22.192003 23.260324 24.242625 24.330036 25.551496 26.494540
7.540000 22.296610 23.349123 24.333950 24.415542 25.646409 26.564676
7.590000 22.351690 23.449211 24.429383 24.500931 25.726999 26.653848
7.640000 22.424403 23.518475 24.528382 24.583066 25.783148 26.720389
7.690000 22.518240 23.593121 24.635570 24.669652 25.879111 26.803347
7.740000 22.596995 23.663474 24.741579 24.750431 25.937757 26.884099
7.840000 22.732869 23.831443 24.955050 24.918183 26.104586 27.017733
7.890000 22.789133 23.909093 25.059796 25.002680 26.191481 27.095537
7.940000 22.913658 23.974273 25.167232 25.085981 26.270117 27.175875
7.990000 22.970852 24.077341 25.249737 25.167421 26.370048 27.257142
8.040000 23.032875 24.163929 25.328990 25.247897 26.481310 27.327170
8.115000 23.118625 24.257760 25.447610 25.369519 26.587266 27.445287
8.190000 23.209505 24.369424 25.548521 25.489771 26.727504 27.563754
8.290000 23.327070 24.506192 25.696610 25.643525 26.920751 27.661869
8.340000 23.382731 24.591400 25.770964 25.721654 27.000094 27.728936
8.440000 23.523640 24.757240 25.907557 25.877876 27.171580 27.856882
8.540000 23.646477 24.897467 26.030295 26.029358 27.357377 28.035328
8.615000 23.726476 24.994454 26.135018 26.145387 27.488267 28.121546
8.690000 23.843316 25.101577 26.240239 26.263714 27.607630 28.240714
8.740000 23.893215 25.175576 26.319556 26.347109 27.717549 28.302470
8.790000 23.977452 25.238155 26.394543 26.431392 27.800598 28.401362
8.840000 24.045920 25.344182 26.469206 26.511751 27.881706 28.510666
8.890000 24.114084 25.450438 26.553025 26.596846 27.959394 28.579643
8.940000 24.167756 25.509427 26.632325 26.680162 28.036792 28.650220
8.990000 24.223821 25.604019 26.736460 26.764808 28.128817 28.783588
9.040000 24.294418 25.694377 26.818288 26.849023 28.195023 28.917427
9.090000 24.375112 25.768809 26.907277 26.931450 28.306636 29.094496
9.140000 24.508827 25.874407 26.996191 27.012567 28.373585 29.184957
9.190000 24.585738 25.967892 27.088119 27.095456 28.446323 29.323026
9.265000 24.734710 26.108776 27.209067 27.219903 28.562449 29.473062
9.340000 24.879852 26.216976 27.323525 27.346413 28.667908 29.604706
9.440000 25.009672 26.419687 27.495857 27.522518 28.809269 29.856662
9.490000 25.120434 26.479567 27.571918 27.605639 28.882005 29.960271
9.540000 25.231143 26.564797 27.667327 27.689081 28.965017 30.026535
9.590000 25.412756 26.665248 27.750672 27.774810 29.041654 30.088242
9.640000 25.498051 26.752692 27.832786 27.860274 29.122251 30.164864
9.690000 25.606704 26.812739 27.909229 27.945616 29.193421 30.237789
9.790000 25.847957 26.990818 28.076830 28.120734 29.359486 30.396923
9.890000 26.083611 27.146673 28.226436 28.293708 29.493736 30.558295
9.990000 26.186033 27.286651 28.404790 28.473533 29.665642 30.721994
10.090000 26.408239 27.456881 28.561840 28.649541 29.809812 30.936597
10.190000 26.595788 27.615605 28.746550 28.829839 29.964837 31.168940
10.290000 26.714196 27.753407 28.908199 29.001789 30.127258 31.386759
10.390000 26.881298 27.935160 29.095544 29.182840 30.299195 31.599869
10.490000 27.002044 28.116441 29.275765 29.372181 30.461237 31.749042
10.540000 27.076578 28.199315 29.367260 29.458768 30.546852 31.790157
10.590000 27.163581 28.289939 29.453297 29.544668 30.623605 31.908081
10.640000 27.240556 28.393769 29.559536 29.632042 30.716101 32.037320
10.690000 27.341419 28.502454 29.648663 29.722084 30.804041 32.110289
10.740000 27.407331 28.584322 29.725966 29.810046 30.904265 32.186225
10.790000 27.486438 28.673178 29.811356 29.902856 30.972515 32.298761
10.840000 27.552239 28.742991 29.905195 29.994930 31.051768 32.390220
10.890000 27.617358 28.835499 29.983361 30.089014 31.110860 32.449123
10.910000 27.638343 28.873013 30.016093 30.125057 31.151800 32.475598
10.940000 27.673771 28.947592 30.062517 30.177346 31.198876 32.516332
11.010000 27.769625 29.116921 30.188931 30.303660 31.315281 32.710742
11.040000 27.813909 29.188159 30.247330 30.358428 31.370464 32.781808
11.060000 27.837164 29.230788 30.279847 30.394900 31.402818 32.816571
11.140000 27.933628 29.390588 30.423998 30.541027 31.524725 32.927632
11.160000 27.962779 29.426024 30.470066 30.577323 31.564182 32.960957
11.240000 28.056515 29.572320 30.648580 30.731331 31.749405 33.157532
11.260000 28.077128 29.603146 30.688974 30.768322 31.795472 33.180376
11.290000 28.121697 29.652313 30.752589 30.820543 31.844684 33.216838
11.360000 28.232259 29.866095 30.895684 30.949894 31.965049 33.315535
11.390000 28.278778 29.946073 30.933088 31.000459 32.012463 33.370575
11.490000 28.451579 30.156621 31.147752 31.185428 32.199072 33.586229
11.560000 28.537654 30.308550 31.278766 31.314039 32.312609 33.711938
11.590000 28.623624 30.351806 31.321959 31.366966 32.384983 33.773270
11.690000 28.731513 30.543574 31.570931 31.549565 32.618353 34.110425
11.740000 28.837312 30.627784 31.657681 31.640907 32.717643 34.236203
11.810000 28.909290 30.745520 31.771654 31.776513 32.901895 34.345709
11.860000 28.950410 30.833646 31.836999 31.866391 32.992904 34.497379
11.910000 29.022391 30.909818 31.933296 31.956509 33.079274 34.580402
11.990000 29.160929 31.052902 32.076735 32.107431 33.217448 34.754940
12.010000 29.186907 31.088540 32.109927 32.143159 33.251858 34.792257
12.040000 29.293525 31.140831 32.153044 32.197228 33.307314 34.846663
12.090000 29.421380 31.222320 32.276508 32.293714 33.385731 34.937243
12.140000 29.469381 31.305689 32.367817 32.395101 33.462899 35.081759
12.160000 29.491735 31.335250 32.403154 32.431314 33.511516 35.121812
12.190000 29.540347 31.397963 32.461737 32.486605 33.572145 35.192489
12.210000 29.594728 31.433675 32.510822 32.524659 33.619946 35.235982
12.240000 29.677227 31.481771 32.592462 32.590911 33.694770 35.300673
12.260000 29.711559 31.508365 32.647411 32.627818 33.727302 35.329886
12.290000 29.813424 31.547631 32.725984 32.690040 33.779982 35.390584
12.310000 29.860076 31.580989 32.760108 32.727395 33.823426 35.424917
12.360000 29.925222 31.668189 32.854391 32.850523 33.932174 35.583700
12.390000 30.006107 31.712510 32.912807 32.911881 34.004738 35.615441
12.410000 30.089709 31.741823 32.946751 32.951099 34.039294 35.656928
12.440000 30.168769 31.799714 33.009793 33.023811 34.114528 35.788815
12.460000 30.201729 31.835937 33.053757 33.062207 34.151837 35.818408
12.490000 30.254815 31.870719 33.105267 33.122715 34.212959 35.870121
12.510000 30.294450 31.897058 33.131824 33.159978 34.249501 35.909632
12.540000 30.362613 31.954385 33.218509 33.221514 34.318291 35.984723
12.560000 30.381521 31.983003 33.264204 33.260880 34.363679 36.019126
12.590000 30.452429 32.056867 33.319770 33.323821 34.432188 36.072132
12.610000 30.478385 32.099201 33.362016 33.361905 34.470067 36.111327
12.660000 30.609919 32.215250 33.467800 33.474503 34.575416 36.278924
12.710000 30.746676 32.353685 33.572517 33.587314 34.691855 36.366053
12.760000 30.935724 32.446745 33.690742 33.699530 34.792768 36.488155
12.860000 31.172018 32.740373 33.930977 33.971128 35.087385 37.111673
12.910000 31.294724 32.836642 34.040013 34.081496 35.204937 37.250052
12.960000 31.467259 32.944714 34.157873 34.200127 35.355098 37.333071
13.010000 31.554560 33.055513 34.281652 34.316811 35.509827 37.535292
13.060000 31.634910 33.140527 34.399989 34.434447 35.630367 37.647994
13.110000 31.687544 33.272902 34.499759 34.551560 35.769397 37.821258
13.160000 31.765389 33.396587 34.622634 34.681542 35.918950 38.084802
13.210000 31.851737 33.530452 34.724131 34.802573 36.039685 38.156988
13.260000 31.950609 33.659701 34.858386 34.933393 36.175878 38.471376
13.310000 32.050941 33.808184 34.979537 35.072253 36.289038 38.938039
13.360000 32.179399 33.938860 35.123548 35.199318 36.384786 39.034620
13.410000 32.279787 34.048174 35.246249 35.318290 36.493612 39.167814
13.460000 32.386062 34.184981 35.372090 35.445759 36.627668 39.307919
13.535000 32.493569 34.406750 35.569526 35.667386 36.808725 39.772697
13.610000 32.613820 34.567150 35.761492 35.874919 36.970539 39.992431
13.660000 32.733913 34.701867 35.860769 35.990355 37.066955 40.132166
13.710000 32.786840 34.767106 35.976347 36.107113 37.137087 40.307538
13.720000 32.797435 34.782572 36.006389 36.128131 37.156204 40.330774
13.760000 32.872116 34.911851 36.117024 36.226307 37.225009 40.497836
13.770000 32.887633 34.930884 36.144168 36.247115 37.252502 40.546409
13.810000 32.914441 35.057884 36.258566 36.350007 37.329354 40.642030
13.820000 32.936477 35.073266 36.280283 36.371539 37.350572 40.658171
13.860000 33.018223 35.218797 36.412051 36.490951 37.458340 40.730922
13.870000 33.028909 35.235036 36.437453 36.512962 37.480873 40.749448
13.910000 33.085775 35.352388 36.577773 36.630485 37.591693 40.860634
13.920000 33.110727 35.378848 36.598574 36.653564 37.609233 40.896917
13.960000 33.213947 35.447329 36.747813 36.776892 37.735758 41.002641
13.970000 33.236845 35.467979 36.766978 36.797966 37.758592 41.043770
14.010000 33.335729 35.588558 36.883729 36.913929 37.900024 41.256265
14.020000 33.356313 35.611246 36.905768 36.935231 37.917212 41.277315
14.060000 33.421341 35.701104 37.015668 37.046657 38.013506 41.408624
14.070000 33.433801 35.712017 37.040260 37.068318 38.032191 41.431495
14.110000 33.525222 35.857418 37.173014 37.180859 38.161855 41.536414
14.120000 33.546272 35.869825 37.195591 37.202610 38.179003 41.550797
14.160000 33.589817 35.965215 37.302269 37.309450 38.344099 41.613151
14.170000 33.604386 35.977880 37.324174 37.331368 38.356494 41.628174
14.210000 33.662402 36.077758 37.422826 37.435370 38.501654 41.720577
14.220000 33.684220 36.095058 37.443564 37.456985 38.527763 41.781057
14.310000 33.932390 36.299525 37.778817 37.742630 38.890028 42.044628
14.360000 33.996911 36.473298 37.892288 37.867338 39.019967 42.139904
14.410000 34.084115 36.608883 38.014684 37.995484 39.161228 42.226030
14.460000 34.135749 36.862721 38.126268 38.117743 39.263153 42.272424
14.470000 34.144340 36.882249 38.146204 38.139085 39.280237 42.282569
14.520000 34.243294 36.999941 38.278830 38.284768 39.442359 42.400832
14.560000 34.299435 37.087852 38.377233 38.388192 39.533593 42.464663
14.570000 34.310656 37.102638 38.398519 38.408850 39.567558 42.480889
14.610000 34.394871 37.212196 38.518018 38.514043 39.668517 42.532321
14.620000 34.405978 37.229036 38.541029 38.535890 39.693167 42.547602
14.660000 34.454230 37.299118 38.632783 38.637216 39.784522 42.697116
14.670000 34.469468 37.322525 38.651688 38.658199 39.807610 42.717728
14.710000 34.544636 37.507961 38.754347 38.764328 39.916057 42.789892
14.720000 34.557619 37.520933 38.778045 38.785892 39.953481 42.810029
14.760000 34.682619 37.701777 38.891924 38.898068 40.048675 42.921883
14.770000 34.701792 37.722169 38.911528 38.918305 40.067681 42.935584
14.810000 34.748927 37.817079 39.006172 39.017585 40.187129 43.043821
14.820000 34.765874 37.831617 39.024081 39.039308 40.204824 43.075586
14.920000 34.976046 38.099626 39.286311 39.321019 40.442488 43.349811
14.970000 35.153709 38.218266 39.409768 39.436296 40.541908 43.436976
15.020000 35.294461 38.310540 39.538974 39.547982 40.649006 43.530821
15.070000 35.378149 38.404566 39.653448 39.667177 40.746933 43.624795
15.120000 35.506733 38.498088 39.796722 39.797451 40.877085 43.745399
15.170000 35.690385 38.606994 39.929507 39.917027 40.986691 43.833734
15.270000 35.911383 38.928000 40.225606 40.210169 41.487993 44.118115
