depth(m) lower_95(kyr) lower_68(kyr) median(kyr) mean(kyr) upper_68(kyr) upper_95(kyr)
4.480000 17.202958 17.497225 17.781463 17.825568 18.134896 18.777264
4.500000 17.381845 17.626320 17.905994 17.954912 18.261196 18.902810
4.520000 17.541939 17.758730 18.028260 18.082010 18.379341 19.027566
4.530000 17.628550 17.824121 18.092328 18.150223 18.454047 19.097148
4.540000 17.715556 17.896755 18.156672 18.218375 18.522076 19.157447
4.550000 17.778122 17.968513 18.225718 18.288193 18.578746 19.232073
4.560000 17.835848 18.038574 18.297474 18.355828 18.647935 19.291174
4.570000 17.896134 18.103012 18.369781 18.423993 18.720606 19.362436
4.580000 17.959713 18.166310 18.441246 18.492425 18.786905 19.426493
4.590000 18.028175 18.229611 18.504149 18.559980 18.855365 19.481566
4.600000 18.105285 18.291087 18.577505 18.626981 18.931515 19.546346
4.620000 18.223248 18.415981 18.704051 18.751200 19.055189 19.658195
4.630000 18.288895 18.474699 18.767502 18.818140 19.118551 19.709940
4.640000 18.349533 18.547112 18.834718 18.886951 19.194118 19.766630
4.650000 18.413168 18.624958 18.901579 18.954913 19.258369 19.817602
4.660000 18.487060 18.689042 18.970012 19.024839 19.324943 19.884244
4.670000 18.559978 18.756698 19.038113 19.094957 19.398912 19.953627
4.680000 18.616851 18.824545 19.106017 19.162967 19.464949 20.009742
4.690000 18.684816 18.890201 19.177007 19.230380 19.533683 20.068105
4.700000 18.753897 18.956763 19.241966 19.296288 19.593709 20.129377
4.720000 18.865302 19.084453 19.375839 19.423473 19.720433 20.241789
4.730000 18.922871 19.158093 19.443833 19.491762 19.787461 20.304087
4.740000 18.975545 19.240415 19.508755 19.559102 19.842264 20.361937
4.750000 19.043751 19.304513 19.588043 19.629959 19.912303 20.427288
4.760000 19.108674 19.370701 19.671406 19.699799 19.974935 20.496009
4.770000 19.184983 19.433222 19.750914 19.771583 20.038636 20.602526
4.780000 19.255073 19.501937 19.824322 19.843286 20.105910 20.709279
4.790000 19.326722 19.570423 19.904028 19.913725 20.175221 20.796737
4.800000 19.393191 19.633376 19.978424 19.983101 20.238606 20.869296
4.820000 19.539069 19.757478 20.111503 20.111704 20.378934 20.987180
4.830000 19.598584 19.822257 20.181213 20.179257 20.440010 21.069728
4.840000 19.664753 19.887011 20.239833 20.246397 20.500539 21.130014
4.850000 19.722314 19.949164 20.316353 20.315195 20.573109 21.228742
4.860000 19.789345 20.014112 20.385079 20.383057 20.642942 21.327687
4.870000 19.865777 20.089259 20.455255 20.453164 20.711849 21.377705
4.880000 19.935686 20.152455 20.526979 20.523855 20.786788 21.430324
4.890000 20.019294 20.215064 20.591042 20.591504 20.860671 21.498241
4.900000 20.090507 20.288561 20.651039 20.661059 20.935822 21.564693
4.920000 20.211680 20.429058 20.786900 20.798648 21.080583 21.692742
4.930000 20.282942 20.498101 20.848362 20.870138 21.162036 21.738025
4.940000 20.358501 20.574135 20.921292 20.942914 21.240156 21.809387
4.950000 20.411558 20.647423 20.995078 21.013982 21.312296 21.875148
4.960000 20.474496 20.716051 21.064556 21.086900 21.384310 21.957403
4.970000 20.541368 20.797734 21.142333 21.162274 21.490537 22.021585
4.980000 20.597736 20.881760 21.223812 21.238717 21.580210 22.102551
4.990000 20.664282 20.963565 21.300432 21.314593 21.653822 22.170321
5.000000 20.729379 21.040000 21.382706 21.392275 21.732515 22.241140
5.020000 20.851795 21.183410 21.529851 21.539467 21.882450 22.363815
5.030000 20.911348 21.261745 21.609178 21.619412 21.973015 22.444935
5.040000 20.982883 21.342302 21.693681 21.701964 22.071396 22.511081
5.050000 21.051025 21.419075 21.780006 21.788073 22.173985 22.586815
5.060000 21.135121 21.503106 21.857373 21.875410 22.256210 22.676166
5.070000 21.202957 21.588575 21.949956 21.966228 22.368991 22.767055
5.080000 21.314068 21.676605 22.031361 22.060167 22.475317 22.864032
5.090000 21.410453 21.762303 22.128592 22.157467 22.577060 22.978416
5.100000 21.513754 21.849565 22.220366 22.261751 22.697295 23.091615
5.120000 21.743090 22.027697 22.442966 22.475971 22.968231 23.315401
5.130000 21.849853 22.117473 22.538007 22.579729 23.094221 23.464279
5.140000 21.920479 22.206232 22.637322 22.680429 23.181110 23.530307
5.150000 22.023163 22.295769 22.737181 22.778535 23.291067 23.620514
5.160000 22.135260 22.397203 22.841952 22.884699 23.400561 23.695980
5.170000 22.232730 22.508808 22.961148 22.991566 23.504017 23.818563
5.180000 22.320025 22.615777 23.071115 23.102300 23.610091 23.936449
5.190000 22.425569 22.733759 23.186768 23.216606 23.732889 24.032047
5.200000 22.529901 22.858707 23.304009 23.330282 23.819757 24.185976
5.220000 22.740470 23.102133 23.565356 23.576666 24.066814 24.375625
5.230000 22.873348 23.211448 23.690556 23.688335 24.168669 24.474239
5.240000 22.995568 23.316010 23.804842 23.800594 24.275734 24.590539
5.250000 23.092201 23.441311 23.916229 23.910966 24.377516 24.692000
5.260000 23.194867 23.564745 24.022141 24.020493 24.472570 24.800995
5.270000 23.318560 23.687009 24.141575 24.131284 24.570832 24.906938
5.280000 23.407964 23.802884 24.254529 24.241749 24.671742 25.008708
5.290000 23.495867 23.906200 24.370475 24.351368 24.777671 25.135795
5.300000 23.599055 23.999097 24.462411 24.457728 24.875065 25.231298
5.320000 23.798553 24.252360 24.709784 24.682069 25.094348 25.443522
5.330000 23.885619 24.357530 24.820260 24.787629 25.190832 25.549757
5.340000 23.978072 24.471340 24.932755 24.890577 25.284378 25.640399
5.350000 24.067351 24.571371 25.037890 24.995398 25.395568 25.755634
5.360000 24.159236 24.688920 25.140804 25.100852 25.491582 25.851959
5.370000 24.254381 24.806879 25.247073 25.206030 25.599729 25.932979
5.380000 24.348792 24.907453 25.348005 25.304679 25.689045 26.031790
5.390000 24.490891 25.007459 25.436913 25.405394 25.788340 26.121671
5.400000 24.579778 25.090952 25.526263 25.502956 25.891079 26.235088
5.420000 24.791291 25.287815 25.722664 25.698293 26.093132 26.457565
5.430000 24.921254 25.391996 25.816078 25.799134 26.185103 26.528251
5.440000 25.012321 25.495973 25.912247 25.896291 26.281160 26.639595
5.450000 25.136543 25.595525 26.003923 25.991491 26.363751 26.736163
5.460000 25.219869 25.683149 26.109492 26.086806 26.452044 26.882974
5.470000 25.365735 25.771984 26.218225 26.182560 26.543539 26.978895
5.480000 25.482371 25.871352 26.311847 26.278608 26.629835 27.099026
5.490000 25.586513 25.956709 26.403094 26.370854 26.713792 27.228863
5.500000 25.693221 26.057970 26.497520 26.461754 26.800755 27.347939
5.520000 25.877623 26.256306 26.675145 26.647173 26.972238 27.556976
5.530000 25.994086 26.344685 26.776105 26.742196 27.079347 27.650048
5.540000 26.101876 26.433265 26.864704 26.831617 27.155486 27.799887
5.550000 26.166188 26.526404 26.942669 26.921219 27.234044 27.883713
5.560000 26.236185 26.648052 27.022894 27.015877 27.332752 27.986665
5.570000 26.345936 26.728712 27.109342 27.107668 27.427345 28.063242
5.580000 26.442824 26.824181 27.189973 27.201107 27.511662 28.192800
5.590000 26.514045 26.940847 27.279596 27.298557 27.608310 28.281955
5.600000 26.627951 27.044516 27.368052 27.396899 27.720107 28.414284
5.620000 26.899555 27.255935 27.564623 27.599396 27.930190 28.620176
5.630000 26.982048 27.361344 27.651968 27.696391 28.027974 28.709211
5.640000 27.079097 27.466372 27.744007 27.797398 28.146769 28.801782
5.650000 27.144311 27.579982 27.831739 27.894598 28.259915 28.916443
5.660000 27.256042 27.674670 27.930826 27.995111 28.354148 29.031251
5.670000 27.356127 27.762797 28.036978 28.098081 28.463358 29.164893
5.680000 27.437645 27.861205 28.140170 28.203199 28.575170 29.241772
5.690000 27.546441 27.970066 28.253788 28.310065 28.685436 29.348723
5.700000 27.646825 28.057378 28.372320 28.421123 28.799912 29.453017
5.720000 27.834660 28.265212 28.616721 28.665087 29.074685 29.703990
5.730000 27.973242 28.378338 28.737673 28.781455 29.208527 29.844098
5.740000 28.034214 28.482872 28.854262 28.897529 29.303323 29.944457
5.750000 28.129280 28.592321 28.976686 29.012822 29.434440 30.059763
5.760000 28.242826 28.721224 29.086141 29.133895 29.563900 30.148504
5.770000 28.320693 28.832174 29.195030 29.250641 29.710284 30.317707
5.780000 28.501625 28.951119 29.313432 29.371779 29.844985 30.437138
5.790000 28.647450 29.059164 29.437490 29.501859 29.994460 30.564258
5.800000 28.769347 29.182958 29.580602 29.637939 30.160453 30.723906
5.820000 28.974510 29.452038 29.906556 29.959875 30.537203 31.108763
5.830000 29.082892 29.553328 30.043417 30.091959 30.677688 31.251334
5.840000 29.179498 29.685940 30.155957 30.216630 30.814444 31.394805
5.850000 29.281079 29.814692 30.287567 30.346219 30.932079 31.519869
5.860000 29.387147 29.940017 30.427598 30.474990 31.063417 31.637990
5.870000 29.507473 30.079938 30.553457 30.598124 31.174514 31.776838
5.880000 29.623014 30.198372 30.691664 30.727946 31.295629 31.948687
5.890000 29.749039 30.322155 30.804204 30.853252 31.425661 32.050424
5.900000 29.853664 30.445411 30.939429 30.981160 31.581912 32.147788
5.920000 30.246138 30.693957 31.333523 31.318357 31.936309 32.433142
5.930000 30.375067 30.830306 31.468752 31.444115 32.050355 32.556357
5.940000 30.496808 30.939126 31.606578 31.574113 32.200111 32.648464
5.950000 30.644165 31.067949 31.725308 31.703331 32.326053 32.758532
5.960000 30.747445 31.210015 31.849688 31.829608 32.471979 32.898067
5.970000 30.857965 31.331684 31.991603 31.964462 32.604737 33.000523
5.980000 30.987070 31.469024 32.112833 32.087606 32.694143 33.123403
5.990000 31.122168 31.595534 32.254355 32.219930 32.817217 33.222838
6.000000 31.256204 31.752974 32.363152 32.343999 32.934844 33.311360
6.020000 31.589219 32.085234 32.669348 32.640882 33.189393 33.565939
6.030000 31.713222 32.223514 32.791166 32.764975 33.290236 33.696271
6.040000 31.851878 32.363908 32.906769 32.886074 33.406002 33.810533
6.050000 31.975293 32.481515 33.014404 32.998916 33.500583 33.905647
6.060000 32.097351 32.603079 33.126872 33.111006 33.604766 34.041005
6.070000 32.204074 32.739593 33.237143 33.221938 33.696371 34.142863
6.080000 32.320227 32.862152 33.347056 33.330695 33.823383 34.238879
6.090000 32.438335 32.979827 33.457000 33.436512 33.899127 34.343020
6.100000 32.558316 33.091626 33.568750 33.546186 34.007696 34.443179
6.120000 32.902863 33.383433 33.759360 33.776614 34.214688 34.699439
6.130000 33.010110 33.485397 33.852855 33.881758 34.330243 34.814171
6.140000 33.154572 33.591383 33.946164 33.986251 34.444266 34.881837
6.150000 33.277929 33.704640 34.045251 34.090987 34.550162 34.990696
6.160000 33.437466 33.796635 34.138425 34.193288 34.654384 35.082051
6.170000 33.545752 33.893994 34.219343 34.292283 34.763220 35.189768
6.180000 33.656296 33.999495 34.297681 34.388205 34.852298 35.292466
6.190000 33.760544 34.097647 34.387352 34.485896 34.951637 35.406578
6.200000 33.844627 34.196577 34.490082 34.581233 35.062507 35.523989
6.220000 34.030377 34.359534 34.670407 34.760572 35.241929 35.704893
6.230000 34.117411 34.439699 34.761422 34.849660 35.336764 35.782218
6.240000 34.232612 34.512234 34.842922 34.936709 35.417967 35.899443
6.250000 34.324523 34.585018 34.942644 35.025521 35.507777 36.005970
6.260000 34.403665 34.658067 35.049349 35.115250 35.617695 36.120800
6.270000 34.493822 34.739118 35.148868 35.204532 35.686187 36.213938
6.280000 34.584144 34.824174 35.239903 35.294639 35.767957 36.289424
6.290000 34.680336 34.904567 35.333662 35.390328 35.887805 36.403148
6.300000 34.755503 35.003243 35.451500 35.491838 35.977271 36.491422
6.320000 34.925877 35.170277 35.658056 35.697358 36.209357 36.704763
6.330000 35.026140 35.258216 35.760277 35.798041 36.332633 36.820600
6.340000 35.086668 35.356852 35.873778 35.900778 36.446617 36.937258
6.350000 35.202217 35.472770 35.995498 36.016463 36.538856 37.079810
6.360000 35.287479 35.585557 36.111996 36.132979 36.661643 37.153535
6.370000 35.418727 35.722139 36.237893 36.257192 36.768936 37.266029
6.380000 35.521052 35.866985 36.377325 36.386254 36.888610 37.380735
6.390000 35.651114 35.987413 36.497663 36.515076 37.014189 37.503709
6.400000 35.800602 36.148939 36.649531 36.649174 37.119573 37.617917
6.420000 36.191213 36.543966 36.969700 36.994803 37.439302 37.848839
6.430000 36.333815 36.695736 37.101392 37.129711 37.554057 37.986122
6.440000 36.461303 36.824576 37.228036 37.250268 37.663480 38.107964
6.450000 36.619149 36.964924 37.346955 37.374104 37.798540 38.222309
6.460000 36.718470 37.098096 37.464259 37.493881 37.921100 38.354250
6.470000 36.842866 37.208868 37.608313 37.614929 38.028271 38.451524
6.480000 36.983586 37.344012 37.733695 37.741341 38.165323 38.550862
6.490000 37.107346 37.464540 37.860861 37.864789 38.280906 38.678739
6.500000 37.237865 37.607321 37.984736 37.992456 38.392091 38.783961
6.520000 37.551147 37.894972 38.269688 38.281767 38.656614 39.035448
6.530000 37.659831 38.034319 38.403567 38.404928 38.776698 39.134516
6.540000 37.773212 38.147884 38.522394 38.526710 38.894849 39.261309
6.550000 37.894117 38.299066 38.669478 38.656954 39.020855 39.382721
6.560000 38.015365 38.430326 38.814571 38.794321 39.156058 39.465301
6.570000 38.119318 38.554300 38.947491 38.924826 39.282874 39.578975
6.580000 38.277874 38.661578 39.067340 39.047415 39.409308 39.672745
6.590000 38.397006 38.821193 39.207454 39.175434 39.519861 39.777763
6.600000 38.535864 38.933259 39.325883 39.297369 39.658385 39.868161
6.620000 38.846200 39.252923 39.594648 39.554682 39.857971 40.040573
6.630000 38.949724 39.382955 39.703601 39.665049 39.956491 40.139837
6.640000 39.059150 39.485114 39.813219 39.767840 40.043071 40.250727
6.650000 39.176299 39.610289 39.904879 39.863256 40.122452 40.319508
6.660000 39.265934 39.716732 39.989907 39.957931 40.202189 40.401375
6.670000 39.389928 39.812889 40.094060 40.050356 40.276777 40.525058
6.680000 39.485910 39.904746 40.185039 40.138249 40.353893 40.593934
6.690000 39.655722 40.010517 40.266986 40.224400 40.427023 40.680186
6.700000 39.732008 40.109162 40.341322 40.307484 40.496074 40.767161
6.720000 39.918961 40.279036 40.483994 40.461795 40.631923 40.939714
6.730000 40.000815 40.378678 40.559010 40.544010 40.703763 41.037147
6.740000 40.111603 40.454484 40.634070 40.622723 40.779167 41.099497
6.750000 40.186378 40.557262 40.710955 40.700524 40.847934 41.171123
6.760000 40.241147 40.628301 40.787305 40.776636 40.932534 41.248130
6.770000 40.315697 40.704837 40.854968 40.853091 41.015347 41.332667
6.780000 40.391875 40.783537 40.929546 40.932900 41.102229 41.436049
6.790000 40.483464 40.865171 41.000358 41.011254 41.190144 41.510857
6.800000 40.540642 40.933007 41.072810 41.087448 41.294523 41.592898
6.820000 40.687488 41.061265 41.213435 41.234623 41.471590 41.742988
6.830000 40.772382 41.135748 41.282942 41.312373 41.554106 41.826524
6.840000 40.883401 41.206474 41.358987 41.390719 41.658010 41.889590
6.850000 40.959716 41.278406 41.439676 41.471033 41.744232 41.971015
6.860000 41.058545 41.345239 41.522489 41.550961 41.817653 42.045934
6.870000 41.128399 41.420832 41.604248 41.630799 41.900952 42.131903
6.880000 41.191566 41.494561 41.691098 41.711165 41.980753 42.216402
6.890000 41.262459 41.574302 41.768535 41.794399 42.072673 42.318088
6.900000 41.371177 41.652533 41.855659 41.877008 42.150108 42.404328
6.920000 41.488817 41.804748 42.015366 42.032817 42.303132 42.563500
6.930000 41.547821 41.884303 42.092864 42.115139 42.387415 42.658961
6.950000 41.719083 42.034979 42.259807 42.275931 42.547176 42.834611
6.960000 41.791275 42.114166 42.350864 42.357230 42.622135 42.908587
6.970000 41.859723 42.198226 42.428585 42.441904 42.714574 42.972732
6.980000 41.942215 42.273744 42.509917 42.520046 42.789943 43.061865
6.990000 41.996492 42.359715 42.591944 42.601379 42.875963 43.151183
7.000000 42.085146 42.441897 42.674751 42.681869 42.951842 43.240269
7.020000 42.259275 42.573825 42.819956 42.831875 43.109617 43.441262
7.030000 42.351529 42.642955 42.896277 42.908732 43.186890 43.523357
7.040000 42.418359 42.712511 42.968944 42.981761 43.256639 43.590254
7.050000 42.522224 42.783058 43.043356 43.053779 43.342563 43.683765
7.060000 42.600627 42.849716 43.110426 43.124792 43.419185 43.749327
7.070000 42.680821 42.918829 43.183288 43.197398 43.492396 43.818467
7.080000 42.728163 42.978868 43.256614 43.270634 43.571542 43.884754
7.090000 42.785635 43.066140 43.328798 43.346658 43.650707 43.942084
7.100000 42.878985 43.137418 43.398184 43.420579 43.723636 43.996785
7.120000 43.044440 43.273640 43.554648 43.565541 43.878619 44.133954
7.130000 43.112819 43.346018 43.627937 43.643372 43.962257 44.213225
7.140000 43.182862 43.417751 43.702193 43.721741 44.046347 44.299570
7.150000 43.239937 43.507019 43.783304 43.799286 44.134712 44.359637
7.160000 43.310918 43.583620 43.866443 43.880011 44.219487 44.421193
7.170000 43.387133 43.659737 43.945281 43.960021 44.298947 44.485032
7.180000 43.447938 43.739942 44.024935 44.038141 44.381504 44.562350
7.190000 43.511702 43.816374 44.104619 44.118118 44.453966 44.636751
7.200000 43.587845 43.893293 44.180357 44.192262 44.523440 44.700411
7.220000 43.722114 44.024392 44.337560 44.338045 44.658541 44.845506
7.230000 43.791091 44.100718 44.417151 44.415854 44.734849 44.930964
7.240000 43.888825 44.181765 44.496840 44.493244 44.806753 44.999391
7.250000 43.964798 44.264077 44.577820 44.569393 44.875583 45.081975
7.260000 44.056706 44.339410 44.668410 44.647806 44.948845 45.141387
7.270000 44.144148 44.405046 44.746044 44.722249 45.022677 45.204672
7.280000 44.193085 44.479163 44.829454 44.797252 45.088659 45.316969
7.290000 44.275506 44.553444 44.914112 44.874426 45.157510 45.377949
7.300000 44.354936 44.639874 44.992362 44.950307 45.225907 45.449091
7.320000 44.506718 44.801103 45.134430 45.094135 45.361944 45.577740
7.330000 44.590885 44.879626 45.210005 45.170040 45.437852 45.652288
7.340000 44.659226 44.968541 45.293797 45.252062 45.509662 45.765091
7.350000 44.723301 45.048733 45.375705 45.331622 45.596611 45.845041
7.360000 44.794830 45.140065 45.452153 45.413089 45.669970 45.924507
7.370000 44.879980 45.222106 45.521471 45.490129 45.745237 45.998726
7.380000 44.980518 45.308145 45.592248 45.568650 45.823501 46.070145
7.390000 45.063961 45.392664 45.670735 45.651028 45.900487 46.143981
7.400000 45.145590 45.480915 45.752251 45.730630 45.981300 46.229467
7.420000 45.345821 45.627886 45.888809 45.881448 46.132677 46.365896
7.430000 45.433992 45.715437 45.960949 45.960679 46.226191 46.441075
7.440000 45.529503 45.799428 46.035203 46.040453 46.310647 46.522904
7.450000 45.608639 45.879445 46.114769 46.122191 46.392043 46.613553
7.460000 45.669246 45.956796 46.208688 46.205673 46.498200 46.682693
7.470000 45.748735 46.026521 46.298106 46.289613 46.572323 46.771833
7.480000 45.830349 46.104801 46.382450 46.372196 46.655807 46.834310
7.490000 45.924141 46.189078 46.475074 46.454332 46.718957 46.906532
7.500000 45.984730 46.266836 46.557499 46.537703 46.789103 46.995083
7.520000 46.148662 46.413705 46.727780 46.695710 46.941929 47.144314
7.530000 46.235466 46.490026 46.807172 46.778219 47.031114 47.225755
7.540000 46.324166 46.566573 46.893108 46.858058 47.114081 47.305339
7.550000 46.423173 46.636401 46.974887 46.936342 47.193040 47.393180
7.560000 46.499484 46.715250 47.043992 47.014754 47.263899 47.475706
7.570000 46.585457 46.790300 47.116995 47.090262 47.346490 47.558267
7.580000 46.649879 46.868766 47.192877 47.166968 47.422841 47.655777
7.590000 46.724922 46.938107 47.267212 47.243172 47.500009 47.746681
7.600000 46.797852 47.024094 47.338549 47.321944 47.587819 47.837879
7.620000 46.929127 47.168537 47.484307 47.464668 47.724757 48.007588
7.630000 46.994965 47.245193 47.552415 47.537275 47.793720 48.079623
7.640000 47.053500 47.311852 47.623472 47.610564 47.865547 48.166849
7.650000 47.125580 47.390929 47.715683 47.685657 47.955679 48.234253
7.660000 47.185653 47.466608 47.785816 47.761155 48.041446 48.302580
7.670000 47.232524 47.553018 47.862230 47.837534 48.130222 48.365423
7.680000 47.307813 47.626671 47.941044 47.912834 48.200282 48.435530
7.690000 47.375240 47.713244 48.010410 47.989378 48.289405 48.520478
