depth(m) lower_95(kyr) lower_68(kyr) median(kyr) mean(kyr) upper_68(kyr) upper_95(kyr)
0.000000 1.533119 2.205871 2.720055 2.754926 3.386573 3.935964
0.020000 1.688360 2.394884 2.946405 2.963370 3.611766 4.150210
0.040000 1.861278 2.600222 3.138476 3.156160 3.838802 4.352978
0.060000 2.057954 2.796010 3.335365 3.354951 4.018845 4.501046
0.080000 2.300613 2.977168 3.521843 3.548939 4.232070 4.699271
0.100000 2.484602 3.169918 3.710572 3.740358 4.420809 4.931568
0.120000 2.636364 3.357180 3.905620 3.930506 4.602277 5.054085
0.140000 2.873553 3.546142 4.094975 4.119029 4.765896 5.242014
0.160000 3.140417 3.745633 4.273009 4.304562 4.956754 5.416504
0.180000 3.340074 3.919394 4.466476 4.485181 5.122907 5.559951
0.200000 3.625773 4.111153 4.649150 4.672111 5.295641 5.753505
0.220000 3.824418 4.308479 4.847501 4.861913 5.455195 5.936798
0.240000 4.013783 4.501361 5.054316 5.058620 5.655771 6.121739
0.260000 4.241249 4.701858 5.270150 5.266807 5.866381 6.309361
0.280000 4.449081 4.912105 5.492230 5.483446 6.077740 6.528983
0.300000 4.611025 5.147471 5.708383 5.706742 6.280228 6.735493
0.320000 4.822678 5.376930 5.939457 5.942752 6.517439 6.962660
0.340000 5.028933 5.618713 6.220223 6.199957 6.777612 7.271826
0.360000 5.236934 5.895882 6.502456 6.465479 7.050323 7.545560
0.380000 5.463225 6.158033 6.801583 6.762248 7.334337 7.820058
0.400000 5.823483 6.508606 7.146354 7.097367 7.662546 8.138037
0.440000 7.041911 7.485299 7.910792 7.896279 8.307705 8.664963
0.460000 7.323062 7.755696 8.170762 8.158966 8.568334 8.850986
0.480000 7.565540 8.027877 8.400487 8.391291 8.776843 9.064075
0.500000 7.833501 8.247990 8.607552 8.600979 8.967960 9.267781
0.520000 8.050967 8.477658 8.825811 8.811317 9.158188 9.470030
0.540000 8.310625 8.684070 9.028344 9.010745 9.342422 9.672519
0.560000 8.563528 8.887708 9.217931 9.211557 9.533328 9.872705
0.580000 8.769186 9.081408 9.404570 9.406804 9.725863 10.082374
0.600000 8.939299 9.263900 9.585783 9.592853 9.934636 10.279843
0.620000 9.156455 9.456586 9.768979 9.778268 10.108561 10.451019
0.640000 9.332373 9.645678 9.954313 9.966790 10.295895 10.618178
0.660000 9.518331 9.812477 10.141199 10.146350 10.479982 10.803776
0.680000 9.735563 9.998076 10.313999 10.327274 10.664374 10.968931
0.700000 9.932925 10.181798 10.499513 10.516321 10.850701 11.168427
0.720000 10.095497 10.372716 10.682870 10.697724 11.033068 11.344765
0.740000 10.272002 10.554561 10.865351 10.881639 11.219392 11.521687
0.760000 10.446435 10.731780 11.055809 11.067638 11.420284 11.725359
0.780000 10.666393 10.919729 11.242066 11.257855 11.621669 11.939144
0.800000 10.863596 11.101177 11.444599 11.451939 11.805960 12.136055
0.820000 11.033455 11.299380 11.635503 11.642999 11.996880 12.338396
0.840000 11.211609 11.485726 11.832043 11.836090 12.198232 12.556263
0.860000 11.374619 11.671174 12.042861 12.039420 12.395677 12.783110
0.880000 11.565125 11.863748 12.255120 12.253086 12.629025 13.011118
0.900000 11.743483 12.062590 12.449769 12.464583 12.849591 13.218535
0.920000 11.977814 12.296002 12.700068 12.698065 13.073343 13.512175
0.940000 12.183683 12.549775 12.940329 12.944400 13.337267 13.805222
0.960000 12.436764 12.807750 13.212615 13.213153 13.611809 14.066839
0.980000 12.682703 13.090997 13.505980 13.507223 13.927757 14.391928
1.000000 12.960133 13.418602 13.820915 13.832513 14.287785 14.658386
1.020000 13.368642 13.771925 14.195239 14.205444 14.648455 15.054559
1.040000 13.773473 14.251664 14.708206 14.699984 15.154707 15.516409
1.060000 14.128882 14.636960 15.123919 15.101023 15.566921 15.892505
1.080000 14.499793 15.010715 15.480824 15.465930 15.888115 16.352749
1.100000 14.899055 15.329447 15.772814 15.772660 16.184020 16.633776
1.120000 15.184951 15.682853 16.098912 16.088427 16.498366 16.924036
1.140000 15.467044 15.998681 16.415255 16.412077 16.852090 17.227008
1.160000 15.878800 16.317348 16.779286 16.769774 17.210529 17.612017
1.180000 16.220367 16.633309 17.103837 17.098413 17.526320 18.009158
1.200000 16.517498 17.018548 17.455073 17.439091 17.853128 18.284463
1.220000 16.840584 17.310233 17.758364 17.742529 18.169863 18.575910
1.240000 17.198069 17.598707 18.003575 18.031098 18.457253 19.003260
1.260000 17.433983 17.860993 18.258570 18.290416 18.721023 19.287971
1.280000 17.682278 18.071920 18.501998 18.544594 19.011492 19.583754
1.300000 17.880934 18.289554 18.755891 18.792808 19.279649 19.912787
1.320000 18.106394 18.495587 18.999423 19.039126 19.558485 20.208133
1.340000 18.313114 18.701768 19.259844 19.275723 19.830371 20.463289
1.360000 18.534519 18.923185 19.496019 19.513959 20.116599 20.729814
1.380000 18.749851 19.146630 19.734568 19.761407 20.384798 20.991040
1.400000 18.946093 19.385438 19.959079 20.007265 20.658289 21.244420
1.420000 19.173085 19.640719 20.200721 20.257080 20.923378 21.532576
1.440000 19.363142 19.867657 20.446870 20.511935 21.203281 21.840504
1.460000 19.562243 20.111824 20.719136 20.774144 21.464535 22.128907
1.500000 19.988797 20.558223 21.242606 21.302548 22.054355 22.951981
1.520000 20.216200 20.814719 21.509904 21.584171 22.395805 23.338134
1.540000 20.444525 21.070761 21.815351 21.876469 22.659280 23.585295
1.560000 20.681081 21.367255 22.140180 22.181553 22.971755 24.018706
1.580000 20.942836 21.642590 22.461190 22.502530 23.344183 24.427206
1.600000 21.286551 21.902732 22.789826 22.845313 23.737786 24.779334
1.620000 21.570716 22.208046 23.149082 23.199794 24.158170 25.128333
1.640000 21.845004 22.516582 23.548942 23.584690 24.557996 25.584954
1.660000 22.152750 22.889372 23.974030 23.982265 24.996490 26.063075
1.680000 22.396086 23.249734 24.418503 24.376677 25.454416 26.444944
1.700000 22.762591 23.646838 24.820998 24.784770 25.849996 26.734057
1.720000 23.044823 24.020920 25.265632 25.190874 26.228620 27.153871
1.740000 23.387238 24.462604 25.681032 25.609228 26.628015 27.579655
1.760000 23.853784 24.905886 26.107601 26.029842 27.039515 28.086400
1.780000 24.260134 25.341524 26.562615 26.461020 27.513246 28.524716
1.800000 24.620857 25.764321 26.927824 26.841545 27.856070 28.970681
1.820000 25.077336 26.232072 27.293585 27.227323 28.184449 29.270942
1.840000 25.357078 26.586753 27.662636 27.595055 28.569003 29.599349
1.860000 25.731216 26.953395 28.022423 27.957214 28.916672 29.909705
1.880000 26.101683 27.308772 28.399429 28.320151 29.254030 30.254828
1.900000 26.540584 27.732563 28.732335 28.680752 29.626595 30.581927
1.920000 26.940028 28.099436 29.074408 29.022358 29.944696 30.968200
1.940000 27.281791 28.429186 29.390534 29.345607 30.251185 31.327637
1.960000 27.667505 28.750116 29.679506 29.669218 30.553701 31.726113
1.980000 28.011737 29.060640 29.988194 29.985900 30.861861 32.040653
2.000000 28.383341 29.347123 30.318852 30.301731 31.169261 32.331420
2.020000 28.685205 29.662889 30.626666 30.611473 31.533825 32.590093
2.040000 29.034141 29.958415 30.918333 30.908957 31.871901 32.831084
2.060000 29.335224 30.291766 31.160939 31.199456 32.142237 33.040850
2.080000 29.664308 30.610593 31.432393 31.492142 32.428851 33.259790
2.100000 30.136881 30.910945 31.716762 31.791139 32.715138 33.547544
2.120000 30.418501 31.193989 32.011308 32.073271 32.990878 33.820049
2.140000 30.679256 31.461085 32.305886 32.344249 33.307558 34.062674
2.160000 30.911887 31.754004 32.618203 32.623370 33.532660 34.320262
2.180000 31.212908 32.037384 32.860371 32.895781 33.797393 34.563627
2.200000 31.475716 32.316036 33.115377 33.170876 34.068651 34.806349
2.220000 31.731728 32.619234 33.427390 33.468801 34.300050 35.090775
2.240000 32.059922 32.915226 33.710906 33.750981 34.602994 35.418391
2.260000 32.369689 33.203068 33.994129 34.022296 34.852485 35.665424
2.280000 32.605251 33.497304 34.264342 34.278609 35.069398 35.971060
2.300000 32.859956 33.741775 34.535381 34.531527 35.301732 36.186713
2.320000 33.099397 33.975458 34.778594 34.774285 35.533552 36.512020
2.340000 33.362876 34.189360 35.049739 35.023168 35.749690 36.873388
2.360000 33.643746 34.422773 35.315010 35.284119 36.000768 37.309058
2.380000 33.898276 34.694723 35.565320 35.544681 36.254531 37.702686
2.400000 34.125308 34.922339 35.782011 35.790140 36.510361 38.107465
2.420000 34.406853 35.176230 36.019507 36.042705 36.781058 38.398756
2.440000 34.625914 35.397609 36.256681 36.288687 37.029860 38.728919
2.460000 34.861615 35.601219 36.480489 36.534698 37.272210 39.136658
2.480000 35.082619 35.799978 36.715982 36.774663 37.500450 39.540330
2.500000 35.259796 35.986874 36.941071 37.009260 37.764029 40.026453
2.520000 35.472471 36.222281 37.161183 37.252261 38.041756 40.630926
2.540000 35.719388 36.414693 37.379757 37.492196 38.277507 40.927646
2.560000 35.894421 36.633380 37.590148 37.725905 38.539434 41.307433
2.580000 36.146397 36.845799 37.822287 37.962226 38.771082 41.597716
2.600000 36.346022 37.074974 38.055401 38.204322 38.989177 41.890642
2.620000 36.654513 37.323593 38.284300 38.449300 39.215003 42.192446
2.640000 36.883839 37.537680 38.501829 38.692534 39.464246 42.426939
2.660000 37.153018 37.793119 38.756361 38.939187 39.712713 42.749558
2.680000 37.394740 38.029070 38.998617 39.199711 40.011925 43.172552
2.700000 37.595802 38.305993 39.254832 39.483254 40.404227 43.518924
2.720000 37.792142 38.530681 39.520321 39.770937 40.924216 43.668098
2.740000 38.011049 38.807852 39.822625 40.088155 41.401909 44.015970
2.760000 38.215121 39.033953 40.182124 40.417617 41.743680 44.346101
2.780000 38.429974 39.288011 40.574723 40.757553 42.099260 44.599395
2.800000 38.654666 39.552861 40.941090 41.088993 42.457774 44.816773
2.820000 38.974827 39.812793 41.365358 41.422049 42.831662 44.969693
2.840000 39.219517 40.135218 41.751380 41.757479 43.196958 45.115406
2.860000 39.568470 40.465451 42.093658 42.096437 43.510212 45.326196
2.880000 39.917991 40.869188 42.412900 42.439955 43.780006 45.482530
2.900000 40.241143 41.240993 42.743602 42.766910 44.082764 45.738556
2.920000 40.538291 41.644762 43.124091 43.101749 44.374662 45.989487
2.940000 40.795792 42.030594 43.469396 43.441268 44.618256 46.199679
2.960000 41.114867 42.389113 43.809211 43.765998 44.953800 46.382337
2.980000 41.448139 42.744991 44.113741 44.070680 45.268141 46.585908
3.000000 41.772779 43.038705 44.448270 44.375922 45.591209 46.895283
3.020000 42.069338 43.326294 44.753089 44.678642 45.851358 47.185348
3.040000 42.438583 43.676945 45.103554 44.999792 46.152344 47.427244
3.060000 42.766904 44.017515 45.459296 45.320788 46.382920 47.662268
3.080000 43.156950 44.423819 45.846859 45.662753 46.645016 47.928864
3.100000 43.439985 44.808463 46.220188 45.990004 46.893583 48.111156
3.120000 43.686393 45.272464 46.549003 46.320812 47.142680 48.271372
3.140000 44.020279 45.673271 46.835669 46.633257 47.410327 48.500689
3.160000 44.352667 46.110227 47.091482 46.948423 47.654989 48.799079
3.180000 44.799933 46.509289 47.335656 47.234996 47.905780 49.063373
3.200000 45.313248 46.851824 47.565202 47.505037 48.134300 49.338501
3.220000 45.872422 47.135179 47.803944 47.773475 48.377560 49.691074
3.240000 46.367724 47.415902 48.026395 48.040149 48.644189 49.998039
3.260000 46.760354 47.664929 48.257858 48.305739 48.894298 50.289938
3.280000 47.066198 47.950997 48.492940 48.573666 49.129123 50.739716
3.300000 47.381572 48.227013 48.750510 48.840625 49.354058 51.247080
3.320000 47.631744 48.455289 48.974265 49.095957 49.603917 51.628330
3.340000 47.968421 48.688238 49.215061 49.365662 49.906545 52.249047
3.360000 48.306126 48.909848 49.462361 49.633852 50.169541 52.784414
3.380000 48.642804 49.183684 49.702764 49.921554 50.479917 53.197516
3.400000 48.909525 49.401919 49.974682 50.218152 50.811297 53.545393
3.420000 49.208857 49.653525 50.261207 50.518844 51.261213 53.824725
3.440000 49.481385 49.925769 50.536488 50.844751 51.678081 54.334039
3.460000 49.781412 50.228351 50.874112 51.172766 52.055010 54.702910
3.480000 50.061298 50.507509 51.198578 51.508328 52.402145 55.014664
3.500000 50.328884 50.827708 51.538457 51.864754 52.790690 55.392860
3.550000 50.952685 51.573878 52.439649 52.802894 54.176590 56.488218
3.600000 51.615003 52.376474 53.409563 53.761087 55.342467 57.648458
3.650000 52.505325 53.172741 54.394645 54.767578 56.660947 58.651966
3.700000 53.081792 54.119898 55.530858 55.839155 57.808530 59.310574
3.750000 53.859208 55.103878 56.923389 56.942320 58.760644 60.094558
3.800000 54.626991 56.495281 58.120951 58.098945 59.749709 61.117012
3.850000 56.197456 57.887431 59.449589 59.417084 60.876644 62.485610
3.900000 58.069912 59.488272 60.948073 60.953122 62.507938 63.810418
3.950000 59.153183 60.694819 62.197137 62.168928 63.673826 64.671114
4.000000 60.432431 61.729580 63.275204 63.191154 64.601938 65.608473
4.050000 61.266720 62.739156 64.211709 64.102341 65.453697 66.412286
4.100000 62.265638 63.614966 65.093009 64.955463 66.176531 67.168610
4.150000 63.166927 64.500525 65.881593 65.761193 66.985240 67.957883
4.200000 64.038457 65.408216 66.642280 66.551451 67.705323 68.680148
4.250000 65.068681 66.354953 67.457425 67.409434 68.456976 69.469881
4.300000 66.156540 67.439119 68.437706 68.404090 69.393680 70.420128
4.350000 67.332886 68.414627 69.374002 69.425840 70.442911 71.710347
4.400000 68.500661 69.390345 70.428562 70.503146 71.584972 72.999816
4.500000 70.525344 71.569122 72.842477 72.912778 74.213661 75.701385
4.550000 71.685067 72.734771 74.067295 74.123947 75.487832 76.802400
4.600000 72.700033 73.882321 75.225893 75.257802 76.594270 77.913363
4.650000 73.729776 74.944628 76.236282 76.259349 77.537785 78.840622
4.700000 74.852915 75.982678 77.226755 77.229222 78.477092 79.640723
4.750000 75.890596 77.018035 78.181049 78.186040 79.399507 80.470801
4.800000 76.904351 78.173288 79.324190 79.332856 80.453301 81.511569
4.850000 78.387247 79.892142 80.977102 80.935768 81.999960 82.999088
4.900000 79.978678 81.129611 82.114716 82.088416 83.133277 84.006909
4.950000 81.168920 82.278490 83.176456 83.150047 84.018583 84.848892
5.000000 82.061888 83.325127 84.270907 84.181003 85.040692 85.762525
5.050000 83.357711 84.404889 85.195295 85.186244 86.001499 86.842385
5.100000 84.704658 85.456738 86.184398 86.200495 86.939760 87.812662
5.150000 85.522975 86.277270 87.011131 87.019957 87.758563 88.593094
5.200000 86.176805 86.943143 87.701790 87.720980 88.550691 89.318660
5.250000 86.819049 87.608875 88.362280 88.388410 89.239009 89.987733
5.300000 87.462196 88.263750 89.020301 89.040191 89.866266 90.670440
5.350000 88.152545 88.936231 89.690875 89.715655 90.522355 91.295527
5.400000 88.872919 89.573215 90.392387 90.411050 91.250752 91.969406
5.450000 89.577883 90.302831 91.098059 91.150873 91.979583 92.826515
5.500000 90.335791 91.016963 91.890430 91.945633 92.828152 93.961006
5.550000 91.102719 91.878776 92.876811 92.950052 93.982141 95.271578
5.600000 91.890609 92.834785 94.069376 94.141047 95.392323 96.796633
5.650000 92.911393 94.117259 95.618177 95.637432 97.099811 98.783003
