depth(m) lower_95(kyr) lower_68(kyr) median(kyr) mean(kyr) upper_68(kyr) upper_95(kyr)
11.000000 18.576223 19.418629 20.581906 20.534589 21.567312 22.465802
11.144928 18.670303 19.510813 20.703274 20.646685 21.677463 22.571780
11.289855 18.783230 19.632656 20.838761 20.770889 21.780443 22.706350
11.434783 18.902695 19.749777 20.972598 20.907560 21.924705 22.923912
11.579710 19.026458 19.914395 21.124061 21.052188 22.080621 23.075912
11.724638 19.119641 20.058063 21.254707 21.208094 22.262045 23.189137
11.869565 19.292892 20.229530 21.428843 21.375409 22.454592 23.374831
12.014493 19.446357 20.417388 21.603482 21.545143 22.609197 23.517504
12.159420 19.598519 20.615060 21.774463 21.719232 22.786876 23.748452
12.304348 19.728311 20.803514 21.923671 21.896954 22.975228 23.884107
12.449275 19.899322 21.003344 22.090793 22.077547 23.175962 24.151604
12.594203 20.002534 21.154908 22.258890 22.260700 23.304770 24.411615
12.739130 20.148131 21.333399 22.484224 22.451657 23.567910 24.626761
12.884058 20.309975 21.541480 22.667340 22.636809 23.763933 24.835546
13.028986 20.412141 21.700062 22.862816 22.822838 23.950503 25.027935
13.173913 20.648480 21.875283 23.047069 23.014835 24.191498 25.260007
13.318841 20.807955 22.061532 23.244094 23.205379 24.408221 25.520010
13.463768 20.911202 22.227394 23.463527 23.400271 24.632451 25.694364
13.608696 21.044251 22.381143 23.655679 23.595199 24.827616 25.903444
13.753623 21.181792 22.547889 23.869966 23.780510 25.005189 26.090707
13.898551 21.322108 22.699319 24.059465 23.970846 25.227578 26.276934
14.043478 21.435227 22.847793 24.251817 24.157969 25.437168 26.588550
14.188406 21.524878 22.976791 24.435391 24.352483 25.667873 26.795754
14.333333 21.656023 23.139906 24.669381 24.546176 25.882838 27.195585
14.478261 21.728446 23.296247 24.817615 24.734188 26.130933 27.428446
14.623188 21.869865 23.435298 25.035735 24.928413 26.374090 27.627534
14.768116 21.950845 23.585000 25.209512 25.116241 26.586063 27.790043
14.913043 22.026800 23.726002 25.448891 25.309111 26.812701 28.004386
15.057971 22.128186 23.891687 25.665667 25.506921 27.008859 28.263355
15.202899 22.227728 24.057955 25.861679 25.700171 27.270157 28.524578
15.347826 22.326463 24.244851 26.038173 25.888809 27.513303 28.762348
15.492754 22.444943 24.393822 26.249151 26.071766 27.703512 29.035438
15.637681 22.492783 24.514151 26.440577 26.260163 27.908313 29.427300
15.782609 22.594081 24.677730 26.614181 26.451538 28.137634 29.563888
15.927536 22.767185 24.802782 26.816788 26.645577 28.397829 29.751301
16.072464 22.851209 24.954521 27.016463 26.833846 28.581046 30.103511
16.217391 22.900447 25.081843 27.222611 27.022159 28.772955 30.437711
16.362319 23.056643 25.202125 27.462547 27.214990 29.015556 30.592731
16.507246 23.124334 25.315228 27.648724 27.406101 29.265738 30.846238
16.652174 23.204703 25.439235 27.832912 27.594940 29.494951 31.123526
16.797101 23.320184 25.602840 28.051594 27.780332 29.671504 31.382591
16.942029 23.475449 25.783493 28.257777 27.967784 29.882714 31.654776
17.086957 23.558429 25.923012 28.405450 28.151027 30.148544 31.884490
17.231884 23.708280 26.043342 28.650310 28.343707 30.388747 32.191974
17.376812 23.794872 26.161645 28.849523 28.528989 30.674247 32.452081
17.521739 23.857927 26.298523 29.050259 28.725296 30.876667 32.741280
17.666667 23.983087 26.447157 29.221028 28.918044 31.104595 33.004856
17.811594 24.062787 26.612927 29.399643 29.105632 31.383602 33.195260
17.956522 24.123157 26.710771 29.598274 29.299211 31.602665 33.561844
18.101449 24.223634 26.828098 29.764839 29.486614 31.810396 33.874645
18.246377 24.284205 26.978914 29.954889 29.673493 32.027850 34.087936
18.391304 24.353908 27.124991 30.177003 29.864095 32.264920 34.485638
18.536232 24.417412 27.325436 30.352809 30.057002 32.492554 34.699973
18.681159 24.510708 27.419918 30.548713 30.245899 32.717568 35.047126
18.826087 24.562199 27.594970 30.716171 30.438749 32.907914 35.286115
18.971014 24.666526 27.720903 30.913782 30.621207 33.116596 35.563301
19.115942 24.743837 27.880360 31.117600 30.810923 33.386688 35.801647
19.260870 24.824661 28.007976 31.331737 31.000956 33.591173 36.106830
19.405797 24.908340 28.111048 31.571440 31.194299 33.869574 36.310163
19.550725 24.978348 28.280187 31.769920 31.381545 34.084935 36.594077
19.695652 25.095884 28.445215 31.927340 31.562580 34.271216 36.999909
19.840580 25.216704 28.537998 32.087847 31.754163 34.450796 37.149728
19.985507 25.395646 28.683468 32.285899 31.934146 34.658170 37.413524
20.130435 25.461012 28.807842 32.443840 32.111536 34.938805 37.671403
20.275362 25.530942 28.952378 32.592282 32.281830 35.074487 37.904623
20.420290 25.607214 29.081942 32.731199 32.444022 35.276098 38.191777
20.565217 25.716756 29.173564 32.988859 32.608346 35.468553 38.417097
20.710145 25.746236 29.348949 33.150365 32.766572 35.677752 38.611081
20.855072 25.849560 29.469743 33.260011 32.906892 35.845502 38.733045
21.000000 25.995862 29.606426 33.400670 33.045401 35.961048 38.878998
21.144928 26.107775 29.727558 33.491162 33.175987 36.103202 38.980520
21.289855 26.255629 29.845151 33.659765 33.299974 36.275234 39.077368
21.434783 26.453790 29.928228 33.763020 33.409546 36.400471 39.218254
21.579710 26.528252 30.024234 33.825098 33.511803 36.496007 39.348092
21.724638 26.611493 30.146238 33.896630 33.609199 36.597027 39.485398
21.869565 26.669042 30.272367 34.019139 33.701912 36.672155 39.575451
22.014493 26.805062 30.383700 34.090913 33.788332 36.760162 39.669723
22.159420 26.935632 30.528823 34.185319 33.876726 36.803747 39.751603
22.304348 27.158275 30.612629 34.239991 33.959290 36.875553 39.796034
22.449275 27.213180 30.735791 34.292383 34.038016 36.928883 39.872821
22.594203 27.304254 30.849629 34.344311 34.119599 36.975449 39.956044
22.739130 27.441830 30.942062 34.434427 34.197494 37.054360 40.016147
22.884058 27.594434 31.054578 34.542044 34.275657 37.111581 40.077282
23.028986 27.738181 31.179753 34.625512 34.353474 37.179241 40.164399
23.173913 27.866884 31.263033 34.676754 34.432119 37.283237 40.270038
23.318841 27.991983 31.375558 34.746477 34.511067 37.353957 40.326203
23.463768 28.111226 31.498548 34.820151 34.586347 37.409443 40.366520
23.608696 28.308887 31.583940 34.906992 34.663990 37.473684 40.410936
23.753623 28.399388 31.726997 34.980728 34.739187 37.527585 40.453824
23.898551 28.470814 31.848810 35.031361 34.815019 37.593661 40.497082
24.043478 28.627416 31.998010 35.083516 34.886227 37.642763 40.533806
24.188406 28.760115 32.086626 35.130744 34.962820 37.695193 40.625168
24.333333 28.825116 32.150965 35.179604 35.038163 37.731855 40.687146
24.478261 28.912950 32.249954 35.229392 35.116482 37.791533 40.744687
24.623188 29.045047 32.328596 35.322150 35.190689 37.828147 40.800256
24.768116 29.164921 32.441425 35.399544 35.265697 37.896534 40.852121
24.913043 29.244223 32.631242 35.477514 35.342318 37.946092 40.895285
25.057971 29.338315 32.720030 35.526385 35.417740 38.030483 40.992127
25.202899 29.584608 32.806235 35.610856 35.494144 38.081670 41.050437
25.347826 29.765300 32.877758 35.661096 35.570386 38.168192 41.100022
25.492754 29.905679 32.952729 35.712106 35.649305 38.256317 41.135816
25.637681 29.971983 33.040579 35.816934 35.727994 38.328336 41.192247
25.782609 30.223996 33.143253 35.905956 35.804945 38.403985 41.235020
25.927536 30.335884 33.227797 35.956337 35.881081 38.473282 41.338888
26.072464 30.527677 33.365919 36.037126 35.956925 38.548466 41.444967
26.217391 30.665846 33.481694 36.099325 36.035189 38.629440 41.541973
26.362319 30.760420 33.584259 36.159296 36.110174 38.720064 41.632515
26.507246 30.881238 33.655294 36.231014 36.187220 38.775315 41.797344
26.652174 30.988105 33.746250 36.293115 36.262431 38.826654 41.855134
26.797101 31.184297 33.825581 36.358003 36.338415 38.876791 41.903813
26.942029 31.252357 33.930615 36.427692 36.415478 38.947630 41.995396
27.086957 31.367498 34.010577 36.492937 36.487499 39.027203 42.106218
27.231884 31.561082 34.131442 36.570567 36.564459 39.098138 42.194904
27.376812 31.616281 34.215168 36.633646 36.641679 39.134576 42.273601
27.521739 31.728419 34.289826 36.683693 36.716821 39.223684 42.338538
27.666667 31.836539 34.425120 36.748498 36.794042 39.283773 42.453518
27.811594 31.957371 34.500174 36.817914 36.874478 39.347166 42.522721
27.956522 32.081925 34.565092 36.901092 36.952998 39.405500 42.607827
28.101449 32.145629 34.644584 36.942961 37.028392 39.489757 42.664739
28.246377 32.193826 34.731559 37.026134 37.105627 39.551678 42.720819
28.391304 32.259517 34.818440 37.089100 37.181060 39.620444 42.832448
28.536232 32.382681 34.863384 37.147213 37.256238 39.669400 42.892948
28.681159 32.429709 34.962192 37.208187 37.335051 39.772347 43.012427
28.826087 32.491744 35.052890 37.247179 37.412653 39.833723 43.072684
28.971014 32.523993 35.121809 37.305261 37.487290 39.940492 43.124435
29.115942 32.623946 35.208137 37.394978 37.565602 39.992306 43.321293
29.260870 32.717303 35.292153 37.453943 37.638325 40.055175 43.414445
29.405797 32.859849 35.393978 37.533314 37.713289 40.125312 43.479707
29.550725 32.945667 35.510290 37.600639 37.787748 40.196755 43.682027
29.695652 32.991503 35.580540 37.653121 37.863050 40.273228 43.830809
29.840580 33.146013 35.635109 37.727423 37.937782 40.360799 43.922128
29.985507 33.239832 35.699239 37.782943 38.011679 40.492723 44.043704
30.130435 33.342081 35.787623 37.834586 38.087682 40.541286 44.110338
30.275362 33.455808 35.882205 37.901613 38.161467 40.604798 44.204990
30.420290 33.523268 35.949542 37.981754 38.234294 40.673380 44.345197
30.565217 33.633835 36.026103 38.040570 38.305740 40.838059 44.421836
30.710145 33.750345 36.108597 38.105293 38.376485 40.908908 44.493466
30.855072 33.843249 36.169448 38.150303 38.445193 40.969221 44.530316
31.000000 33.908294 36.245147 38.238900 38.512551 41.061668 44.598040
31.144928 33.989797 36.306570 38.327777 38.578942 41.112087 44.653109
31.289855 34.046873 36.387201 38.366919 38.644703 41.180303 44.708346
31.434783 34.142773 36.445263 38.448407 38.710303 41.242811 44.757593
31.579710 34.182618 36.499154 38.513609 38.772817 41.301599 44.803564
31.724638 34.245725 36.553215 38.552667 38.835081 41.351601 44.901582
31.869565 34.294681 36.635667 38.601950 38.895961 41.390015 44.988084
32.014493 34.355064 36.678917 38.650791 38.956015 41.476004 45.036922
32.159420 34.399277 36.729220 38.707909 39.015656 41.510764 45.091641
32.304348 34.447691 36.806361 38.757201 39.075865 41.555523 45.131777
32.449275 34.505243 36.883894 38.805555 39.133799 41.637437 45.168496
32.594203 34.579446 36.966807 38.850353 39.194438 41.710030 45.198297
32.739130 34.640221 36.997009 38.917316 39.253238 41.761147 45.241551
32.884058 34.729843 37.046365 38.968438 39.311497 41.795553 45.300843
33.028986 34.796517 37.106851 39.007503 39.370793 41.832681 45.354157
33.173913 34.854715 37.209168 39.066899 39.430209 41.886810 45.398991
33.318841 34.885722 37.279723 39.116326 39.491259 41.966046 45.445576
33.463768 34.918769 37.330057 39.185945 39.552095 42.021554 45.490484
33.608696 34.954031 37.413140 39.254060 39.612817 42.065382 45.528382
33.753623 34.998175 37.468062 39.318135 39.673902 42.124923 45.572997
33.898551 35.021688 37.562015 39.376991 39.736335 42.168726 45.641496
34.043478 35.096422 37.600048 39.430257 39.794973 42.242896 45.683116
34.188406 35.181339 37.644655 39.473103 39.852812 42.299317 45.709297
34.333333 35.281170 37.717260 39.528184 39.912925 42.330691 45.738711
34.478261 35.389360 37.777339 39.595713 39.975352 42.387730 45.760131
34.623188 35.440238 37.840213 39.644909 40.036115 42.424014 45.788172
34.768116 35.528752 37.906440 39.693002 40.094665 42.485418 45.831200
34.913043 35.707343 37.977689 39.757201 40.154796 42.569431 45.864050
35.057971 35.774123 38.049310 39.810210 40.215193 42.672133 45.955265
35.202899 35.825914 38.114476 39.869722 40.275099 42.802165 46.006139
35.347826 35.880646 38.171137 39.924624 40.333098 42.858381 46.058309
35.492754 36.023471 38.238803 39.990808 40.393023 42.918096 46.099812
35.637681 36.063529 38.285934 40.081017 40.453273 42.962488 46.159179
35.782609 36.099934 38.325296 40.125422 40.511858 43.061155 46.191329
35.927536 36.214664 38.364283 40.179619 40.571374 43.145096 46.271926
36.072464 36.346347 38.425766 40.237710 40.630177 43.219198 46.337370
36.217391 36.404821 38.486564 40.283802 40.688230 43.270475 46.401646
36.362319 36.475854 38.544864 40.360301 40.747847 43.348434 46.463984
36.507246 36.509839 38.594926 40.452414 40.805895 43.398859 46.519592
36.652174 36.556175 38.647041 40.526294 40.866204 43.449739 46.566261
36.797101 36.613148 38.697734 40.586360 40.924070 43.499478 46.613459
36.942029 36.694319 38.759342 40.639440 40.983866 43.562953 46.642927
37.086957 36.757939 38.819904 40.694172 41.042975 43.627606 46.677157
37.231884 36.825677 38.877794 40.750691 41.104252 43.698292 46.727128
37.376812 36.875640 38.926886 40.807415 41.161770 43.758235 46.824160
37.521739 36.920882 38.962841 40.854929 41.221973 43.812146 46.920964
37.666667 36.956227 39.022916 40.896684 41.282651 43.907671 46.985722
37.811594 36.991155 39.086231 40.982734 41.342077 44.013600 47.032432
37.956522 37.021728 39.143246 41.052182 41.399093 44.120896 47.067842
38.101449 37.097219 39.194698 41.114412 41.457282 44.169756 47.167594
38.246377 37.177338 39.261315 41.165598 41.517272 44.269696 47.251889
38.391304 37.199582 39.324543 41.219622 41.576167 44.362101 47.335524
38.536232 37.230131 39.383189 41.283378 41.636146 44.415310 47.374924
38.681159 37.266056 39.425859 41.369498 41.697424 44.470893 47.421966
38.826087 37.297777 39.491068 41.435043 41.759438 44.626608 47.494749
38.971014 37.339233 39.525290 41.497252 41.820025 44.698692 47.564634
39.115942 37.373670 39.569485 41.561415 41.879908 44.754852 47.691529
39.260870 37.426077 39.605533 41.602735 41.940162 44.841471 47.773061
39.405797 37.474724 39.665363 41.671499 42.000124 44.924418 47.838851
39.550725 37.542133 39.701350 41.737448 42.059982 44.995817 47.898000
39.695652 37.638501 39.746362 41.800490 42.121066 45.069113 47.940620
39.840580 37.698828 39.807094 41.833108 42.179464 45.137586 47.985248
39.985507 37.762836 39.847287 41.902824 42.238952 45.213595 48.087469
40.130435 37.891755 39.903393 41.995804 42.298959 45.271662 48.126590
40.275362 37.935785 39.953024 42.046478 42.357367 45.320586 48.169328
40.420290 37.976670 40.003829 42.104636 42.415479 45.380055 48.201174
40.565217 38.068987 40.049132 42.189517 42.473111 45.454693 48.306574
40.710145 38.116635 40.093555 42.261106 42.530321 45.516305 48.382407
40.855072 38.148879 40.132194 42.321614 42.587482 45.578366 48.422805
41.000000 38.202500 40.166293 42.378741 42.642779 45.636841 48.498676
41.144928 38.238610 40.207028 42.425652 42.699255 45.712420 48.543126
41.289855 38.298668 40.281679 42.467007 42.755315 45.761261 48.622081
41.434783 38.361946 40.339473 42.520597 42.811046 45.809292 48.663887
41.579710 38.410604 40.391911 42.601975 42.866958 45.843320 48.706020
41.724638 38.462935 40.466480 42.650943 42.923518 45.890719 48.749925
41.869565 38.511799 40.526230 42.710064 42.980134 45.918768 48.826870
42.014493 38.564430 40.577618 42.769354 43.037352 45.956988 48.873089
42.159420 38.597638 40.620576 42.817047 43.093165 46.003228 48.908035
42.304348 38.652586 40.679412 42.888120 43.149334 46.105982 48.961607
42.449275 38.692332 40.727870 42.940563 43.205092 46.161444 49.001275
42.594203 38.744121 40.771994 42.991406 43.262664 46.257583 49.038481
42.739130 38.798081 40.823550 43.042507 43.319649 46.314543 49.077516
42.884058 38.837174 40.875764 43.088961 43.375215 46.354976 49.114370
43.028986 38.879394 40.920293 43.150071 43.432473 46.383278 49.178323
43.173913 38.956546 40.962546 43.217649 43.489669 46.420888 49.228716
43.318841 38.990812 41.014448 43.261258 43.544151 46.456438 49.268570
43.463768 39.078705 41.070015 43.349434 43.599805 46.521029 49.321279
43.608696 39.101831 41.109541 43.432028 43.656299 46.560273 49.385624
43.753623 39.122679 41.157911 43.479801 43.711894 46.617764 49.440143
43.898551 39.178613 41.215064 43.527460 43.769665 46.661532 49.490365
44.043478 39.248975 41.276355 43.569344 43.825787 46.705649 49.563525
44.188406 39.282149 41.339244 43.629310 43.883372 46.772284 49.621327
44.333333 39.359035 41.390522 43.695699 43.940179 46.830056 49.674813
44.478261 39.455068 41.456041 43.740065 43.996080 46.887780 49.742019
44.623188 39.512811 41.520143 43.812188 44.052098 46.938460 49.779136
44.768116 39.590314 41.583885 43.880051 44.108069 46.982656 49.830048
44.913043 39.637822 41.639984 43.945328 44.165128 47.059253 49.933920
45.057971 39.704689 41.696959 44.002838 44.223512 47.111722 49.984083
45.202899 39.756954 41.732000 44.048464 44.278844 47.183811 50.023859
45.347826 39.815936 41.784094 44.122599 44.334653 47.247098 50.067500
45.492754 39.902213 41.815687 44.197514 44.390296 47.294558 50.130235
45.637681 39.942141 41.863955 44.243054 44.445567 47.360037 50.182547
45.782609 39.981376 41.906664 44.307928 44.502267 47.396264 50.227031
45.927536 40.014820 41.960490 44.369909 44.558124 47.438957 50.274206
46.072464 40.041904 42.006048 44.424043 44.614623 47.505444 50.303598
46.217391 40.087024 42.050052 44.497315 44.669489 47.578695 50.321682
46.362319 40.139555 42.101967 44.542281 44.724895 47.644978 50.360828
46.507246 40.179069 42.146660 44.591301 44.780555 47.699468 50.398894
46.652174 40.221150 42.207792 44.640126 44.836154 47.742305 50.461324
46.797101 40.270541 42.256852 44.698884 44.892181 47.807854 50.519553
46.942029 40.316166 42.319393 44.763552 44.950058 47.887266 50.541920
47.086957 40.376178 42.359059 44.808385 45.004600 47.938852 50.628106
47.231884 40.416612 42.401091 44.898553 45.060523 47.980889 50.721789
47.376812 40.440476 42.466054 44.949551 45.116633 48.031648 50.779225
47.521739 40.476414 42.503201 45.006178 45.172761 48.093830 50.830391
47.666667 40.522766 42.572662 45.058017 45.229616 48.146899 50.876914
47.811594 40.561466 42.635573 45.114797 45.285462 48.216601 50.907367
47.956522 40.631460 42.670830 45.187703 45.342935 48.269888 50.949237
48.101449 40.644020 42.720472 45.229183 45.400587 48.316780 50.997288
48.246377 40.690794 42.760036 45.303924 45.458668 48.361388 51.064741
48.391304 40.739837 42.802836 45.375449 45.516364 48.404242 51.193327
48.536232 40.813575 42.853726 45.430992 45.572631 48.460396 51.310513
48.681159 40.881066 42.901592 45.494031 45.630814 48.511259 51.410050
48.826087 40.938163 42.952316 45.540712 45.686488 48.596288 51.462299
48.971014 40.983179 42.994146 45.595914 45.739953 48.653779 51.544473
49.115942 41.024436 43.033076 45.649921 45.796117 48.689316 51.766941
49.260870 41.072169 43.082644 45.718935 45.851364 48.713853 51.831324
49.405797 41.106231 43.129147 45.767737 45.908349 48.764281 51.953983
49.550725 41.157901 43.172003 45.830055 45.966226 48.834122 52.027126
49.695652 41.190162 43.213181 45.882246 46.022025 48.875662 52.118541
49.840580 41.244118 43.261680 45.919923 46.080928 48.921173 52.170758
49.985507 41.292328 43.302245 45.956266 46.136157 48.969994 52.319753
50.130435 41.373573 43.355814 46.031606 46.194108 49.021503 52.378662
50.275362 41.409053 43.417307 46.099276 46.250282 49.099228 52.477045
50.420290 41.447034 43.471210 46.162024 46.307301 49.164013 52.547979
50.565217 41.497535 43.534395 46.212985 46.365748 49.204756 52.670542
50.710145 41.526633 43.581834 46.263027 46.423723 49.255549 52.723672
50.855072 41.576156 43.629604 46.306531 46.481491 49.332114 52.761896
51.000000 41.617890 43.691536 46.361690 46.541746 49.386721 52.785634
51.144928 41.672504 43.748500 46.411881 46.602548 49.456003 52.858628
51.289855 41.784517 43.837501 46.465315 46.662892 49.483938 52.918728
51.434783 41.855260 43.932293 46.516741 46.724569 49.543060 52.962211
51.579710 41.945090 43.979485 46.571005 46.787719 49.621699 52.992004
51.724638 41.989209 44.066793 46.641664 46.851556 49.695756 53.044911
51.869565 42.047717 44.148455 46.679201 46.915084 49.775669 53.102190
52.014493 42.139241 44.216571 46.762519 46.982305 49.845806 53.162758
