depth(m) lower_95(kyr) lower_68(kyr) median(kyr) mean(kyr) upper_68(kyr) upper_95(kyr)
0.040000 0.030674 0.189578 0.537784 0.634974 1.084594 1.690710
0.120000 0.189756 0.374137 0.765493 0.854704 1.349028 1.995123
0.200000 0.329218 0.579208 0.997120 1.079118 1.614491 2.223277
0.300000 0.505326 0.801381 1.304925 1.352956 1.928450 2.533028
0.400000 0.690136 1.038006 1.569334 1.621782 2.208640 2.825385
0.500000 0.881490 1.268199 1.856071 1.900099 2.501155 3.162252
0.600000 1.075052 1.511813 2.108158 2.176400 2.849249 3.480686
0.733333 1.353441 1.802784 2.484757 2.523951 3.232952 4.050519
0.866667 1.535035 2.125156 2.858110 2.868060 3.603669 4.376724
1.000000 1.845656 2.445550 3.219599 3.227085 3.972425 4.767252
1.100000 2.033259 2.689632 3.507555 3.493908 4.251950 5.039726
1.200000 2.309144 2.983759 3.796654 3.781429 4.547902 5.295140
1.300000 2.542538 3.280059 4.081030 4.062667 4.871683 5.551728
1.400000 2.736526 3.546211 4.355027 4.350127 5.148662 5.787964
1.500000 2.982736 3.827814 4.655049 4.626031 5.392497 6.066533
1.600000 3.277221 4.115145 4.924111 4.898598 5.656310 6.312906
1.700000 3.541082 4.431315 5.211482 5.166050 5.886665 6.516359
1.800000 3.904014 4.695818 5.474569 5.427442 6.121514 6.672417
1.900000 4.171339 4.982664 5.759158 5.702589 6.385164 6.982649
2.000000 4.496297 5.332585 6.042766 5.984770 6.630094 7.182737
2.100000 4.809075 5.626686 6.321773 6.256130 6.843279 7.484001
2.200000 5.154825 5.921128 6.600195 6.539742 7.135599 7.755311
2.300000 5.471438 6.249637 6.874498 6.833591 7.452184 7.996966
2.400000 5.868486 6.546976 7.165885 7.137067 7.713543 8.272194
2.500000 6.364078 6.933048 7.449774 7.462974 8.035163 8.568262
2.600000 6.739577 7.274377 7.795348 7.797157 8.344615 8.903991
2.700000 7.007955 7.568801 8.086434 8.092975 8.628785 9.218255
2.800000 7.320620 7.846144 8.375577 8.388417 8.952696 9.522654
2.900000 7.643368 8.110008 8.672819 8.682365 9.260665 9.760360
3.000000 7.978663 8.419324 8.987462 8.987334 9.554354 10.046814
3.100000 8.263661 8.776104 9.337959 9.316280 9.876846 10.356219
3.200000 8.576845 9.109249 9.706338 9.670914 10.233387 10.656391
3.300000 8.970517 9.485874 10.059025 10.028780 10.565822 11.032154
3.400000 9.357601 9.841408 10.375367 10.356079 10.868985 11.291315
3.500000 9.641098 10.202956 10.699395 10.693380 11.196574 11.614850
3.600000 10.061520 10.630790 11.084933 11.073877 11.572108 11.892363
3.700000 10.632054 11.053588 11.492584 11.464257 11.890632 12.198251
3.800000 11.084870 11.447654 11.874238 11.837642 12.212264 12.477263
3.900000 11.467156 11.831486 12.230648 12.180468 12.487689 12.725979
4.000000 11.799366 12.230616 12.524912 12.486579 12.738102 12.940727
4.040000 11.935909 12.363513 12.650558 12.610220 12.843451 13.036399
4.080000 12.064997 12.522162 12.771588 12.735148 12.958373 13.151561
4.100000 12.120600 12.583626 12.831144 12.796480 13.014344 13.205017
4.120000 12.178077 12.638486 12.891890 12.859110 13.077134 13.251489
4.160000 12.358024 12.783990 13.020296 12.988847 13.197419 13.396125
4.200000 12.521571 12.917851 13.136210 13.115736 13.321596 13.540102
4.240000 12.677354 13.054758 13.253017 13.243680 13.451832 13.670632
4.280000 12.790326 13.190910 13.388432 13.377018 13.600498 13.778986
4.300000 12.887575 13.247618 13.457455 13.443465 13.661561 13.844982
4.320000 12.993543 13.317928 13.522623 13.511318 13.723346 13.923640
4.360000 13.134991 13.456229 13.656156 13.643045 13.847605 14.030780
4.400000 13.317466 13.601910 13.792723 13.782531 13.988968 14.174366
4.440000 13.451923 13.745444 13.938686 13.932995 14.147193 14.312646
4.480000 13.618360 13.896228 14.100170 14.086188 14.300153 14.500710
4.500000 13.688887 13.958209 14.169332 14.156245 14.369231 14.564875
4.520000 13.757142 14.037067 14.244162 14.230805 14.445218 14.647127
4.560000 13.877167 14.195436 14.400073 14.390173 14.611992 14.797926
4.600000 14.007511 14.331853 14.565489 14.553774 14.785168 15.010768
4.640000 14.216442 14.505572 14.737859 14.727378 14.946475 15.205565
4.680000 14.309859 14.663983 14.908122 14.905673 15.145695 15.398612
4.700000 14.400402 14.742035 14.985999 14.980806 15.214261 15.489804
4.720000 14.470665 14.814151 15.062791 15.056512 15.299712 15.557913
4.760000 14.647379 14.988995 15.228018 15.225983 15.488038 15.756253
4.800000 14.798666 15.134382 15.362785 15.384138 15.682057 15.977782
4.840000 14.938136 15.277202 15.493325 15.528906 15.854304 16.133343
4.880000 15.079676 15.393120 15.613138 15.668416 16.000451 16.286033
4.900000 15.160177 15.451563 15.680140 15.735651 16.077016 16.344739
4.920000 15.201749 15.510462 15.746327 15.800792 16.153143 16.410955
4.960000 15.404878 15.650239 15.893733 15.947435 16.309313 16.533603
5.000000 15.571707 15.785054 16.042851 16.092530 16.461071 16.674830
5.040000 15.685396 15.904365 16.201276 16.235176 16.608518 16.771757
5.080000 15.786666 16.024436 16.354786 16.369134 16.735163 16.878004
5.100000 15.836333 16.086625 16.430833 16.429221 16.796365 16.934132
5.120000 15.890007 16.140547 16.490210 16.484415 16.848200 16.978469
5.160000 16.028386 16.254932 16.599673 16.593868 16.944200 17.079733
5.200000 16.109266 16.374637 16.730352 16.707336 17.038459 17.190855
5.240000 16.203123 16.486519 16.858531 16.823823 17.137534 17.295772
5.280000 16.356162 16.603785 16.982926 16.942267 17.239752 17.410274
5.300000 16.413943 16.668920 17.044671 17.002664 17.298681 17.486743
5.320000 16.502015 16.733492 17.104389 17.063780 17.366182 17.553589
5.360000 16.637854 16.875073 17.219525 17.190770 17.489313 17.735450
5.400000 16.765143 16.985858 17.346512 17.312635 17.616882 17.855287
5.440000 16.898895 17.102594 17.472522 17.446719 17.787079 18.002190
5.480000 17.018016 17.215828 17.612430 17.582385 17.939182 18.167646
5.500000 17.071989 17.273093 17.678798 17.642665 18.009521 18.210927
5.520000 17.118132 17.315753 17.739122 17.701304 18.076388 18.280120
5.560000 17.229711 17.409784 17.849614 17.812360 18.190171 18.393128
5.600000 17.325207 17.486645 17.965776 17.920111 18.294021 18.531024
5.640000 17.434129 17.572766 18.084055 18.026398 18.389579 18.690794
5.680000 17.528347 17.655418 18.213862 18.131594 18.495591 18.811896
5.700000 17.570939 17.698917 18.284702 18.183244 18.553946 18.871339
5.720000 17.622020 17.738992 18.338845 18.232063 18.602992 18.925099
5.760000 17.699221 17.819201 18.425332 18.323272 18.680463 19.045110
5.800000 17.774118 17.890023 18.531175 18.414789 18.772489 19.149543
5.840000 17.849951 17.967579 18.631364 18.504384 18.870323 19.252348
5.880000 17.932693 18.032930 18.725726 18.593619 18.955406 19.367162
5.900000 17.966991 18.076763 18.767145 18.641302 19.009517 19.417614
5.920000 18.010536 18.119641 18.824406 18.690187 19.063452 19.467634
5.960000 18.074015 18.197407 18.903134 18.785444 19.174719 19.599141
6.000000 18.141395 18.272726 18.990340 18.879802 19.282469 19.723430
6.040000 18.224421 18.353024 19.071938 18.970271 19.375654 19.835189
6.080000 18.290788 18.442034 19.168691 19.067468 19.464446 19.939615
6.120000 18.371263 18.524544 19.258296 19.163256 19.558473 20.033758
6.160000 18.445415 18.613714 19.344555 19.256184 19.653728 20.138091
6.200000 18.514544 18.712392 19.425556 19.347852 19.734031 20.240923
6.240000 18.609749 18.817084 19.520314 19.442583 19.831374 20.335759
6.280000 18.684912 18.919630 19.612281 19.536450 19.917847 20.421098
6.320000 18.770273 19.021655 19.694511 19.632786 20.018767 20.540848
6.360000 18.849053 19.129216 19.794818 19.728308 20.109454 20.662164
6.400000 18.929904 19.237550 19.891097 19.825662 20.201474 20.750205
6.440000 19.010195 19.335909 19.988233 19.923093 20.291726 20.864256
6.480000 19.098519 19.462768 20.085537 20.023944 20.382428 20.977929
6.520000 19.188039 19.566400 20.179376 20.122930 20.485274 21.077035
6.560000 19.269681 19.685491 20.281159 20.224032 20.595243 21.166676
6.600000 19.369182 19.805729 20.371110 20.325780 20.694592 21.252253
6.640000 19.449371 19.932564 20.463534 20.421918 20.804320 21.359520
6.680000 19.542884 20.033492 20.554916 20.520007 20.897861 21.456929
6.720000 19.640090 20.141471 20.654617 20.619557 20.990173 21.545016
6.760000 19.747943 20.245179 20.748514 20.722670 21.109359 21.647072
6.810000 19.847793 20.356162 20.869980 20.842972 21.254360 21.739943
6.840000 19.926083 20.438081 20.951751 20.917104 21.323958 21.797191
6.880000 20.035413 20.557425 21.047439 21.016216 21.421829 21.903949
6.920000 20.112820 20.675577 21.154137 21.119106 21.533360 21.982804
6.960000 20.262286 20.763669 21.266046 21.222837 21.634301 22.077588
7.000000 20.392372 20.887867 21.392029 21.328860 21.739308 22.172831
7.040000 20.504987 20.971603 21.497765 21.433193 21.836438 22.294620
7.080000 20.591163 21.078015 21.617527 21.543296 21.930481 22.428235
7.120000 20.686409 21.190274 21.725110 21.652651 22.043340 22.553091
7.160000 20.763344 21.290448 21.836773 21.762711 22.146687 22.718109
7.200000 20.868360 21.390375 21.942755 21.868440 22.241411 22.845376
7.240000 20.979017 21.500500 22.047818 21.978731 22.340154 22.981503
7.280000 21.117781 21.625861 22.173934 22.094889 22.457239 23.077965
7.320000 21.249348 21.744089 22.276989 22.211139 22.575529 23.205257
7.360000 21.331718 21.855711 22.378913 22.324811 22.703788 23.316758
7.400000 21.416072 21.973160 22.473400 22.432939 22.824530 23.437434
7.440000 21.538117 22.082214 22.572390 22.543051 22.954362 23.582550
7.480000 21.665395 22.205093 22.667649 22.658296 23.095510 23.649218
7.520000 21.778473 22.343255 22.773548 22.780707 23.229672 23.739341
7.560000 21.876029 22.470653 22.885118 22.905412 23.375124 23.858257
7.600000 22.043202 22.608461 23.001320 23.035393 23.511112 23.982881
7.640000 22.210783 22.727344 23.124111 23.158929 23.644273 24.099427
7.680000 22.334651 22.838841 23.248541 23.284559 23.792013 24.217802
7.720000 22.471946 22.976171 23.379699 23.407824 23.902400 24.354173
7.760000 22.601059 23.097129 23.522374 23.537506 24.025181 24.493372
7.840000 22.801420 23.318182 23.837096 23.800192 24.280285 24.714443
7.880000 22.890314 23.417743 23.992133 23.924611 24.396680 24.836342
7.900000 22.955737 23.482441 24.057322 23.986014 24.453236 24.904671
7.920000 23.009683 23.547254 24.116245 24.047034 24.512885 24.970958
7.960000 23.101947 23.679667 24.257604 24.176310 24.628689 25.095436
8.040000 23.290534 23.960158 24.543632 24.449621 24.894946 25.336025
8.080000 23.381598 24.095863 24.667699 24.576435 24.997434 25.447797
8.100000 23.421821 24.176788 24.723331 24.637482 25.059975 25.492670
8.120000 23.510732 24.232483 24.774902 24.697986 25.110619 25.559441
8.160000 23.670254 24.366387 24.891232 24.822544 25.236383 25.661468
8.200000 23.798858 24.504125 25.006859 24.948074 25.365827 25.767686
8.240000 23.934533 24.603875 25.129875 25.065324 25.486464 25.867514
8.280000 24.044199 24.719087 25.249632 25.179830 25.606988 25.956295
8.320000 24.152669 24.829580 25.360624 25.291682 25.724140 26.049015
8.360000 24.241432 24.956698 25.477995 25.401070 25.834517 26.127742
8.440000 24.400239 25.179665 25.696173 25.610469 26.042678 26.308636
8.480000 24.492279 25.309603 25.803867 25.720982 26.134577 26.428936
8.520000 24.610750 25.424383 25.935661 25.832128 26.243188 26.522918
8.560000 24.705225 25.532479 26.051226 25.941697 26.357723 26.629789
8.600000 24.804430 25.623507 26.161061 26.052395 26.462067 26.743544
8.640000 24.926266 25.726523 26.283010 26.164913 26.565668 26.860000
8.680000 25.020192 25.817624 26.401663 26.273281 26.667604 26.949035
8.720000 25.133492 25.927816 26.497460 26.382295 26.770731 27.045748
8.760000 25.251272 26.035175 26.603006 26.488091 26.872688 27.145474
8.840000 25.415519 26.239593 26.800709 26.692286 27.070293 27.338515
8.880000 25.501772 26.367399 26.902896 26.800556 27.182078 27.453174
8.920000 25.589029 26.476706 27.014892 26.908880 27.294024 27.544255
8.960000 25.681858 26.581725 27.124950 27.018975 27.401744 27.655551
9.000000 25.824747 26.708228 27.217822 27.123601 27.505152 27.780967
9.040000 25.895366 26.837540 27.318570 27.225896 27.614008 27.871732
9.080000 26.023286 26.964272 27.416283 27.332613 27.725788 27.990010
9.120000 26.172238 27.061256 27.510782 27.438345 27.835022 28.096549
9.160000 26.311420 27.182852 27.611282 27.541500 27.929338 28.224077
9.240000 26.572708 27.359908 27.788221 27.733123 28.130154 28.445589
9.280000 26.685789 27.442470 27.885649 27.831219 28.226815 28.533181
9.320000 26.800098 27.539974 27.976444 27.934659 28.347941 28.658499
9.360000 26.893707 27.643132 28.083910 28.036723 28.450512 28.749254
9.400000 26.982274 27.750494 28.195880 28.142755 28.560325 28.846960
9.440000 27.111620 27.839312 28.291183 28.244233 28.663487 28.926562
9.480000 27.197307 27.950192 28.391564 28.345655 28.769920 29.037685
9.520000 27.317205 28.062791 28.494194 28.446821 28.877005 29.120504
9.560000 27.436879 28.173747 28.586858 28.548881 28.974996 29.197174
9.600000 27.596725 28.282428 28.691608 28.657068 29.090551 29.280890
9.640000 27.804781 28.392080 28.791250 28.764796 29.189913 29.377305
9.680000 27.942623 28.513054 28.902585 28.872341 29.282578 29.471101
9.720000 28.058067 28.629993 29.012836 28.981220 29.365004 29.561331
9.760000 28.162849 28.738138 29.117670 29.087875 29.467620 29.647947
9.800000 28.306045 28.860957 29.226190 29.196534 29.566562 29.733919
9.840000 28.469469 28.991507 29.339624 29.305561 29.655536 29.826450
9.960000 28.818321 29.354022 29.677611 29.619277 29.904055 30.069821
10.000000 29.027549 29.466031 29.796658 29.732110 30.005121 30.166991
10.040000 29.139542 29.585451 29.907586 29.846193 30.110617 30.262641
10.080000 29.217834 29.706108 30.006749 29.953935 30.214162 30.351854
10.120000 29.308263 29.829844 30.112849 30.059755 30.306787 30.436976
10.160000 29.429185 29.970331 30.224722 30.171498 30.408170 30.552435
10.200000 29.567775 30.087139 30.326068 30.277438 30.510248 30.647036
10.240000 29.649039 30.190218 30.432501 30.383560 30.604335 30.738803
10.280000 29.774441 30.302091 30.538050 30.490926 30.700204 30.823892
10.360000 29.938480 30.535013 30.721456 30.684758 30.881993 31.023030
10.400000 30.061214 30.646461 30.820976 30.787922 30.975015 31.126797
10.440000 30.157874 30.758919 30.926885 30.891010 31.067041 31.213085
10.480000 30.246671 30.856148 31.021864 30.990230 31.165820 31.305784
10.520000 30.382195 30.962335 31.117002 31.090012 31.258542 31.403662
10.560000 30.513728 31.052539 31.216928 31.188377 31.363558 31.502287
10.600000 30.614650 31.148190 31.315540 31.284467 31.454316 31.596749
10.640000 30.691496 31.247450 31.406373 31.378904 31.543672 31.699558
10.680000 30.781281 31.340469 31.502733 31.472048 31.640516 31.796107
10.720000 30.842851 31.431719 31.591369 31.564600 31.731322 31.879541
10.760000 30.903910 31.521921 31.685382 31.657545 31.822093 31.973688
10.800000 30.971169 31.619189 31.773346 31.749868 31.914095 32.068180
10.840000 31.051767 31.703601 31.862430 31.843766 32.011042 32.174822
10.880000 31.147145 31.809725 31.956100 31.937557 32.114115 32.279159
10.920000 31.251633 31.905977 32.054308 32.032023 32.204859 32.362741
10.960000 31.382878 31.994251 32.145577 32.126272 32.295550 32.445064
11.000000 31.489663 32.092028 32.246502 32.222982 32.401668 32.539973
11.040000 31.606072 32.180603 32.340173 32.315254 32.484533 32.620487
11.080000 31.666791 32.275265 32.429649 32.406761 32.577925 32.708601
11.120000 31.747647 32.366596 32.519710 32.497794 32.672762 32.820864
11.160000 31.835733 32.449911 32.609087 32.587872 32.760794 32.919285
11.200000 31.944528 32.544070 32.701479 32.676445 32.845421 32.991451
11.240000 32.055838 32.631384 32.788410 32.765233 32.930699 33.073353
11.280000 32.159452 32.729470 32.879083 32.855995 33.020124 33.143255
11.320000 32.262353 32.819583 32.964747 32.941721 33.100547 33.220275
11.360000 32.387521 32.903163 33.043153 33.024336 33.183459 33.302151
11.400000 32.511756 32.988338 33.129384 33.109467 33.266504 33.384594
11.440000 32.670764 33.078754 33.214241 33.195236 33.340881 33.490709
11.480000 32.827252 33.167926 33.295160 33.283357 33.429850 33.581841
11.520000 32.959148 33.249887 33.380009 33.369886 33.516648 33.680357
11.560000 33.043739 33.330435 33.465327 33.455534 33.596601 33.789578
11.600000 33.170231 33.417763 33.552797 33.544481 33.687083 33.896656
11.640000 33.273452 33.501998 33.639063 33.636915 33.787544 34.020113
11.680000 33.356457 33.599845 33.731637 33.733234 33.887703 34.139360
11.720000 33.438520 33.681135 33.822131 33.825734 33.987050 34.231524
11.760000 33.518646 33.760374 33.909251 33.920339 34.103019 34.345357
11.800000 33.629743 33.847753 33.997640 34.015049 34.207403 34.487072
11.840000 33.740879 33.936249 34.092173 34.110253 34.310807 34.605833
11.880000 33.843784 34.022557 34.177352 34.205701 34.428722 34.690853
11.920000 33.925205 34.106514 34.273139 34.303350 34.527329 34.785485
11.960000 34.020725 34.193907 34.371404 34.402103 34.648465 34.922796
12.000000 34.097223 34.279362 34.471290 34.504212 34.767640 35.029246
12.040000 34.162998 34.362212 34.568887 34.602738 34.882254 35.173722
12.080000 34.233643 34.450683 34.662262 34.700217 34.990327 35.283091
12.120000 34.334434 34.544279 34.767520 34.804398 35.090859 35.393342
12.160000 34.435746 34.636493 34.867636 34.906359 35.207780 35.492563
12.200000 34.522022 34.734863 34.976380 35.013124 35.307631 35.612504
12.240000 34.611722 34.829256 35.086958 35.119824 35.431669 35.721326
12.280000 34.693633 34.924893 35.191929 35.227685 35.559877 35.815106
12.320000 34.793438 35.017217 35.305058 35.333607 35.663894 35.933014
12.360000 34.893783 35.115628 35.423683 35.440744 35.774530 36.031811
12.400000 35.016831 35.226727 35.538191 35.551984 35.872937 36.134827
12.440000 35.108957 35.337563 35.660757 35.665278 35.971255 36.284672
12.480000 35.205440 35.457271 35.798583 35.779600 36.068630 36.409307
12.500000 35.290015 35.513257 35.863609 35.840245 36.117126 36.483132
12.520000 35.335613 35.576999 35.920965 35.901489 36.167554 36.542856
12.560000 35.444417 35.714737 36.049915 36.027676 36.275108 36.660028
12.600000 35.573241 35.873773 36.171320 36.152448 36.377833 36.821477
12.640000 35.684641 36.024666 36.284667 36.278127 36.486836 36.945410
12.680000 35.793818 36.166103 36.400282 36.402558 36.623986 37.154564
12.700000 35.835906 36.230552 36.454131 36.462635 36.687423 37.210860
12.720000 35.873759 36.301327 36.508260 36.520529 36.748048 37.278089
12.760000 35.986724 36.432022 36.616843 36.634694 36.870418 37.393946
12.800000 36.132262 36.537085 36.719605 36.747321 36.995612 37.477475
12.840000 36.230154 36.631794 36.817261 36.855219 37.109649 37.601964
12.880000 36.324550 36.735233 36.919028 36.962223 37.226704 37.723226
12.920000 36.397394 36.832110 37.020945 37.065284 37.327509 37.813375
12.960000 36.502175 36.926457 37.119248 37.165883 37.430790 37.904592
13.000000 36.585053 37.021765 37.216861 37.266364 37.537239 37.989710
13.040000 36.722440 37.120991 37.325841 37.372596 37.634438 38.114313
13.080000 36.856236 37.223882 37.434595 37.478862 37.757950 38.224700
13.120000 36.952804 37.325816 37.538326 37.583473 37.870862 38.313748
13.160000 37.073682 37.424951 37.647359 37.687452 37.972434 38.410556
13.200000 37.229205 37.525647 37.750976 37.794014 38.073030 38.520350
13.240000 37.322578 37.628537 37.866204 37.900511 38.188798 38.614117
13.280000 37.432122 37.729998 37.971759 38.007401 38.307539 38.704644
13.320000 37.533117 37.827380 38.080998 38.113992 38.415663 38.785800
13.360000 37.677382 37.933133 38.181051 38.222461 38.539654 38.886776
13.400000 37.830150 38.049102 38.299944 38.335904 38.672176 39.015788
13.440000 37.924477 38.172490 38.422396 38.451895 38.787956 39.078028
13.480000 38.010716 38.288771 38.546758 38.572422 38.918071 39.191042
13.520000 38.122671 38.409379 38.674924 38.694366 39.032614 39.305930
13.560000 38.271245 38.528943 38.805203 38.823340 39.149939 39.414283
13.600000 38.379791 38.675412 38.940067 38.961786 39.279956 39.557045
13.640000 38.549652 38.818559 39.087996 39.107296 39.416373 39.737921
13.680000 38.715639 38.954108 39.229257 39.249248 39.550333 39.926110
13.720000 38.845836 39.094407 39.382554 39.398052 39.694179 40.128886
13.760000 38.996572 39.228532 39.530071 39.546347 39.849793 40.299277
