depth(m) lower_95(kyr) lower_68(kyr) median(kyr) mean(kyr) upper_68(kyr) upper_95(kyr)
4.525000 148.268428 150.135935 151.256233 151.106427 152.059126 152.778132
4.535000 148.801462 150.465534 151.537938 151.385884 152.304800 152.982980
4.545000 148.993760 150.780737 151.816047 151.664246 152.536716 153.259248
4.555000 149.523900 151.035877 152.087017 151.926006 152.761316 153.453546
4.565000 149.927466 151.294387 152.353314 152.181095 152.976884 153.733770
4.575000 150.268023 151.557420 152.603950 152.443341 153.235993 153.973190
4.585000 150.501885 151.878434 152.837341 152.699714 153.432583 154.224090
4.595000 150.867021 152.174594 153.090149 152.951265 153.666679 154.422817
4.605000 151.141691 152.475672 153.324954 153.199346 153.880186 154.617557
4.615000 151.521220 152.788480 153.553292 153.454207 154.105452 154.881501
4.625000 151.841583 153.046878 153.782748 153.702418 154.314502 155.225715
4.635000 152.164038 153.312544 154.023797 153.950274 154.543322 155.435769
4.645000 152.384221 153.590111 154.275687 154.191188 154.777294 155.645429
4.655000 152.658501 153.850176 154.504998 154.431566 155.014526 155.951061
4.665000 152.932116 154.127753 154.727199 154.677735 155.244634 156.159680
4.675000 153.248047 154.362603 154.964773 154.919313 155.473491 156.434106
4.685000 153.483294 154.583980 155.196108 155.156006 155.708122 156.708483
4.695000 153.750868 154.850815 155.427371 155.396435 155.932127 156.882989
4.705000 154.041466 155.055059 155.653438 155.633927 156.160967 157.176375
4.715000 154.324927 155.280496 155.892318 155.872441 156.409939 157.408641
4.725000 154.713881 155.518376 156.103246 156.109410 156.654008 157.660403
4.735000 155.042524 155.784216 156.332497 156.349652 156.910623 157.877863
4.745000 155.193466 155.993698 156.595842 156.588982 157.163535 158.109635
4.755000 155.424129 156.245687 156.842168 156.841489 157.478934 158.325425
4.765000 155.634658 156.481129 157.080155 157.090378 157.724464 158.612882
4.775000 155.888513 156.721266 157.324202 157.348849 158.012010 158.824483
4.785000 156.120807 156.953676 157.591322 157.614947 158.307258 159.081648
4.795000 156.370131 157.236326 157.845024 157.881694 158.620996 159.420784
4.805000 156.545995 157.482772 158.137694 158.163356 158.888116 159.708745
4.815000 156.866610 157.746494 158.418994 158.450875 159.181530 159.988568
4.825000 157.022940 158.048769 158.744724 158.749532 159.490145 160.256051
4.835000 157.287023 158.342393 159.074042 159.056618 159.799156 160.561080
4.845000 157.626022 158.618524 159.424792 159.378595 160.107998 160.913326
4.855000 157.886175 158.911079 159.743561 159.689255 160.437102 161.183707
4.865000 158.195044 159.198542 160.056863 160.005684 160.808159 161.555167
4.875000 158.497597 159.516756 160.362610 160.317318 161.120196 161.899550
4.885000 158.824358 159.811538 160.652219 160.628022 161.446944 162.257748
4.895000 159.052695 160.140598 160.944106 160.933115 161.784828 162.544880
4.905000 159.395170 160.403901 161.213868 161.228441 162.105081 162.864189
4.915000 159.762800 160.728321 161.499759 161.519667 162.404254 163.175091
4.925000 160.087278 161.048023 161.750807 161.815471 162.703358 163.519482
4.935000 160.429093 161.330424 162.080792 162.113058 162.999838 163.787858
4.945000 160.631772 161.600652 162.360543 162.388299 163.292867 164.041136
4.955000 161.009332 161.859478 162.647400 162.677101 163.601145 164.356315
4.965000 161.259966 162.149913 162.946357 162.973762 163.914733 164.630878
4.975000 161.567330 162.410342 163.218817 163.260742 164.171245 164.984991
4.985000 161.803233 162.709648 163.450434 163.526633 164.481380 165.284145
4.995000 162.114168 162.987799 163.727440 163.806488 164.749892 165.571596
5.005000 162.442115 163.255511 164.007170 164.087612 165.022875 165.846403
5.015000 162.741004 163.543608 164.275822 164.361552 165.263172 166.122260
5.025000 163.028249 163.849475 164.552748 164.634821 165.502073 166.352573
5.035000 163.331352 164.094379 164.863231 164.912352 165.802823 166.699080
5.045000 163.571926 164.357665 165.140993 165.188743 166.077247 167.020857
5.055000 163.814354 164.605885 165.418715 165.452763 166.347239 167.273240
5.065000 164.181664 164.852318 165.699848 165.717640 166.605422 167.523508
5.075000 164.462554 165.137747 165.944637 165.977515 166.840235 167.768991
5.085000 164.814046 165.391314 166.207583 166.234061 167.096755 168.006569
5.095000 165.090798 165.675254 166.435230 166.484456 167.334313 168.216806
5.105000 165.281786 165.934408 166.705041 166.739111 167.568330 168.461752
5.115000 165.551992 166.198999 166.925633 166.988361 167.805087 168.652402
5.125000 165.776768 166.515197 167.171594 167.246119 168.069903 168.915200
5.135000 166.029755 166.782398 167.422675 167.509704 168.334867 169.231207
5.145000 166.288695 167.049686 167.670544 167.780381 168.594206 169.548421
5.155000 166.596668 167.296316 167.989815 168.068316 168.889950 169.768239
5.165000 166.897868 167.616464 168.259711 168.351926 169.204546 170.117658
5.175000 167.233189 167.886459 168.579645 168.656804 169.510263 170.427032
5.185000 167.529836 168.221216 168.900290 168.998115 169.820802 170.794010
5.195000 167.869413 168.534925 169.295270 169.350391 170.172911 171.172608
5.205000 168.242129 168.844124 169.671653 169.723337 170.575970 171.727586
5.215000 168.613786 169.215352 170.067066 170.115302 170.959623 172.150735
5.225000 168.884149 169.565508 170.459098 170.508055 171.418742 172.586790
5.235000 169.190835 169.913908 170.883346 170.913702 171.857294 172.954168
5.245000 169.494928 170.286380 171.260006 171.297238 172.269101 173.351946
5.255000 169.841784 170.648394 171.674602 171.679442 172.672281 173.735892
5.265000 170.124459 171.000581 172.061631 172.071659 173.139299 174.121793
5.275000 170.378292 171.319162 172.500798 172.454725 173.506911 174.439526
5.285000 170.663591 171.657950 172.891930 172.817895 173.923468 174.737998
5.295000 170.995568 172.062046 173.273168 173.194632 174.284567 175.085318
5.305000 171.407994 172.422876 173.675632 173.577380 174.630728 175.604745
5.315000 171.742653 172.757227 174.060168 173.958028 175.015001 175.935506
5.325000 172.048225 173.168074 174.441331 174.309581 175.340652 176.173744
5.335000 172.360528 173.539383 174.812355 174.663365 175.681435 176.498268
5.345000 172.659684 173.962396 175.177611 175.027211 175.999185 176.809676
5.355000 173.091460 174.337536 175.537942 175.384892 176.310095 177.092181
5.365000 173.411325 174.743514 175.909804 175.739904 176.609093 177.410787
5.375000 173.790660 175.134702 176.254088 176.089083 176.924195 177.720329
5.385000 174.226039 175.515603 176.581237 176.421315 177.209630 178.065704
5.395000 174.663514 175.902130 176.877197 176.745004 177.503251 178.418011
5.405000 175.023202 176.232363 177.185465 177.065841 177.805594 178.627773
5.415000 175.477740 176.558591 177.479943 177.382949 178.086448 178.884626
5.425000 175.834333 176.956508 177.759405 177.695396 178.408922 179.152171
5.435000 176.183425 177.287975 178.033521 177.982612 178.744919 179.373122
5.445000 176.550136 177.543003 178.307170 178.273119 179.056703 179.656262
5.455000 176.905603 177.825964 178.585308 178.557817 179.336881 179.913636
5.465000 177.216042 178.119404 178.851194 178.849395 179.645433 180.188900
5.475000 177.564673 178.396082 179.151109 179.133206 179.933486 180.457511
5.485000 177.823995 178.685683 179.424272 179.419031 180.200288 180.705850
5.495000 178.104773 178.967192 179.711266 179.697028 180.465185 180.955067
5.505000 178.359236 179.275104 180.023384 179.989125 180.742757 181.251154
5.515000 178.642131 179.530794 180.319375 180.279093 181.058789 181.477459
5.525000 178.905379 179.857685 180.614760 180.563299 181.324503 181.818252
5.535000 179.259439 180.104785 180.925065 180.849265 181.594314 182.150237
5.545000 179.496675 180.386327 181.275880 181.155928 181.869433 182.503572
5.555000 179.810210 180.660995 181.580596 181.470155 182.187029 182.902073
5.565000 180.077211 180.946669 181.901057 181.783688 182.523134 183.296443
5.575000 180.375678 181.254802 182.205774 182.102580 182.853221 183.581060
5.585000 180.697110 181.595659 182.522821 182.423682 183.167430 183.870124
5.595000 180.976455 181.922162 182.848762 182.762709 183.534814 184.211292
5.605000 181.286218 182.247581 183.157920 183.093182 183.902123 184.519352
5.615000 181.615829 182.671693 183.479582 183.438373 184.220420 184.985402
5.625000 181.968590 183.021686 183.828529 183.791754 184.580703 185.324706
5.635000 182.355430 183.418142 184.174499 184.140676 184.905791 185.596399
5.645000 182.732404 183.796182 184.538167 184.487861 185.243796 185.885001
5.655000 183.059640 184.183618 184.880055 184.853447 185.597979 186.213648
5.665000 183.466703 184.558130 185.218658 185.207280 185.938383 186.582795
5.675000 183.895209 184.904083 185.569133 185.559802 186.268787 186.929519
5.685000 184.195756 185.228321 185.905814 185.909298 186.637690 187.323554
5.695000 184.751939 185.574892 186.258500 186.262843 186.971252 187.755023
5.705000 185.215503 185.930385 186.651487 186.622069 187.337825 188.012883
5.715000 185.582688 186.286907 187.006800 186.991981 187.687267 188.451954
5.725000 186.057514 186.645689 187.406365 187.400646 188.086380 188.808351
5.735000 186.431043 187.045292 187.833621 187.819398 188.512909 189.258296
5.745000 186.933949 187.596227 188.289472 188.301832 189.014125 189.714393
5.755000 187.431414 188.126259 188.813819 188.840028 189.572372 190.356716
5.765000 187.989023 188.686119 189.395171 189.425190 190.163552 191.020049
5.775000 188.713159 189.309818 190.020457 190.050885 190.784458 191.641918
5.785000 189.250720 189.870245 190.608803 190.662873 191.445308 192.381450
5.795000 189.708970 190.415378 191.229720 191.290205 192.170804 193.160925
5.805000 190.181517 190.992688 191.839232 191.885452 192.789360 193.804194
5.815000 190.618055 191.522776 192.412601 192.450224 193.404128 194.350445
5.825000 191.094556 192.039548 192.930139 192.968371 193.917993 194.763937
5.835000 191.625786 192.536883 193.471139 193.466087 194.430655 195.238546
5.845000 192.015468 192.995368 193.963633 193.924144 194.874426 195.640915
5.855000 192.521342 193.439354 194.400141 194.352657 195.259071 195.947751
5.865000 192.935173 193.913007 194.818076 194.768311 195.620203 196.260404
5.875000 193.382778 194.358371 195.243097 195.179301 196.006416 196.523822
5.885000 193.741264 194.814995 195.594089 195.550436 196.318210 196.786896
5.895000 194.281507 195.226899 195.956523 195.898958 196.622626 197.062423
5.905000 194.934426 195.619122 196.275716 196.250027 196.927382 197.339780
5.915000 195.379588 196.028262 196.604678 196.598567 197.211033 197.663069
5.925000 195.764477 196.383715 196.951562 196.947904 197.526720 198.031813
5.935000 196.191394 196.750187 197.283223 197.301583 197.835057 198.493423
5.945000 196.509638 197.072922 197.633437 197.656786 198.204552 198.903465
5.955000 196.921464 197.402714 197.981652 198.010684 198.564310 199.352398
5.965000 197.241430 197.762399 198.343786 198.378989 198.946971 199.772767
5.975000 197.647903 198.175417 198.718501 198.785066 199.375788 200.300847
5.985000 198.022199 198.546568 199.151897 199.208012 199.850864 200.734435
5.995000 198.447235 198.985803 199.636844 199.659445 200.336802 201.177945
6.005000 198.870337 199.391135 200.083408 200.109349 200.825839 201.662309
6.015000 199.262736 199.853403 200.525355 200.584997 201.313953 202.274862
6.025000 199.708680 200.302771 201.014599 201.088271 201.885900 202.897329
6.035000 200.153081 200.760516 201.566058 201.648140 202.493927 203.709363
6.045000 200.692865 201.322903 202.223752 202.352577 203.399753 204.775406
6.055000 201.213977 201.974778 203.037882 203.162791 204.379392 205.759180
6.065000 201.726038 202.581235 203.818776 203.962273 205.428274 206.843615
6.075000 202.059825 203.338395 204.693189 204.759908 206.277911 207.588023
6.085000 202.700456 204.169013 205.639399 205.644034 207.080538 208.525118
6.095000 203.733397 204.975384 206.451797 206.463834 207.841428 209.070127
6.105000 204.425523 205.783433 207.268992 207.208843 208.568028 209.531882
6.115000 205.150967 206.683445 207.977208 207.900672 209.209610 210.132112
6.125000 206.191637 207.503674 208.667301 208.592528 209.703404 210.542517
6.135000 207.081535 208.358200 209.362654 209.268574 210.156347 210.874103
6.145000 207.891619 209.158056 209.972257 209.894052 210.666276 211.368374
6.155000 208.687498 209.752241 210.463762 210.441162 211.172971 211.868854
6.165000 209.661448 210.315129 210.955133 210.945744 211.586746 212.243787
6.175000 210.166089 210.769359 211.360094 211.366525 211.969841 212.604612
6.185000 210.598949 211.155465 211.724459 211.745469 212.354954 212.918839
6.195000 210.941004 211.503333 212.084631 212.092150 212.701093 213.265755
6.205000 211.274106 211.833269 212.420329 212.423659 213.028638 213.557965
6.215000 211.590817 212.142646 212.761535 212.744365 213.310210 213.848511
6.225000 211.871164 212.445952 213.048870 213.047815 213.633449 214.146233
6.235000 212.238812 212.771587 213.360146 213.356934 213.932637 214.467991
6.245000 212.535914 213.096765 213.669325 213.667442 214.215733 214.780490
6.255000 212.880868 213.423064 213.984670 213.979004 214.522509 215.097792
6.265000 213.159847 213.727896 214.293090 214.293136 214.834205 215.392919
6.275000 213.507353 214.030150 214.616117 214.612874 215.165932 215.714372
6.285000 213.860772 214.363162 214.939862 214.934071 215.489619 216.081822
6.295000 214.183135 214.681536 215.254856 215.258255 215.827010 216.373236
6.305000 214.426102 215.011852 215.589346 215.603660 216.193633 216.733767
6.315000 214.858896 215.364345 215.968662 215.981514 216.619690 217.172202
6.325000 215.232655 215.776132 216.375621 216.390587 217.053926 217.591211
6.335000 215.649714 216.193268 216.844474 216.850351 217.510807 218.136337
6.345000 216.171503 216.711077 217.358773 217.379703 218.052621 218.722429
6.355000 216.604719 217.165740 217.810983 217.869483 218.586700 219.320517
6.365000 216.994244 217.678708 218.360250 218.391664 219.126570 219.910382
6.375000 217.600823 218.201651 218.970110 218.990472 219.763913 220.708024
6.385000 218.195756 218.760895 219.540316 219.584855 220.357935 221.433290
6.395000 218.669279 219.340985 220.144673 220.206791 221.107613 222.095720
6.405000 219.097603 219.884858 220.774905 220.817250 221.712431 222.647280
6.415000 219.689212 220.500765 221.456412 221.444467 222.368263 223.290931
6.425000 220.288368 221.074622 222.008417 222.024187 222.963534 223.741357
6.435000 220.796731 221.601923 222.569963 222.567371 223.490037 224.394590
6.445000 221.297039 222.120350 223.043064 223.050915 223.940746 225.014012
6.455000 221.767451 222.566208 223.496938 223.496165 224.402800 225.376320
6.465000 222.285363 223.020682 223.936396 223.936231 224.828876 225.714383
6.475000 222.641768 223.435969 224.390636 224.380595 225.281364 226.107597
6.485000 223.096950 223.937006 224.834954 224.814643 225.687508 226.533780
6.495000 223.496932 224.412994 225.315527 225.272382 226.124198 226.828125
6.505000 224.006431 224.892093 225.814225 225.736589 226.544896 227.138977
6.515000 224.450867 225.352732 226.246314 226.176699 226.992996 227.473398
6.525000 224.912186 225.898279 226.704702 226.628475 227.412948 227.863092
6.535000 225.340201 226.349501 227.172844 227.066293 227.787300 228.224551
6.545000 225.838933 226.814608 227.576874 227.465623 228.131958 228.556480
6.555000 226.211046 227.197791 227.972160 227.845265 228.480908 228.862758
6.565000 226.635238 227.611648 228.315471 228.202718 228.768222 229.148458
6.575000 226.961906 228.014473 228.669767 228.544840 229.085005 229.441409
6.585000 227.353931 228.404098 228.952696 228.865143 229.361229 229.746745
6.595000 227.710970 228.731949 229.239029 229.169150 229.652036 230.023984
6.605000 228.006087 229.016688 229.521298 229.447354 229.918801 230.275399
6.615000 228.292651 229.314164 229.773464 229.718625 230.179967 230.484583
6.625000 228.572791 229.598111 230.026503 229.985580 230.426644 230.794131
6.635000 228.878194 229.883930 230.285506 230.252456 230.671733 231.053052
6.645000 229.236321 230.177235 230.559332 230.526965 230.932293 231.322321
6.655000 229.626766 230.459383 230.848265 230.811795 231.201017 231.615998
6.665000 229.995787 230.741262 231.131733 231.090982 231.486239 231.913197
6.675000 230.285911 230.995256 231.386362 231.360967 231.736926 232.169471
6.685000 230.517476 231.266327 231.654005 231.626846 231.996635 232.499386
6.695000 230.867613 231.553876 231.905622 231.898555 232.276478 232.757466
6.705000 231.230763 231.807574 232.170124 232.169034 232.549903 233.058178
6.715000 231.559259 232.075638 232.432274 232.439845 232.823635 233.362197
6.725000 231.828376 232.339738 232.696674 232.707311 233.098568 233.611133
6.735000 232.151094 232.600057 232.961734 232.979590 233.382779 233.913939
6.745000 232.405899 232.851510 233.237627 233.256437 233.665664 234.207898
6.755000 232.681508 233.124319 233.519437 233.545245 233.988180 234.515195
6.765000 233.008177 233.444947 233.833103 233.864052 234.348904 234.818943
6.775000 233.370341 233.736908 234.151098 234.195244 234.710114 235.231237
6.785000 233.671997 234.070940 234.522022 234.560173 235.071366 235.557055
6.795000 233.959281 234.401428 234.939881 234.949308 235.477504 235.984356
6.805000 234.334325 234.795666 235.378649 235.373871 235.905749 236.520217
6.815000 234.740803 235.216868 235.829214 235.814309 236.364032 236.945500
6.825000 235.183406 235.700057 236.318113 236.299762 236.853440 237.424778
6.835000 235.597982 236.228400 236.804765 236.806026 237.363722 237.923829
6.845000 236.275114 236.860789 237.461021 237.462280 238.036990 238.758556
6.855000 237.038111 237.619628 238.239178 238.240775 238.889187 239.474903
6.865000 237.662039 238.248008 238.800009 238.843924 239.439415 240.119737
6.875000 238.212570 238.760621 239.386613 239.417375 240.094442 240.803004
6.885000 238.643993 239.280317 239.973453 239.987834 240.692815 241.551313
6.895000 239.069729 239.735383 240.510151 240.512821 241.285201 242.046133
6.905000 239.462280 240.246413 241.112503 241.059753 241.902288 242.523500
6.915000 239.763951 240.630190 241.506339 241.469473 242.319089 242.981486
6.925000 240.146787 241.059598 241.894878 241.865458 242.671592 243.355361
6.935000 240.656157 241.466562 242.320649 242.282461 243.068847 243.774291
6.945000 241.197261 241.924503 242.752244 242.712669 243.463308 244.074177
6.955000 241.721464 242.411377 243.204283 243.147366 243.837531 244.412737
6.965000 242.250480 242.871836 243.595969 243.550075 244.196274 244.712332
6.975000 242.587893 243.238018 243.976681 243.912972 244.539413 245.005461
6.985000 242.931028 243.586588 244.279190 244.229677 244.847582 245.227741
6.995000 243.198028 243.940743 244.589253 244.542224 245.128679 245.494264
7.005000 243.640830 244.310285 244.915902 244.859335 245.407711 245.768540
7.015000 243.958034 244.633150 245.230321 245.183725 245.703738 246.108214
7.025000 244.377684 245.030487 245.543327 245.512646 246.003862 246.413907
7.035000 244.746165 245.382193 245.854011 245.833759 246.300981 246.750555
7.045000 245.150063 245.710383 246.178709 246.180744 246.648149 247.094938
7.055000 245.521491 246.095902 246.549286 246.544516 247.033286 247.546998
7.065000 245.919596 246.447487 246.891082 246.914377 247.436257 247.920009
7.075000 246.321120 246.785261 247.260403 247.292486 247.834356 248.318451
7.085000 246.680363 247.157871 247.643590 247.661514 248.212028 248.687053
7.095000 246.969197 247.478933 247.981739 248.008104 248.574143 249.094163
7.105000 247.357671 247.827488 248.365717 248.387599 248.977825 249.480035
7.115000 247.721097 248.171507 248.733537 248.769385 249.384113 249.889167
7.125000 248.042282 248.552566 249.133606 249.142446 249.743552 250.232456
7.135000 248.400305 248.915511 249.492808 249.495626 250.088159 250.534362
7.145000 248.783811 249.234054 249.839201 249.836142 250.416980 250.853696
7.155000 249.120117 249.579260 250.155141 250.154320 250.721304 251.141273
7.175000 249.685343 250.191646 250.785581 250.759214 251.289785 251.822823
