depth(m) lower_95(kyr) lower_68(kyr) median(kyr) mean(kyr) upper_68(kyr) upper_95(kyr)
61.120000 1493.322796 1496.768584 1499.171778 1498.818524 1500.983408 1502.455991
61.250000 1496.444875 1499.414808 1501.543768 1501.243556 1503.084768 1504.296146
61.325000 1498.407802 1500.922872 1502.879388 1502.653978 1504.342208 1505.589129
61.400000 1500.019348 1502.604010 1504.210092 1504.065204 1505.569898 1506.882558
61.480000 1502.171650 1504.183338 1505.589409 1505.549321 1507.007313 1508.410408
61.550000 1503.887801 1505.668599 1507.001681 1507.080562 1508.572746 1510.478504
61.625000 1505.668565 1507.350069 1509.088506 1509.314293 1511.442191 1514.485629
61.700000 1507.679101 1509.262347 1511.469467 1511.702560 1514.159072 1516.970748
61.775000 1509.002894 1511.084920 1513.715678 1513.845384 1516.791764 1519.416238
61.850000 1510.518058 1512.876532 1515.930348 1516.048259 1519.131638 1522.286458
61.925000 1512.163299 1514.514067 1518.205104 1518.159728 1521.463982 1524.856289
62.000000 1513.592221 1516.552013 1520.491447 1520.285284 1523.622003 1526.740693
62.080000 1515.804680 1519.025254 1522.981395 1522.759071 1526.196058 1528.891069
62.180000 1518.855737 1522.572037 1526.419462 1526.124508 1529.490292 1532.007287
62.280000 1521.809276 1526.524117 1530.031049 1529.553833 1532.538079 1534.612778
62.380000 1527.160732 1530.537001 1533.189588 1532.740595 1534.866676 1536.639017
62.490000 1529.668959 1533.076243 1535.388153 1535.006238 1536.974315 1538.356535
62.600000 1532.261882 1535.110600 1537.306853 1537.002149 1538.854026 1540.315533
62.710000 1534.732760 1537.215957 1539.138245 1538.934122 1540.564137 1541.854405
62.785000 1536.205681 1538.676618 1540.452586 1540.284922 1541.783055 1543.291227
62.860000 1537.772143 1540.005799 1541.686256 1541.576579 1543.066701 1544.644238
62.985000 1540.123441 1542.070575 1543.647757 1543.666182 1545.179654 1547.679506
63.110000 1542.340579 1544.089048 1545.616378 1545.755088 1547.432964 1550.439632
63.220000 1544.318203 1545.942503 1547.633491 1547.847528 1549.756651 1552.781081
63.326667 1546.017158 1547.802441 1549.780697 1549.984436 1552.321908 1554.816588
63.433333 1547.486285 1549.656015 1552.091583 1552.117661 1554.496128 1556.568939
63.540000 1549.350373 1551.944969 1554.587131 1554.383333 1556.628082 1558.672189
63.620000 1551.060201 1554.076922 1556.495419 1556.242216 1558.393001 1560.072904
63.690000 1552.790750 1555.788338 1557.979382 1557.781494 1559.748694 1561.355650
63.775000 1554.904088 1557.567914 1559.547575 1559.408024 1561.286554 1562.661244
63.860000 1557.019151 1559.301340 1561.115945 1560.947677 1562.708616 1563.927485
63.990000 1559.277336 1561.376793 1563.195841 1562.985400 1564.611410 1565.751448
64.120000 1561.796420 1563.586334 1565.191898 1565.090009 1566.549725 1567.726004
64.210000 1563.581229 1565.268707 1566.785477 1566.728553 1568.194376 1569.416298
64.285000 1565.298970 1567.155518 1568.571244 1568.474046 1569.910568 1570.886441
64.360000 1567.865008 1569.110770 1570.353119 1570.286818 1571.461057 1572.525197
64.440000 1569.735392 1570.818116 1571.939183 1571.900802 1573.005163 1573.920969
64.525000 1571.047997 1572.151820 1573.292003 1573.253849 1574.406961 1575.253372
64.610000 1572.326980 1573.440128 1574.507188 1574.505827 1575.609153 1576.562567
64.740000 1574.033435 1575.144773 1576.299664 1576.301639 1577.401784 1578.545823
64.815000 1575.106413 1576.237515 1577.387185 1577.423066 1578.537902 1580.031208
64.890000 1576.156633 1577.390076 1578.551751 1578.602480 1579.817464 1581.185693
65.020000 1578.129795 1579.350675 1580.622184 1580.726191 1582.128809 1583.818062
65.105000 1579.592262 1580.818653 1582.174555 1582.327408 1583.819471 1585.950773
65.190000 1580.838629 1582.432742 1583.903606 1584.089919 1585.835613 1587.922725
65.265000 1582.310349 1583.960824 1585.707207 1585.877419 1587.977554 1589.782967
65.340000 1583.938271 1585.720864 1587.779658 1587.763649 1589.838363 1591.520750
65.440000 1585.505698 1587.770247 1589.995430 1589.897800 1592.002387 1593.542107
65.540000 1587.381505 1590.055417 1592.246386 1591.962833 1593.874381 1595.319823
65.640000 1589.537897 1592.615416 1594.324767 1594.107939 1595.674568 1597.092634
65.710000 1590.779050 1594.186405 1595.829427 1595.571679 1597.079804 1598.539335
65.835000 1593.197067 1596.516970 1598.271478 1598.156330 1599.935516 1601.774165
65.960000 1596.092579 1598.848083 1600.780133 1600.634772 1602.596782 1604.381315
66.090000 1598.520806 1600.830121 1602.816825 1602.786811 1604.771275 1606.405548
66.220000 1600.880158 1603.116443 1604.973192 1604.926449 1606.668666 1608.409827
66.305000 1602.717129 1604.581979 1606.483429 1606.437487 1608.132146 1609.875717
66.390000 1604.508341 1606.422779 1608.095696 1608.111659 1609.668911 1611.339614
66.520000 1608.115162 1609.757792 1611.192947 1611.497761 1612.875400 1617.110799
66.605000 1609.852487 1611.627926 1613.201124 1613.634773 1615.496263 1620.608293
66.690000 1611.710557 1613.580169 1615.395543 1615.725483 1617.624911 1622.405302
66.765000 1613.395149 1615.387644 1617.682935 1617.899883 1620.086583 1624.119540
66.840000 1614.867772 1617.505990 1619.913960 1620.057240 1622.392066 1625.815056
66.915000 1616.183364 1619.033200 1621.791326 1621.853132 1624.540186 1627.933595
66.990000 1617.481368 1620.671989 1623.493229 1623.539731 1626.211215 1630.143303
67.065000 1618.962952 1622.254038 1625.241020 1625.222757 1627.946100 1631.599321
67.140000 1620.165364 1624.232247 1627.003725 1627.001508 1629.716580 1633.092128
67.200000 1621.501516 1625.729651 1628.682473 1628.576439 1631.388252 1634.925074
67.320000 1625.479915 1629.135019 1632.249014 1632.115049 1634.956190 1638.359339
67.440000 1628.758292 1633.120181 1635.865268 1635.712512 1638.457891 1641.264259
67.525000 1630.346209 1635.515076 1638.533304 1638.211001 1640.973490 1643.654346
67.610000 1633.039335 1638.320980 1640.847863 1640.604408 1643.059806 1645.821617
67.740000 1637.902736 1641.692200 1643.934079 1643.770601 1646.122001 1648.487617
67.840000 1640.824642 1643.511811 1645.979134 1645.894977 1648.264472 1650.681991
67.940000 1643.192794 1645.579665 1647.990911 1647.954209 1650.283456 1652.507422
68.040000 1645.416775 1647.646709 1649.930409 1649.904404 1652.241429 1654.173822
68.115000 1646.948478 1649.003441 1651.220206 1651.256145 1653.536522 1655.525589
68.190000 1648.302986 1650.425583 1652.622545 1652.592307 1654.795190 1656.778688
68.290000 1649.931682 1652.069624 1654.315924 1654.218696 1656.367638 1658.313216
68.390000 1651.590273 1653.714183 1655.883951 1655.875134 1658.077053 1660.213369
68.490000 1653.230311 1655.372684 1657.565417 1657.532559 1659.707710 1662.038067
68.565000 1654.621204 1656.665290 1658.929601 1658.975766 1661.196165 1664.201809
68.640000 1656.356740 1658.190108 1660.376770 1660.553577 1662.863725 1665.857737
68.750000 1658.648654 1660.862922 1663.320913 1663.642950 1666.506151 1671.257636
68.860000 1661.562152 1663.727643 1666.552445 1666.933667 1670.174160 1674.836166
68.975000 1664.191081 1666.657215 1669.933231 1670.433887 1674.290801 1679.269793
69.090000 1667.174942 1669.995291 1673.229962 1673.822769 1677.918408 1682.497734
69.165000 1668.912903 1672.094834 1675.616494 1676.027728 1680.151322 1684.720729
69.240000 1670.774526 1674.184731 1677.912080 1678.122151 1682.248101 1686.576367
69.315000 1672.537744 1676.119490 1679.822447 1680.148771 1684.510047 1688.850536
69.390000 1674.907269 1678.025656 1681.832869 1682.146866 1686.618066 1690.570286
69.465000 1676.548718 1680.007099 1683.913619 1684.146025 1688.373952 1692.798701
69.540000 1678.572122 1682.012078 1685.899017 1686.119783 1690.323541 1694.665346
69.615000 1680.537668 1683.931044 1687.913073 1688.099593 1692.187051 1696.772192
69.690000 1682.207633 1686.023254 1690.095175 1690.101043 1694.078784 1698.475625
69.765000 1683.876203 1688.055818 1692.295893 1692.244457 1696.252693 1700.286304
69.840000 1685.805262 1690.269148 1694.546763 1694.529014 1698.772551 1703.243578
69.915000 1687.719132 1692.075973 1696.745087 1696.612943 1700.871075 1705.790476
69.990000 1689.839297 1694.078303 1698.942881 1698.726811 1702.987104 1707.751360
70.120000 1695.663262 1699.932330 1703.664775 1703.741434 1707.540003 1711.337674
70.200000 1698.525609 1702.794336 1706.729250 1706.420258 1709.977900 1713.681734
70.280000 1700.122049 1705.684220 1709.637731 1709.206819 1712.923242 1716.098915
70.360000 1701.988114 1708.526856 1712.362713 1711.909159 1715.441551 1718.304387
70.440000 1703.907582 1711.175236 1714.799928 1714.281614 1717.675414 1720.372244
70.525000 1706.798837 1713.283967 1716.969755 1716.457715 1719.849635 1722.816754
70.610000 1708.251774 1715.327381 1719.004671 1718.406271 1721.730918 1724.445812
70.720000 1710.720814 1717.633483 1721.244920 1720.742026 1724.018636 1726.728230
70.805000 1712.349746 1719.361509 1723.178141 1722.514199 1725.840872 1728.298994
70.890000 1714.154980 1721.010440 1724.915309 1724.218622 1727.470968 1729.702916
70.965000 1716.213634 1722.469075 1726.395369 1725.749115 1729.104774 1731.154570
71.040000 1718.311962 1723.976458 1727.696173 1727.222177 1730.529823 1732.758611
71.115000 1719.696097 1725.714634 1729.108771 1728.651160 1731.854836 1734.162676
71.190000 1720.949728 1727.200322 1730.474313 1730.018689 1733.233535 1735.428659
71.285000 1722.356054 1729.080825 1732.249273 1731.749388 1734.829632 1737.151149
71.380000 1723.906553 1730.786819 1733.949660 1733.437870 1736.414487 1738.833652
71.465000 1724.743792 1732.273859 1735.297620 1734.918137 1737.917478 1740.381821
71.550000 1726.931982 1733.857610 1736.854721 1736.441522 1739.407227 1742.080926
71.630000 1728.945996 1735.148226 1738.198645 1737.853558 1740.847361 1743.439497
71.710000 1730.514289 1736.476067 1739.564491 1739.264683 1742.087124 1744.899613
71.810000 1733.185954 1738.203166 1741.316559 1741.000136 1743.914635 1746.517329
71.910000 1735.349766 1739.862651 1743.108466 1742.794377 1745.781129 1748.546545
72.010000 1737.568619 1741.778519 1744.909112 1744.623381 1747.708907 1750.658916
72.150000 1740.165155 1744.076239 1747.261535 1747.042421 1750.113722 1752.559780
72.230000 1741.840292 1745.752081 1748.679996 1748.534799 1751.579842 1754.065632
72.310000 1743.649944 1747.487276 1750.100852 1750.050109 1752.900905 1755.280131
72.450000 1746.637645 1750.230925 1752.880988 1752.803865 1755.539552 1757.927477
72.525000 1747.803790 1751.846893 1754.457956 1754.437450 1757.111835 1760.307594
72.600000 1749.788349 1753.520578 1756.268411 1756.199675 1758.875581 1762.082354
72.710000 1754.076633 1756.689442 1759.492172 1759.786433 1763.167928 1766.402102
72.849000 1757.130763 1759.936091 1762.940153 1763.503765 1767.695524 1771.128010
72.860000 1757.517130 1760.181214 1763.188872 1763.784118 1768.090698 1771.584619
72.935000 1759.370430 1761.918611 1765.355469 1765.739164 1769.895504 1773.160031
73.010000 1761.394212 1763.876738 1767.353185 1767.653109 1771.493405 1774.810219
73.120000 1763.744147 1766.777425 1770.260999 1770.421538 1774.179053 1777.756660
73.230000 1766.654012 1769.590448 1773.409593 1773.411156 1777.129474 1780.555157
73.310000 1768.912184 1771.938200 1775.721237 1775.609474 1779.278272 1782.394491
73.395000 1770.834659 1774.329862 1778.327539 1778.054630 1781.802962 1784.771516
73.480000 1773.370198 1777.161970 1780.717917 1780.520346 1783.929174 1786.639284
73.620000 1777.563885 1780.873555 1784.007374 1784.004634 1787.326739 1789.948565
73.760000 1780.923254 1784.266729 1787.498932 1787.397573 1790.482744 1793.445652
73.860000 1783.192371 1786.424303 1789.741430 1789.534618 1792.521695 1795.320321
73.960000 1785.499055 1788.547853 1791.760761 1791.600297 1794.458910 1797.256610
74.060000 1788.261991 1790.629272 1793.825314 1793.666635 1796.473414 1799.050468
74.135000 1789.749057 1792.439161 1795.397892 1795.241522 1797.933062 1800.428236
74.210000 1791.482292 1794.303693 1796.932430 1796.873055 1799.422840 1802.214570
74.285000 1792.936316 1796.072128 1798.650477 1798.674094 1801.221792 1804.218449
74.360000 1795.352013 1798.023675 1800.273150 1800.531656 1803.101339 1806.417651
74.435000 1797.182387 1799.940868 1802.315121 1802.592088 1805.375451 1809.052745
74.510000 1799.421536 1801.817329 1804.597311 1804.748341 1807.603368 1811.250146
74.620000 1801.909234 1804.622086 1807.543455 1807.853911 1810.964099 1815.847648
74.730000 1804.599346 1807.307960 1810.747941 1811.032520 1814.488775 1820.132847
74.810000 1806.248102 1809.110070 1812.932225 1813.406416 1817.441843 1823.929751
74.895000 1808.119534 1811.152597 1815.412675 1816.062454 1821.265551 1826.940929
74.980000 1809.939589 1813.668795 1818.444030 1818.874861 1824.601655 1829.658529
75.110000 1812.248330 1817.544216 1824.035237 1823.504464 1829.162713 1832.974950
75.185000 1813.747431 1820.125001 1826.451876 1825.883524 1831.422187 1834.766852
75.260000 1815.578425 1822.819050 1828.876388 1828.132376 1833.388276 1836.332999
75.335000 1818.199297 1825.188139 1831.023892 1830.183317 1835.096782 1837.570601
75.410000 1821.725738 1827.808451 1832.959748 1832.242131 1836.594760 1838.884251
75.485000 1824.911846 1830.420155 1834.784875 1834.198312 1838.171803 1839.966717
75.560000 1828.330669 1832.666639 1836.625713 1836.189241 1839.596756 1841.161046
75.635000 1831.056276 1835.350911 1838.559043 1838.095432 1840.922897 1842.441183
75.710000 1833.582033 1837.842721 1840.460063 1840.007023 1842.162613 1843.502321
75.785000 1837.889671 1840.552284 1842.157013 1841.933554 1843.389124 1844.485197
75.860000 1841.843076 1842.826663 1843.740084 1843.749999 1844.701026 1845.626556
75.935000 1843.117863 1844.145711 1845.241043 1845.455343 1846.661597 1849.852570
76.010000 1844.171423 1845.290978 1846.656329 1847.136005 1848.994611 1852.627179
76.120000 1845.729334 1847.018746 1848.882317 1849.648822 1852.323269 1857.965565
76.230000 1847.193558 1848.856671 1851.450960 1852.273672 1855.831093 1862.666147
76.310000 1848.584820 1850.313173 1853.492667 1854.390617 1858.581077 1865.317418
76.395000 1850.112865 1852.177415 1856.476078 1857.100925 1862.232438 1867.431756
76.480000 1851.756124 1854.500501 1859.223008 1859.894703 1865.924405 1869.942906
76.610000 1855.224137 1860.232804 1866.585212 1865.695846 1870.516911 1872.254685
76.685000 1859.470122 1863.673921 1869.227176 1868.277130 1872.150873 1873.634118
76.760000 1861.987532 1867.885010 1871.636767 1870.830227 1873.592917 1874.906276
76.845000 1867.024847 1871.578815 1873.851593 1873.318820 1875.064604 1876.088835
76.930000 1873.784786 1874.631949 1875.554677 1875.579998 1876.511993 1877.445435
77.060000 1875.366518 1876.468441 1877.545913 1877.595058 1878.741690 1879.878240
77.145000 1876.402309 1877.593349 1878.776845 1878.806315 1880.055324 1881.284257
77.230000 1877.567264 1878.715280 1879.921701 1879.979689 1881.259345 1882.767849
77.360000 1879.146591 1880.231460 1881.606375 1881.606000 1882.928843 1884.392930
77.435000 1879.915919 1881.201371 1882.607073 1882.581086 1883.874694 1885.360143
77.510000 1880.933751 1882.191327 1883.542235 1883.559512 1884.907171 1886.240236
77.620000 1882.361564 1883.445127 1884.944038 1884.937786 1886.294225 1887.719894
77.730000 1883.575687 1884.860448 1886.296239 1886.288322 1887.710035 1889.145070
77.810000 1884.501684 1885.864250 1887.313717 1887.300018 1888.723681 1890.110312
77.910000 1885.699683 1887.185295 1888.603170 1888.589061 1889.954424 1891.271528
78.010000 1887.053896 1888.454740 1889.877386 1889.882337 1891.302696 1892.719488
78.110000 1888.177048 1889.700984 1891.205879 1891.152252 1892.526304 1893.896487
78.185000 1889.225567 1890.712487 1892.218944 1892.144483 1893.483783 1894.907847
78.260000 1890.246651 1891.720439 1893.153617 1893.130183 1894.466386 1895.954335
78.335000 1891.443179 1892.771020 1894.159693 1894.154672 1895.457471 1896.951408
78.410000 1892.544683 1893.838293 1895.136494 1895.163939 1896.485164 1897.959739
78.485000 1893.493039 1894.827480 1896.168763 1896.174315 1897.503749 1898.903093
78.560000 1894.426283 1895.789707 1897.181458 1897.153831 1898.463353 1899.934509
78.635000 1895.477394 1896.832526 1898.186379 1898.187976 1899.507888 1900.913788
78.710000 1896.635594 1897.983786 1899.287122 1899.285141 1900.631506 1901.966802
78.785000 1897.654821 1899.075766 1900.324607 1900.351705 1901.707729 1903.038354
78.860000 1898.732642 1900.142133 1901.371674 1901.439378 1902.792268 1904.118788
78.935000 1899.824074 1901.079398 1902.462348 1902.482438 1903.877349 1905.223258
79.010000 1900.776459 1902.025928 1903.469144 1903.516174 1904.961950 1906.376263
79.120000 1902.170656 1903.419882 1904.936362 1904.932245 1906.358052 1907.817223
79.230000 1903.339373 1904.863635 1906.300080 1906.337772 1907.817029 1909.439359
79.310000 1904.437158 1905.922117 1907.336065 1907.402558 1908.901443 1910.692550
79.395000 1905.406717 1907.005391 1908.478954 1908.523710 1910.048592 1911.856631
79.480000 1906.535816 1908.139171 1909.614612 1909.651011 1911.179184 1913.421559
79.620000 1908.196308 1909.923187 1911.419141 1911.470232 1913.150255 1915.204076
79.760000 1909.867220 1911.598323 1913.233000 1913.321746 1915.110743 1917.338476
79.835000 1910.741246 1912.609550 1914.361966 1914.412320 1916.280579 1918.404799
79.910000 1911.844695 1913.704050 1915.455605 1915.538290 1917.457392 1919.539671
79.985000 1912.759356 1914.894236 1916.683583 1916.770562 1918.700150 1920.990682
80.060000 1914.080064 1916.019132 1917.952355 1918.019070 1920.050458 1922.180227
80.110000 1914.804937 1916.846180 1918.845507 1918.891509 1920.952218 1923.038265
80.210000 1916.460275 1918.517308 1920.638953 1920.715976 1923.011737 1925.493486
80.285000 1917.784675 1919.780122 1922.002123 1922.161929 1924.548626 1927.333502
80.360000 1919.104449 1921.113329 1923.449228 1923.600574 1926.050124 1929.064569
80.490000 1921.104218 1923.586155 1925.945664 1926.161285 1928.825545 1931.840278
80.610000 1923.063397 1925.687639 1928.356775 1928.460164 1931.148114 1933.993208
80.730000 1925.370693 1928.022495 1930.800660 1930.848698 1933.759349 1936.747592
80.810000 1926.888408 1929.674159 1932.548833 1932.539091 1935.357718 1938.271116
80.895000 1928.728172 1931.438837 1934.246418 1934.390184 1937.423962 1940.055153
80.980000 1930.414160 1933.399221 1936.234872 1936.313250 1939.249861 1942.402901
81.090000 1933.183895 1936.245146 1939.137023 1939.209579 1942.381374 1945.516321
81.175000 1935.715950 1938.707009 1941.858234 1941.988078 1945.324700 1948.227700
81.260000 1938.703100 1941.769871 1944.807813 1944.895359 1948.176348 1951.373235
81.335000 1940.670371 1943.544399 1946.738218 1946.967794 1950.336098 1953.855834
81.410000 1942.809627 1945.429180 1948.807853 1948.930866 1952.484164 1956.096844
81.485000 1944.326095 1947.198558 1950.687315 1950.814238 1954.485090 1958.209379
81.560000 1945.697054 1948.773777 1952.547524 1952.643518 1956.455980 1959.873989
81.635000 1947.222417 1950.468937 1954.358096 1954.511278 1958.674107 1962.088101
81.710000 1948.747447 1952.518798 1956.215075 1956.470536 1960.719266 1964.213538
81.785000 1950.173111 1954.715882 1958.443586 1958.525767 1962.666000 1966.676456
81.860000 1951.769146 1956.688980 1960.744225 1960.623961 1964.580370 1968.478899
81.935000 1953.556813 1958.829484 1962.793270 1962.699406 1966.716016 1970.428275
82.010000 1955.823068 1961.112941 1965.168693 1964.885627 1968.971272 1972.093653
82.110000 1959.021577 1964.587814 1968.929039 1968.750126 1972.965359 1976.461522
82.210000 1963.950600 1968.522470 1972.987096 1972.623374 1976.657199 1980.177736
82.310000 1968.137935 1973.335046 1976.689910 1976.534070 1980.014558 1983.324319
82.385000 1970.628875 1975.667746 1978.918365 1978.744671 1982.195348 1985.361610
82.460000 1972.526910 1977.502848 1980.985346 1980.763560 1984.184840 1987.192599
82.535000 1973.823307 1979.677158 1983.128574 1982.865580 1986.213058 1989.071545
82.610000 1975.109836 1981.804442 1985.597577 1985.071897 1988.657368 1991.480999
82.700000 1977.684080 1984.075394 1987.805081 1987.361707 1990.797857 1993.705567
