depth(m) lower_95(kyr) lower_68(kyr) median(kyr) mean(kyr) upper_68(kyr) upper_95(kyr)
68.140000 1480.470557 1483.005185 1487.076012 1495.672552 1521.178629 1525.493303
68.225000 1481.372610 1483.851652 1487.720889 1496.483292 1521.917281 1526.074883
68.310000 1482.119735 1484.800638 1488.507896 1497.286454 1522.569992 1526.652740
68.450000 1483.312679 1485.987780 1489.533936 1498.554141 1523.639067 1527.601775
68.525000 1483.983564 1486.792568 1490.126958 1499.254136 1524.256071 1528.250788
68.600000 1484.619302 1487.425899 1490.756931 1499.952832 1524.913128 1528.738185
68.685000 1485.661985 1488.138126 1491.473715 1500.740443 1525.631377 1529.286827
68.770000 1486.361748 1488.755038 1492.044324 1501.511745 1526.362771 1529.935424
68.904286 1487.365498 1489.708685 1492.931247 1502.962607 1527.407469 1530.737484
69.038571 1488.505780 1490.571665 1493.695880 1504.355921 1528.361003 1531.599801
69.172857 1489.417129 1491.521331 1494.449466 1505.768283 1529.237764 1532.332323
69.307143 1490.417784 1492.498053 1495.258236 1507.176290 1530.188180 1533.097321
69.441429 1491.518817 1493.426987 1496.103267 1508.541232 1531.057530 1533.912088
69.575714 1492.512268 1494.388441 1496.935243 1509.911391 1531.949563 1534.658569
69.710000 1493.555551 1495.345803 1497.726783 1511.310187 1532.995044 1535.553325
69.810000 1494.410613 1495.995110 1498.428789 1512.155710 1533.860953 1535.984143
69.950000 1495.467044 1496.886185 1499.288280 1513.423469 1535.178340 1537.403693
70.056667 1496.163373 1497.571275 1499.922565 1514.246177 1536.218386 1538.396785
70.163333 1496.921717 1498.285435 1500.665875 1515.034292 1537.103738 1539.506523
70.270000 1497.659600 1498.976109 1501.294770 1515.819878 1537.892381 1540.385136
70.370000 1498.344433 1499.670530 1501.991275 1516.567296 1538.698771 1541.155114
70.492500 1499.065444 1500.423016 1502.804969 1517.457943 1539.765498 1542.006477
70.615000 1499.849022 1501.219406 1503.687702 1518.351441 1540.690636 1542.858240
70.737500 1500.529006 1502.021359 1504.535875 1519.243193 1541.572132 1543.671936
70.860000 1501.428735 1502.866187 1505.315361 1520.131850 1542.533459 1544.624257
70.985000 1502.246519 1503.719607 1506.283710 1521.076835 1543.513980 1545.745010
71.110000 1503.078203 1504.648985 1507.438717 1522.069939 1544.474105 1546.985741
71.216667 1503.846016 1505.467097 1508.732765 1523.018182 1545.295181 1547.887552
71.323333 1504.464461 1506.245597 1510.343323 1524.015651 1546.238361 1549.304825
71.430000 1505.189056 1506.972212 1511.775155 1525.015136 1547.171712 1550.616538
71.573333 1506.109292 1508.063439 1514.895739 1526.498618 1548.485467 1552.605194
71.716667 1506.960211 1509.203263 1517.891818 1527.968850 1550.018676 1554.023378
71.860000 1507.847256 1510.299993 1520.579528 1529.530364 1551.753678 1555.713558
71.985000 1508.797688 1511.767242 1522.753875 1530.963949 1553.436911 1557.832014
72.110000 1509.946021 1513.158166 1524.812570 1532.485371 1554.932872 1559.574231
72.245000 1511.727556 1515.109920 1526.274021 1534.324335 1556.946533 1561.697398
72.380000 1513.427346 1517.506722 1527.774726 1536.182100 1558.974381 1564.092290
72.515000 1515.789338 1519.979832 1529.156506 1538.059715 1561.276754 1565.976371
72.650000 1518.519018 1522.687968 1530.543722 1539.971311 1563.639127 1567.695621
72.785000 1521.057442 1524.970300 1531.870927 1541.746903 1565.568048 1569.044007
72.920000 1523.303491 1527.455709 1534.034640 1543.586720 1567.341491 1570.641944
73.046667 1525.145768 1529.378386 1536.851222 1545.111977 1568.394583 1571.908828
73.173333 1527.355224 1531.094026 1540.139335 1546.665163 1569.272145 1573.297127
73.300000 1528.860965 1532.828406 1542.634101 1548.140299 1570.151685 1574.643563
73.443000 1530.577952 1534.623977 1545.297013 1549.795684 1570.930657 1575.805179
73.586000 1532.361142 1536.560204 1547.100017 1551.438278 1571.690195 1576.925831
73.729000 1534.236639 1538.726595 1549.401027 1553.146856 1572.404403 1578.000771
73.872000 1536.397258 1540.906263 1551.425851 1554.742108 1573.165127 1579.032962
74.015000 1538.936275 1543.168625 1553.282989 1556.414206 1573.941936 1579.792600
74.158000 1540.260010 1545.535216 1555.211770 1558.021333 1574.616161 1580.950389
74.301000 1542.110920 1547.566510 1557.153863 1559.589621 1575.163461 1581.852586
74.444000 1544.335201 1549.856926 1559.278193 1561.229699 1575.906341 1582.930085
74.587000 1546.454304 1552.371240 1561.316507 1562.873942 1576.475813 1583.700569
74.730000 1548.962201 1554.423660 1563.035185 1564.522318 1577.127729 1584.575503
74.873000 1551.480185 1556.691551 1564.789601 1566.126254 1577.683091 1585.689971
75.016000 1553.966060 1558.950935 1566.542251 1567.733846 1578.427795 1586.526202
75.159000 1556.346381 1561.273740 1568.408141 1569.423749 1579.056219 1587.368997
75.302000 1558.797714 1563.528326 1569.946927 1571.058181 1579.723948 1588.340297
75.445000 1560.753477 1565.890509 1571.818382 1572.727695 1580.400941 1589.099838
75.588000 1562.778377 1568.321494 1573.478619 1574.340764 1581.102907 1590.060683
75.731000 1565.756893 1570.422389 1575.318122 1575.988428 1581.805956 1591.010736
75.874000 1568.292237 1572.834712 1576.967124 1577.610549 1582.372202 1591.906713
76.017000 1570.245596 1575.108184 1578.549089 1579.267574 1583.213293 1592.809558
76.160000 1573.130365 1577.527858 1580.120524 1580.973590 1584.072074 1593.774296
76.235000 1574.351457 1578.493226 1581.019911 1581.794161 1584.757285 1594.218663
76.310000 1575.557937 1579.592919 1581.965122 1582.658039 1585.472614 1594.712168
76.420000 1577.466731 1580.922432 1583.155531 1583.906713 1586.889708 1595.466526
76.530000 1579.362982 1582.156911 1584.396767 1585.210257 1588.626497 1595.940156
76.620000 1580.903020 1583.205963 1585.422765 1586.279898 1590.211043 1596.566136
76.710000 1582.016456 1584.358148 1586.497547 1587.413233 1591.678553 1597.261165
76.847500 1583.859667 1586.175779 1588.751867 1589.434779 1593.833604 1598.104780
76.985000 1585.188818 1588.016087 1591.277218 1591.485593 1595.913636 1599.080832
77.122500 1586.787590 1590.257640 1594.100201 1593.680449 1597.587718 1599.904678
77.260000 1588.418261 1592.595038 1596.423739 1595.697938 1598.936416 1600.769062
77.380000 1589.475559 1594.989337 1598.127794 1597.418995 1600.224471 1601.671861
77.500000 1591.001633 1597.756903 1599.820724 1599.147145 1601.441616 1602.651861
77.585000 1591.740065 1598.893658 1600.780453 1600.111285 1602.256356 1603.298116
77.670000 1592.548549 1599.828103 1601.678959 1600.994280 1602.978783 1603.880427
77.750000 1593.203149 1600.579360 1602.388699 1601.731962 1603.663382 1604.534500
77.830000 1594.118638 1601.410616 1603.110241 1602.449911 1604.288858 1605.113355
77.948000 1595.968359 1602.424679 1604.032096 1603.378875 1605.086201 1605.984990
78.066000 1598.202298 1603.234243 1604.852561 1604.251961 1605.878414 1606.714768
78.184000 1600.196427 1604.176978 1605.687571 1605.127456 1606.677905 1607.539175
78.302000 1601.956093 1605.095853 1606.480837 1606.001628 1607.477058 1608.330913
78.420000 1603.578608 1606.035541 1607.318258 1606.879868 1608.303904 1609.101839
78.510000 1604.524135 1606.784714 1607.958219 1607.559951 1608.927491 1609.692433
78.600000 1605.445871 1607.469537 1608.583053 1608.229985 1609.482653 1610.343197
78.710000 1606.320029 1608.273484 1609.446422 1609.104184 1610.370169 1611.307034
78.813333 1607.392731 1609.070747 1610.182479 1609.951922 1611.221643 1612.542247
78.916667 1608.249719 1609.842180 1610.927721 1610.784840 1612.115012 1613.835782
79.020000 1609.286111 1610.650167 1611.749069 1611.633852 1612.940629 1615.035241
79.162500 1610.282998 1611.712448 1612.831202 1612.779680 1614.145107 1616.558404
79.305000 1611.334022 1612.676022 1613.860934 1613.934486 1615.538068 1617.616198
79.447500 1612.335818 1613.786591 1614.954072 1615.081859 1616.700798 1619.242206
79.590000 1613.430056 1614.839487 1616.177332 1616.285621 1618.005580 1620.410033
79.732500 1614.459875 1615.932010 1617.326487 1617.452124 1619.304862 1621.765820
79.875000 1615.572615 1616.985606 1618.441409 1618.643446 1620.588168 1622.929202
80.017500 1616.878779 1618.058220 1619.689738 1619.879191 1621.780957 1624.241104
80.160000 1618.093775 1619.356636 1620.973064 1621.136857 1622.962700 1625.308918
80.296667 1618.970512 1620.461435 1622.002724 1622.254213 1624.332091 1626.336768
80.433333 1619.883200 1621.518721 1623.167690 1623.389359 1625.601959 1627.413551
80.570000 1620.829037 1622.642607 1624.343960 1624.594834 1626.916628 1628.702803
80.690000 1621.956893 1623.621346 1625.377098 1625.685201 1628.065334 1629.717362
80.810000 1623.107387 1624.611470 1626.534080 1626.805879 1629.199442 1630.704850
80.900000 1623.845976 1625.472990 1627.664677 1627.706411 1629.993588 1631.738316
80.990000 1624.444282 1626.388798 1628.643060 1628.618872 1630.819876 1633.012558
81.000000 1624.559285 1626.492271 1628.793593 1628.728157 1630.912193 1633.207655
81.095000 1625.767391 1627.568283 1630.332479 1630.035242 1632.132830 1634.624686
81.190000 1626.854666 1628.699886 1631.628961 1631.354976 1633.693458 1635.979641
81.290000 1627.843435 1629.718518 1632.736943 1632.610447 1635.167623 1637.501902
81.390000 1628.642513 1630.737130 1633.969379 1633.797121 1636.599854 1638.550935
81.475000 1629.371917 1631.628686 1635.082953 1634.788930 1637.636910 1639.364593
81.560000 1630.104900 1632.512395 1636.227788 1635.754158 1638.586547 1640.211071
81.610000 1630.541731 1633.029831 1636.831988 1636.309670 1639.100004 1640.509327
81.730000 1631.720725 1634.678130 1638.290926 1637.603255 1640.155490 1641.348043
81.830000 1632.653495 1635.667203 1639.411606 1638.671780 1641.094204 1642.471756
81.850000 1632.865395 1635.925938 1639.611755 1638.877278 1641.272328 1642.662009
81.930000 1633.603630 1636.727793 1640.315798 1639.622057 1641.894518 1643.306098
82.010000 1634.722270 1637.688318 1640.937289 1640.359823 1642.539489 1643.979566
82.135000 1636.595610 1639.267881 1642.017435 1641.560238 1643.498698 1645.150766
82.260000 1638.275126 1640.739304 1642.958294 1642.738732 1644.485446 1646.463597
82.390000 1639.867378 1642.184498 1644.109743 1643.985894 1645.748609 1647.956500
82.520000 1641.336663 1643.436296 1645.194738 1645.220426 1646.989456 1649.154599
82.615000 1642.614200 1644.334895 1646.030679 1646.135048 1647.963918 1650.588047
82.710000 1643.487228 1645.198121 1646.794407 1647.031923 1648.807067 1651.755638
82.750000 1643.901275 1645.582329 1647.206077 1647.436653 1649.294962 1652.208456
82.875000 1645.076531 1646.670539 1648.274268 1648.629390 1650.787811 1653.816015
83.000000 1645.842928 1647.665224 1649.349097 1649.716073 1652.139820 1654.981882
83.125000 1646.871901 1648.632222 1650.317391 1650.794101 1653.339500 1656.258247
83.250000 1647.868564 1649.512384 1651.413453 1651.860080 1654.530351 1657.436093
83.395000 1648.833388 1650.513937 1652.539636 1653.049343 1655.930978 1659.063554
83.540000 1649.992671 1651.646304 1653.726664 1654.328746 1657.327733 1660.691495
83.640000 1650.790536 1652.425205 1654.623270 1655.239569 1658.309095 1661.786777
83.740000 1651.614033 1653.302843 1655.704769 1656.174792 1659.196734 1662.660837
83.840000 1652.452711 1654.130366 1656.666108 1657.134190 1660.057935 1663.858229
83.980000 1653.629410 1655.364110 1658.021551 1658.541024 1661.787968 1665.789251
84.120000 1654.567442 1656.517410 1659.341990 1659.979171 1663.358601 1669.301063
84.260000 1655.619454 1657.758868 1660.817343 1661.498815 1664.982340 1672.224010
84.400000 1656.984416 1659.075387 1662.460058 1663.114687 1666.684918 1675.271499
84.540000 1658.165810 1660.395366 1664.013793 1664.753050 1668.672073 1678.843624
84.645000 1659.083502 1661.403912 1665.062176 1666.093749 1670.456886 1680.041728
84.750000 1660.275582 1662.540225 1666.467666 1667.486998 1671.880481 1681.781399
84.850000 1661.183272 1663.665827 1667.805148 1668.999044 1674.259826 1683.416486
84.950000 1661.811839 1664.720751 1669.176986 1670.464307 1676.238650 1685.402070
85.050000 1662.559428 1665.703224 1670.677817 1672.022149 1678.494706 1687.205569
85.150000 1663.236289 1666.711610 1672.111232 1673.461747 1680.794725 1688.972718
85.250000 1664.039928 1667.605696 1673.628468 1674.934475 1682.605517 1690.692514
85.350000 1664.815566 1668.496525 1675.335159 1676.445589 1684.939511 1692.120455
85.480000 1665.694524 1669.713686 1677.534402 1678.655763 1688.189044 1694.360982
85.610000 1666.588187 1671.010820 1679.533488 1680.817362 1691.155428 1696.892537
85.640000 1666.891110 1671.414417 1679.997524 1681.198176 1691.577254 1697.189317
85.765000 1667.836845 1673.549458 1682.677394 1683.163609 1692.955319 1698.745648
85.890000 1668.637408 1675.430500 1685.456232 1685.092634 1694.078346 1700.607696
86.015000 1670.073373 1677.686667 1687.692785 1686.968700 1695.317582 1702.721283
86.140000 1671.531934 1680.133205 1689.628850 1688.864913 1696.473612 1704.430791
86.250000 1672.887098 1681.994762 1691.116816 1690.329676 1697.565571 1705.592726
86.395000 1674.516984 1684.803334 1692.709880 1692.329315 1699.087600 1708.227893
86.540000 1677.535192 1687.539907 1694.178016 1694.265614 1700.671705 1710.709803
86.643333 1678.897570 1689.124460 1695.191140 1695.488000 1701.944829 1712.158396
86.746667 1680.444072 1690.544640 1696.244039 1696.623929 1702.973104 1713.495269
86.850000 1681.553569 1691.752553 1697.243757 1697.711398 1704.165308 1715.296695
86.956667 1683.510883 1692.803921 1698.288666 1698.785322 1705.273144 1717.571483
87.063333 1684.718279 1693.791632 1699.255990 1699.813958 1706.383653 1720.318004
87.170000 1686.385587 1694.719728 1699.956880 1700.817564 1707.359159 1722.119442
87.315000 1688.789359 1695.773171 1701.146375 1702.153011 1708.640186 1723.989572
87.460000 1691.793138 1696.928948 1702.128073 1703.491089 1710.143235 1725.308601
87.555000 1693.198376 1697.761973 1702.884703 1704.386491 1711.238231 1726.631707
87.650000 1694.460196 1698.425588 1703.640764 1705.266578 1712.485155 1727.831669
87.750000 1695.245066 1699.172252 1704.375563 1706.230779 1713.857852 1728.780241
87.850000 1696.589710 1699.897702 1705.247252 1707.184394 1715.084264 1730.010966
87.950000 1697.409064 1700.684559 1705.942238 1708.170671 1716.468182 1731.802323
88.050000 1698.198658 1701.380987 1706.834347 1709.167103 1717.855075 1732.780258
88.195000 1699.219806 1702.389839 1707.914517 1710.725968 1721.570976 1735.475697
88.340000 1700.226727 1703.371733 1708.942889 1712.301047 1725.005078 1737.490060
88.440000 1701.063412 1704.076092 1709.939010 1713.332843 1726.920885 1738.741942
88.540000 1701.911863 1704.760020 1710.763281 1714.375523 1728.827876 1739.860868
88.640000 1702.653325 1705.486569 1711.591265 1715.408049 1730.671642 1741.005133
88.743333 1703.524987 1706.285881 1712.397425 1716.511214 1732.637114 1741.949498
88.846667 1704.271501 1707.068737 1713.335912 1717.670015 1735.122374 1743.030319
88.950000 1705.031768 1707.825735 1714.265303 1718.761286 1737.030091 1744.025919
89.045000 1705.753935 1708.599100 1715.106197 1719.780329 1738.791360 1744.951525
89.140000 1706.607759 1709.283804 1716.030494 1720.804580 1740.303400 1746.367701
89.250000 1707.445109 1710.198050 1717.086379 1721.949130 1741.975961 1748.053421
89.375000 1708.361644 1711.299738 1718.244077 1723.280240 1743.337622 1749.692624
89.500000 1709.197296 1712.346157 1719.590821 1724.667466 1744.863149 1751.666157
89.600000 1710.029055 1713.312639 1720.692902 1725.784045 1745.648127 1753.226764
89.700000 1710.946335 1714.584028 1721.716567 1726.920096 1746.711939 1755.529030
89.800000 1711.897453 1715.625158 1722.886692 1728.110153 1747.797899 1757.599329
89.930000 1713.541148 1717.474170 1724.229740 1729.921177 1748.914103 1761.876193
90.060000 1715.036616 1719.169969 1725.566182 1731.633952 1749.852054 1766.371758
90.190000 1716.770024 1721.218321 1726.946375 1733.451039 1751.000667 1770.878138
90.320000 1719.273412 1722.933645 1728.416470 1735.348189 1752.606422 1775.501654
90.450000 1720.766447 1724.823674 1729.839613 1737.141930 1753.725324 1778.328779
90.535000 1721.598162 1725.795214 1730.686512 1738.201376 1754.626705 1779.805456
90.620000 1722.520771 1726.775893 1731.677334 1739.221366 1756.017029 1781.182727
90.750000 1723.855139 1728.293187 1733.111803 1740.811158 1758.198288 1782.459500
90.875000 1725.724152 1729.734688 1734.566884 1742.524064 1761.712467 1783.524292
91.000000 1727.604052 1731.076081 1735.894710 1744.248498 1765.332850 1784.578259
91.116667 1728.631850 1732.511993 1736.969833 1746.079407 1770.949645 1785.509794
91.233333 1729.525979 1733.937449 1738.166464 1747.868198 1775.839394 1786.435577
91.350000 1731.055423 1735.279854 1739.484353 1749.593063 1780.099405 1787.269160
91.450000 1732.341853 1736.535387 1740.496269 1750.904435 1781.782947 1788.079335
91.550000 1733.778583 1737.724511 1741.473541 1752.180259 1783.765804 1788.967091
91.650000 1734.991692 1738.806996 1742.421083 1753.351520 1785.046963 1789.816384
91.783333 1736.585797 1740.290710 1743.767449 1754.922125 1786.241125 1790.878958
91.916667 1738.725431 1741.977261 1744.911457 1756.487340 1787.612793 1791.989715
92.050000 1740.348603 1743.343432 1746.139070 1758.080046 1789.332465 1793.107103
92.150000 1741.562873 1744.399110 1747.092174 1759.210629 1790.733138 1793.897718
92.250000 1742.920875 1745.466065 1748.019173 1760.359272 1792.122617 1794.995953
92.355000 1744.083084 1746.629543 1749.063750 1761.505955 1793.294824 1795.957604
92.460000 1745.260913 1747.726748 1750.079285 1762.587254 1794.354107 1797.148088
92.563333 1746.438167 1748.738482 1751.083590 1763.614335 1795.343580 1798.168798
92.666667 1747.455545 1749.764937 1752.085226 1764.656442 1796.421724 1799.126488
92.770000 1748.579900 1750.805765 1753.088424 1765.701071 1797.344050 1800.201071
92.890000 1749.845305 1752.022442 1754.364570 1766.941118 1798.506229 1801.494361
93.010000 1751.014402 1753.140408 1755.646143 1768.161278 1799.647905 1802.920125
93.123333 1752.087792 1754.182937 1756.859071 1769.326542 1800.687724 1804.126085
93.236667 1753.169264 1755.217533 1758.010250 1770.501540 1801.871352 1805.270269
93.350000 1754.474678 1756.367821 1759.364842 1771.703989 1802.826204 1806.411997
93.463333 1755.519164 1757.391538 1760.608296 1772.877031 1803.794273 1807.838996
93.576667 1756.559409 1758.389126 1761.870475 1774.040157 1804.882276 1809.143122
93.690000 1757.425586 1759.446348 1763.043545 1775.179471 1805.927359 1810.258577
93.793333 1758.374990 1760.336231 1764.148321 1776.229160 1806.851480 1811.243613
93.896667 1759.161092 1761.356507 1765.160522 1777.287980 1807.984306 1812.393462
94.000000 1759.978611 1762.274163 1766.032525 1778.316263 1809.080255 1813.454046
94.125000 1761.118162 1763.345148 1767.302607 1779.541351 1810.282196 1815.062674
94.250000 1762.036300 1764.492681 1768.577113 1780.778339 1811.287122 1816.452476
94.356667 1762.922441 1765.474612 1769.570901 1781.871012 1812.374474 1817.778980
94.463333 1763.646010 1766.408609 1770.554034 1782.951949 1813.462114 1818.960477
94.570000 1764.877056 1767.426766 1771.664365 1784.105872 1814.633831 1820.237758
94.705000 1765.949454 1768.672860 1773.259281 1785.663754 1815.874637 1822.295445
94.840000 1767.159406 1770.033500 1774.817155 1787.214542 1817.234093 1823.987604
94.970000 1768.379698 1771.227339 1776.625766 1788.882220 1819.199198 1825.526570
95.100000 1769.657364 1772.453166 1778.287838 1790.582086 1820.830341 1827.135349
95.220000 1771.000154 1773.752063 1780.161316 1792.327252 1822.771743 1828.730857
95.340000 1772.180592 1774.961312 1782.689400 1794.184564 1824.171840 1830.171434
95.460000 1773.414492 1776.273092 1785.847619 1796.173077 1826.117766 1831.684949
95.605000 1774.741693 1778.085392 1790.865995 1799.011849 1827.998765 1833.177014
95.750000 1776.270363 1779.744413 1798.674864 1801.942814 1830.067580 1835.196970
95.853333 1777.462462 1781.152612 1800.464173 1803.718207 1831.287969 1836.601461
95.956667 1778.563575 1782.684299 1802.483980 1805.502203 1832.463137 1837.875234
96.060000 1779.893370 1784.373516 1804.528857 1807.333466 1833.766594 1839.152204
