depth(m) lower_95(kyr) lower_68(kyr) median(kyr) mean(kyr) upper_68(kyr) upper_95(kyr)
34.600000 1495.265797 1499.030107 1501.666579 1501.332120 1503.576573 1505.239632
34.650000 1499.338988 1502.026238 1504.093085 1504.009481 1505.943234 1507.575851
34.700000 1503.004866 1505.096070 1507.243810 1507.510622 1509.820285 1513.613866
34.750000 1505.515497 1507.331082 1509.652032 1510.156662 1512.885022 1518.184783
34.800000 1507.962408 1509.802349 1512.639153 1513.223341 1516.859310 1521.657221
34.850000 1509.766984 1512.106982 1515.789499 1516.380542 1521.135177 1524.161069
34.900000 1512.092371 1515.276400 1520.455623 1519.916583 1524.209274 1526.028009
34.950000 1514.729869 1519.809808 1524.189715 1523.390473 1526.340686 1527.702406
35.000000 1520.085372 1524.403636 1526.866498 1526.403140 1528.417266 1529.606491
35.050000 1524.589620 1527.324023 1528.891797 1528.674224 1530.042360 1531.255757
35.100000 1527.519799 1529.320662 1530.567480 1530.493174 1531.589943 1532.689472
35.150000 1529.590156 1530.986955 1532.090991 1532.089941 1533.140639 1534.291811
35.200000 1531.562293 1532.609250 1533.626651 1533.682563 1534.686408 1535.823997
35.250000 1533.234640 1534.298039 1535.301218 1535.392955 1536.394090 1537.930575
35.350000 1535.494694 1536.837675 1538.179228 1538.260560 1539.504332 1541.396086
35.400000 1537.105531 1538.450394 1539.680198 1539.779012 1541.022265 1542.869597
35.500000 1540.286994 1541.566976 1542.853169 1542.965499 1544.271968 1546.319209
35.550000 1542.073914 1543.350734 1544.598928 1544.838553 1546.247720 1549.074392
35.600000 1544.445111 1545.701156 1547.060744 1547.595353 1549.433425 1553.085774
35.650000 1546.386225 1547.687042 1549.599643 1550.151501 1552.545495 1556.709130
35.700000 1548.259914 1549.527381 1551.918050 1552.411775 1555.222898 1559.563632
35.750000 1549.717371 1551.294586 1554.054458 1554.563250 1557.482161 1562.512568
35.800000 1551.461240 1553.361654 1556.269245 1556.831716 1559.936841 1565.870213
35.830000 1552.726509 1554.842829 1557.756572 1558.385603 1561.876860 1567.387386
35.880000 1554.596621 1556.948572 1560.552250 1561.323587 1565.587597 1570.528256
35.930000 1556.765146 1559.487295 1564.462050 1564.660759 1568.782652 1581.393970
36.030000 1560.660328 1582.203122 1585.943768 1583.449333 1588.100030 1589.968978
36.080000 1562.480146 1585.809237 1588.357408 1586.108785 1590.398055 1591.999130
36.130000 1564.087955 1587.769140 1590.433068 1588.191970 1592.225626 1593.927228
36.180000 1566.125579 1589.446108 1592.219317 1590.241528 1594.054186 1596.002545
36.230000 1567.689453 1591.391370 1593.908005 1592.125754 1595.996499 1597.960205
36.280000 1570.124128 1593.736403 1595.779060 1594.247777 1597.552612 1599.483271
36.380000 1594.773496 1598.138146 1599.669687 1599.504550 1601.299393 1602.570135
36.430000 1598.097540 1600.145665 1601.729667 1601.562988 1603.130437 1604.416673
36.480000 1600.582383 1602.111278 1603.639577 1603.490978 1604.955228 1606.071370
36.530000 1602.312318 1603.990207 1605.475007 1605.329881 1606.658311 1607.608651
36.580000 1604.157184 1605.935573 1607.300576 1607.181469 1608.397657 1609.385962
36.630000 1606.369619 1607.832817 1609.019574 1608.935547 1610.026534 1611.091311
36.680000 1608.531966 1610.022930 1610.980709 1610.970589 1611.894935 1612.994364
36.730000 1611.074278 1611.981274 1612.997529 1613.042034 1614.064987 1615.360528
36.780000 1612.651447 1613.695070 1614.741958 1614.922481 1616.128469 1617.884059
36.830000 1614.418883 1615.394145 1616.640664 1616.966785 1618.246949 1622.266708
36.880000 1616.118879 1617.147979 1618.544290 1619.128079 1621.067406 1625.804140
36.930000 1617.674747 1618.822012 1620.604219 1621.419005 1624.264330 1629.209447
36.980000 1619.068311 1620.526240 1623.115126 1623.951873 1627.842204 1631.556149
37.030000 1620.574527 1622.350006 1626.363148 1626.626956 1630.947604 1633.691026
37.080000 1622.309492 1624.188049 1629.995418 1629.312044 1633.705493 1636.042058
37.130000 1623.908104 1626.167851 1632.688334 1631.653455 1636.032276 1638.331309
37.180000 1625.577236 1628.539958 1634.899875 1633.834065 1638.252632 1640.588270
37.230000 1627.640626 1631.404608 1637.088207 1636.091694 1639.996766 1642.172813
37.280000 1630.182990 1634.211806 1639.156778 1638.380544 1641.809941 1643.950967
37.330000 1634.015653 1637.492025 1641.264542 1640.823193 1643.664253 1646.201583
37.380000 1638.933030 1641.307390 1643.935434 1643.923368 1646.325996 1649.720458
37.430000 1641.452905 1643.848506 1646.228620 1646.483985 1648.941811 1653.507597
37.480000 1643.749525 1646.071760 1648.883497 1649.226785 1652.303472 1656.617907
37.580000 1647.274936 1650.341563 1654.362555 1654.441570 1658.624827 1661.678203
37.630000 1649.318892 1652.491307 1657.417378 1657.101430 1661.210544 1663.903094
37.680000 1651.684563 1655.370354 1660.403377 1659.757406 1663.477761 1667.215075
37.730000 1654.800650 1658.443305 1662.698432 1662.471556 1666.069915 1670.182708
37.780000 1659.951527 1662.818149 1665.923284 1666.266132 1669.706983 1675.000896
37.830000 1662.443282 1665.222757 1668.328320 1668.935955 1672.932389 1678.729158
37.880000 1664.604101 1667.538230 1670.719687 1671.492640 1675.841620 1682.383829
37.930000 1666.506694 1669.591414 1673.199201 1674.110765 1679.228200 1685.847024
37.980000 1668.329420 1671.572400 1675.941491 1676.712703 1681.849162 1688.733219
38.030000 1670.024259 1673.732025 1679.103411 1679.385654 1684.700599 1691.005415
38.080000 1672.716523 1676.397217 1682.067856 1682.168895 1687.408326 1693.608999
38.130000 1675.529232 1679.224333 1684.901114 1684.920330 1690.004846 1696.175305
38.180000 1678.248479 1682.533714 1687.667948 1687.639464 1692.336499 1699.054302
38.230000 1680.659499 1685.670937 1689.970256 1690.168933 1694.375137 1702.047027
38.280000 1683.820458 1688.702624 1692.104609 1692.638788 1696.661928 1705.345772
38.330000 1686.574815 1690.801953 1694.002789 1694.774859 1698.567482 1709.484106
38.380000 1689.017651 1692.674504 1695.629621 1696.681504 1700.362611 1712.549096
38.430000 1691.586154 1694.497019 1697.274888 1698.622763 1702.275445 1716.925604
38.480000 1693.997309 1696.176805 1698.961738 1700.622902 1704.570843 1719.343883
38.530000 1695.646203 1697.705300 1700.409094 1702.569862 1706.991791 1723.346255
38.580000 1697.360849 1699.237795 1702.112798 1704.512218 1709.158287 1726.396967
38.630000 1698.742869 1700.820802 1703.687124 1706.489398 1711.706596 1728.861004
38.680000 1700.029543 1702.190691 1705.280763 1708.599378 1715.481858 1732.141070
38.730000 1701.471588 1703.512608 1707.049563 1710.988877 1722.209638 1734.976642
38.780000 1702.931082 1704.903984 1708.967043 1713.590984 1726.444342 1738.190066
38.830000 1704.300255 1706.351797 1711.089379 1716.579965 1730.654018 1740.662178
38.880000 1705.812921 1707.882974 1714.282995 1719.766794 1737.811015 1742.739850
38.930000 1707.129542 1709.485932 1718.756426 1723.048212 1740.640563 1744.420528
38.980000 1708.523899 1711.025757 1723.826786 1726.281717 1743.211922 1745.809025
39.030000 1710.012907 1712.745141 1727.798445 1729.230530 1745.127435 1747.332984
39.080000 1711.527292 1715.004731 1734.310038 1731.981128 1746.700345 1748.828111
39.130000 1713.491146 1718.647533 1739.975860 1734.919929 1748.317963 1750.250816
39.200000 1716.667864 1724.696807 1744.469030 1739.427635 1750.324048 1752.101623
39.250000 1719.198859 1727.973273 1747.073414 1742.258217 1751.901294 1753.529809
39.300000 1722.889811 1730.391291 1749.596941 1744.752683 1753.484723 1755.154836
39.350000 1726.066867 1733.537265 1751.960516 1747.277110 1755.135621 1757.029613
39.400000 1729.056724 1736.854296 1754.045874 1749.619990 1756.843101 1758.483662
39.450000 1732.219645 1741.001745 1755.835398 1752.047337 1758.474539 1760.320642
39.500000 1734.930649 1746.615739 1757.612780 1754.542411 1760.170250 1762.311303
39.550000 1737.768649 1751.666937 1759.577543 1757.174937 1761.912998 1763.863648
39.650000 1755.634579 1760.487264 1763.206749 1762.768726 1765.267753 1767.303963
39.700000 1759.650893 1762.774371 1765.050844 1764.903884 1767.177234 1768.912279
39.750000 1762.194636 1764.784818 1766.913439 1766.850820 1768.958767 1770.894776
39.800000 1764.184642 1766.716267 1768.712656 1768.721559 1770.798047 1772.665237
39.850000 1766.184143 1768.485726 1770.586188 1770.517905 1772.676417 1774.678152
39.900000 1768.329875 1770.316320 1772.322743 1772.359223 1774.484261 1776.485088
39.950000 1770.206834 1772.129844 1774.137023 1774.181782 1776.237969 1778.298840
40.000000 1771.848005 1773.981037 1776.021635 1776.054063 1778.047845 1780.216452
40.050000 1773.724955 1775.868774 1777.947718 1778.021887 1780.216518 1782.288812
40.100000 1775.788629 1777.590808 1779.817043 1779.857370 1782.149000 1784.203167
40.150000 1777.616518 1779.462339 1781.723415 1781.729363 1784.037464 1785.918390
40.200000 1779.572151 1781.377717 1783.564750 1783.632848 1785.855889 1788.076059
40.250000 1781.818304 1783.582858 1785.830666 1785.912227 1788.082619 1790.449557
40.300000 1783.818196 1786.144240 1788.449580 1788.495990 1790.813279 1793.458392
40.350000 1786.958873 1789.348761 1791.415881 1791.588356 1793.866954 1796.483429
40.400000 1790.091209 1792.486367 1794.660329 1794.619600 1796.733328 1799.062897
40.450000 1792.778305 1796.097160 1798.028887 1798.042086 1800.153147 1802.967002
40.500000 1796.212502 1798.942608 1800.869398 1801.024551 1803.241873 1806.809405
40.550000 1799.615331 1801.575970 1803.669509 1804.013850 1806.617691 1810.137107
40.600000 1801.665587 1803.682113 1805.912020 1806.354924 1809.035555 1813.720308
40.650000 1803.481632 1805.472708 1807.930342 1808.512170 1811.387763 1816.644733
40.700000 1805.054676 1807.058336 1809.759697 1810.497105 1813.802576 1820.144573
40.750000 1806.803570 1808.809379 1811.699925 1812.607268 1816.227110 1824.928461
40.800000 1808.490280 1810.539020 1813.692824 1814.927507 1819.252521 1828.984084
40.850000 1810.179554 1812.140690 1815.768267 1817.405378 1823.482240 1831.427738
40.900000 1811.665168 1813.998430 1818.038807 1820.016634 1827.426799 1833.900932
40.950000 1813.447668 1815.939786 1821.282312 1822.904123 1830.569720 1836.367109
41.000000 1815.423526 1818.042802 1825.703910 1825.798219 1833.540780 1839.000843
41.050000 1817.160449 1820.521359 1829.393732 1828.782774 1836.408513 1841.804218
41.100000 1819.770060 1824.045607 1832.525053 1832.009464 1839.449814 1844.993064
41.150000 1822.716866 1828.077474 1836.247045 1835.501080 1842.146682 1848.365507
41.200000 1825.497221 1831.677588 1839.017725 1838.767726 1844.860986 1852.725831
41.250000 1828.327597 1835.210457 1842.218415 1841.903673 1847.492878 1856.986336
41.300000 1831.671274 1838.662850 1844.936594 1844.927705 1850.314519 1861.189688
41.350000 1834.584551 1842.174903 1847.577968 1847.901817 1852.993780 1864.038818
41.400000 1838.232230 1845.531751 1850.390009 1850.939807 1856.340884 1867.703957
41.450000 1842.536130 1848.281915 1853.175940 1854.173896 1860.386484 1870.595575
41.500000 1846.341468 1851.586201 1856.568169 1857.646723 1864.630912 1872.287209
41.550000 1850.042292 1855.171938 1860.296166 1861.304663 1868.302429 1873.934806
41.600000 1854.853437 1859.325325 1864.945132 1865.124185 1871.537341 1875.802449
41.650000 1857.783962 1863.158686 1869.048133 1868.724506 1874.377738 1877.888366
41.700000 1861.831235 1867.164691 1872.568654 1872.114052 1877.264913 1879.960825
41.750000 1866.984009 1871.433249 1876.360231 1875.775987 1880.040789 1882.145084
41.800000 1870.135308 1875.339134 1879.604826 1878.986473 1882.506900 1884.571712
41.850000 1874.824177 1879.302073 1882.535178 1882.105901 1884.915561 1887.129674
41.900000 1878.085204 1882.391796 1885.012998 1884.610907 1886.969506 1888.840460
41.950000 1881.338417 1884.725737 1887.122866 1886.782548 1888.848264 1890.483604
42.000000 1883.873693 1886.707872 1888.867001 1888.641439 1890.503216 1891.988964
42.050000 1886.089594 1888.656058 1890.562815 1890.390821 1892.127775 1893.649703
42.100000 1888.193503 1890.385777 1892.230680 1892.150185 1893.875065 1895.387193
42.150000 1890.391077 1892.393796 1893.954482 1893.971957 1895.616619 1897.337719
42.200000 1892.707386 1894.217680 1895.858097 1895.927156 1897.454159 1899.845693
42.250000 1894.724319 1896.106477 1897.761995 1898.066933 1899.809422 1904.316367
42.300000 1896.141644 1897.785758 1899.459631 1900.166499 1902.546964 1908.689174
42.350000 1897.821496 1899.577672 1901.470464 1902.378712 1905.523950 1910.759521
42.400000 1899.771698 1901.642501 1904.003038 1904.924612 1908.948916 1913.349836
42.450000 1902.217062 1904.614248 1907.297140 1907.786672 1911.327462 1915.149527
42.500000 1905.456260 1908.207586 1911.338920 1911.316082 1914.492528 1917.409506
42.550000 1908.232538 1911.348611 1913.972134 1913.977995 1916.691018 1919.160276
42.600000 1910.936799 1913.670613 1916.126573 1916.152455 1918.716278 1920.968097
42.650000 1912.908104 1915.457061 1918.035336 1918.003486 1920.448576 1922.804777
42.700000 1914.949327 1917.189346 1919.688399 1919.702596 1922.178758 1924.679239
42.750000 1916.794838 1918.957564 1921.443351 1921.442776 1923.957616 1926.277824
42.800000 1918.490384 1920.623122 1923.148318 1923.185933 1925.711882 1928.286318
42.850000 1920.150194 1922.333398 1924.822957 1924.911289 1927.467109 1930.671885
42.900000 1921.650776 1924.035862 1926.569549 1926.654293 1929.290423 1932.296047
42.950000 1923.349830 1925.776542 1928.341048 1928.473323 1931.172237 1934.399653
43.000000 1924.822495 1927.378610 1930.143885 1930.302618 1933.194130 1936.368658
43.050000 1926.628715 1929.048376 1931.950000 1932.117476 1935.075098 1938.869925
43.100000 1928.262988 1930.785989 1933.753055 1934.043579 1937.211151 1941.352852
43.150000 1930.120103 1932.677410 1935.741878 1936.149360 1939.545115 1944.471631
43.200000 1931.975625 1934.703005 1937.864074 1938.467336 1942.310990 1949.675707
43.250000 1933.621011 1936.611086 1940.306931 1941.514675 1946.462355 1955.622669
43.300000 1935.301586 1938.804254 1942.885974 1944.756791 1952.567323 1959.649599
43.350000 1937.657474 1940.965366 1946.930363 1948.472584 1957.382082 1962.765009
43.400000 1940.049963 1944.234960 1953.368828 1952.855837 1961.205169 1965.319915
43.450000 1943.033515 1948.719554 1958.794537 1957.278751 1964.368900 1967.634133
43.500000 1946.212188 1955.022888 1962.591169 1961.234285 1967.280798 1969.598967
43.550000 1949.821059 1960.135367 1965.995852 1964.889674 1969.644084 1971.677346
43.600000 1955.919626 1964.133833 1968.912061 1968.050600 1971.919069 1974.382993
43.650000 1959.427947 1967.183714 1971.352472 1970.692942 1974.157547 1977.170268
43.700000 1964.227554 1969.523144 1973.264749 1972.860960 1976.098191 1979.437903
43.750000 1967.209992 1971.792913 1975.004462 1974.851507 1978.034500 1981.465701
43.800000 1971.470821 1974.351894 1977.046629 1977.029598 1979.879486 1983.192184
43.850000 1973.841844 1976.567558 1979.115638 1979.159193 1981.851053 1984.921515
43.900000 1975.911100 1978.509434 1981.161063 1981.245895 1984.116962 1987.040553
43.950000 1978.375137 1980.805103 1983.402185 1983.529157 1986.396044 1989.487092
44.000000 1980.827720 1983.355120 1986.251984 1986.394908 1989.560252 1993.355183
44.050000 1983.614332 1986.450106 1989.898774 1990.439857 1994.400698 2001.407979
44.100000 1989.261441 1992.613473 1997.576266 1997.867695 2003.256551 2008.393909
44.150000 1994.484129 2001.239031 2005.781913 2005.462443 2009.820182 2014.041398
44.200000 1999.536329 2008.674725 2014.715931 2013.644282 2018.874463 2022.097851
44.250000 2008.848930 2015.319210 2019.433127 2018.565699 2022.298257 2024.401519
44.300000 2014.277542 2019.341973 2022.011274 2021.656606 2024.429072 2026.420795
44.350000 2019.419368 2022.085954 2024.232583 2023.963570 2026.159306 2027.922641
44.400000 2021.809522 2023.899577 2025.889604 2025.740707 2027.888275 2029.486536
44.450000 2023.387848 2025.481168 2027.537198 2027.324537 2029.346473 2031.006698
44.500000 2024.998086 2027.000992 2029.087152 2028.825417 2030.798851 2032.473487
44.550000 2026.639996 2028.538915 2030.545409 2030.355805 2032.271419 2033.988385
44.600000 2028.383106 2030.298190 2031.994914 2031.864385 2033.662705 2035.368825
44.650000 2029.829913 2032.076178 2033.727642 2033.564952 2035.322302 2037.460370
44.700000 2031.646744 2033.757136 2035.304588 2035.224289 2037.005322 2039.059792
44.750000 2033.468747 2035.270144 2036.808779 2036.772678 2038.542494 2040.709578
44.800000 2035.171187 2036.740379 2038.306495 2038.287894 2040.055021 2042.142310
44.850000 2036.431025 2038.128702 2039.653326 2039.710626 2041.593902 2043.774676
44.900000 2037.788690 2039.400074 2041.008421 2041.068652 2043.008379 2045.265567
44.950000 2038.727541 2040.662594 2042.369505 2042.372621 2044.378422 2046.593434
45.000000 2040.204279 2041.927472 2043.648926 2043.692440 2045.732228 2048.141156
45.050000 2041.537962 2043.167805 2044.928374 2045.015978 2047.061312 2049.740826
45.100000 2042.994674 2044.492207 2046.357672 2046.408423 2048.609024 2051.238558
45.150000 2044.124872 2045.767351 2047.769160 2047.869113 2050.174359 2052.847604
45.200000 2045.341020 2047.167426 2049.314179 2049.438559 2051.856846 2054.429976
45.250000 2046.731910 2048.636140 2051.080749 2051.142139 2053.828482 2056.138649
45.300000 2048.101405 2050.086311 2052.759265 2052.796057 2055.571717 2057.604608
45.350000 2049.292579 2051.802319 2054.571576 2054.478976 2057.260811 2058.989396
45.400000 2050.714868 2053.541480 2056.394187 2056.168680 2058.741182 2060.444787
45.450000 2052.246551 2055.327616 2058.137813 2057.817882 2060.246769 2061.840284
45.500000 2054.259184 2057.084583 2059.735778 2059.444947 2061.680783 2063.234070
45.550000 2056.342378 2059.141493 2061.416932 2061.121054 2063.083943 2064.342642
45.600000 2058.796529 2061.018804 2062.968949 2062.752813 2064.449525 2065.680519
45.650000 2060.837693 2062.720395 2064.386273 2064.243920 2065.780644 2066.899093
45.700000 2063.052341 2064.434754 2065.863566 2065.837042 2067.266168 2068.361860
45.750000 2064.493931 2065.789519 2067.194894 2067.164343 2068.563995 2069.803243
45.800000 2065.827300 2067.094566 2068.378980 2068.387313 2069.748129 2071.097797
45.850000 2067.002019 2068.301304 2069.475305 2069.556184 2070.904569 2072.139819
45.900000 2068.060188 2069.351643 2070.576206 2070.679770 2072.028809 2073.368805
45.950000 2069.221038 2070.440919 2071.762976 2071.810216 2073.191185 2074.625226
46.050000 2071.235237 2072.417199 2073.795319 2073.912965 2075.411978 2077.122822
46.100000 2072.333704 2073.544418 2075.024801 2075.099096 2076.656457 2078.504272
46.150000 2073.570067 2074.674016 2076.270114 2076.329917 2077.859205 2079.783493
46.200000 2074.659164 2075.894526 2077.563687 2077.609343 2079.217640 2081.193467
46.250000 2075.745652 2077.144431 2078.835104 2078.883192 2080.548850 2082.529270
46.300000 2076.959103 2078.381623 2080.061383 2080.148617 2081.833621 2084.120976
46.350000 2078.113707 2079.689459 2081.441337 2081.531002 2083.416326 2085.554822
46.400000 2079.435145 2080.961288 2082.733501 2082.906506 2084.923040 2087.089884
46.440000 2080.436032 2082.085313 2084.100495 2084.224658 2086.337038 2088.713761
46.500000 2081.956188 2083.753688 2086.069234 2086.144534 2088.279566 2091.022163
46.550000 2083.348520 2085.454100 2087.906400 2087.985875 2090.395436 2093.457514
46.600000 2084.832361 2087.109459 2089.834753 2089.981325 2092.655448 2096.809925
