depth(m) lower_95(kyr) lower_68(kyr) median(kyr) mean(kyr) upper_68(kyr) upper_95(kyr)
56.200000 1696.911705 1702.826740 1707.738209 1707.089195 1711.354262 1714.359246
56.300000 1701.275589 1706.605441 1710.632331 1709.972762 1713.443167 1716.146010
56.390000 1704.964669 1710.061844 1713.180647 1712.732006 1715.707704 1719.010510
56.490000 1709.488876 1712.881193 1715.587112 1715.325558 1717.911941 1721.082038
56.590000 1712.320359 1715.277117 1717.633059 1717.559068 1720.003718 1723.648244
56.680000 1714.376155 1717.145589 1719.421618 1719.385487 1721.784881 1726.039654
56.780000 1716.625962 1719.100124 1721.341893 1721.436630 1723.882342 1728.521299
56.870000 1718.236453 1721.024758 1723.213533 1723.445917 1726.169188 1731.069127
56.970000 1720.246624 1723.126190 1725.530113 1725.821769 1728.946483 1733.760097
57.070000 1722.505039 1725.490871 1727.911929 1728.262784 1731.552002 1736.093076
57.160000 1724.297104 1727.392181 1730.305262 1730.460243 1733.818134 1738.257919
57.260000 1726.505445 1729.725825 1733.030458 1732.998559 1736.241384 1740.133406
57.350000 1728.662745 1731.927990 1735.301608 1735.227399 1738.552771 1741.753772
57.450000 1731.158062 1734.701195 1737.860265 1737.784230 1741.160127 1744.115882
57.550000 1733.898304 1737.275563 1740.648834 1740.519825 1743.766372 1746.812436
57.640000 1737.212575 1740.215301 1743.388843 1743.284545 1746.413820 1748.860252
57.740000 1740.413155 1743.203714 1746.257774 1746.094164 1748.890568 1751.097158
57.830000 1742.893110 1745.981020 1748.563505 1748.450880 1751.041597 1753.189426
57.930000 1745.476628 1748.628680 1751.295325 1751.068087 1753.611211 1755.675495
58.020000 1747.486634 1750.897925 1753.456658 1753.278686 1755.826229 1757.707745
58.120000 1750.390564 1753.282068 1755.713104 1755.556283 1757.914737 1759.882250
58.220000 1753.084282 1755.640262 1757.943997 1757.891587 1760.159738 1762.267055
58.310000 1755.499379 1757.908809 1760.118781 1760.104748 1762.313988 1764.253442
58.410000 1758.222131 1760.410184 1762.495638 1762.562107 1764.670880 1767.180198
58.500000 1760.378070 1762.304620 1764.521759 1764.561152 1766.688257 1769.482785
58.600000 1762.293907 1764.686258 1766.868571 1766.995457 1769.276437 1772.154177
58.700000 1764.297073 1766.822104 1769.276408 1769.350495 1772.017684 1774.565609
58.790000 1766.123706 1768.845275 1771.361830 1771.457691 1774.286159 1777.025668
58.890000 1768.362127 1771.145223 1773.898759 1774.022024 1776.933443 1780.056011
58.980000 1770.697065 1773.219500 1776.167798 1776.271724 1779.497587 1782.547425
59.080000 1773.197215 1776.076804 1779.058938 1779.182418 1782.399155 1785.126816
59.170000 1776.722201 1779.522791 1782.419288 1782.344579 1785.186916 1787.517670
59.270000 1780.614669 1783.492465 1785.972922 1785.729669 1788.016744 1789.721693
59.370000 1783.777403 1786.462096 1788.455527 1788.294132 1790.157061 1791.817037
59.460000 1786.353737 1788.457300 1790.287615 1790.138235 1791.787720 1793.278788
59.560000 1788.665523 1790.357570 1791.980054 1791.978454 1793.578174 1795.124840
59.650000 1790.458195 1792.000381 1793.574788 1793.570826 1794.966441 1796.716353
59.750000 1792.255086 1793.707780 1795.272272 1795.307311 1796.696974 1798.358452
59.850000 1793.992791 1795.567661 1797.026096 1797.197950 1798.632136 1800.901047
59.940000 1795.415588 1797.017104 1798.481843 1798.853848 1800.281787 1803.394577
60.040000 1797.336364 1798.813232 1800.478460 1800.959407 1802.497266 1809.023244
60.130000 1798.982784 1800.514824 1802.307302 1802.981695 1804.716768 1815.985951
60.230000 1800.885614 1802.415918 1804.512343 1805.394736 1807.453340 1821.045935
60.330000 1802.603768 1804.659973 1807.020618 1808.015651 1810.283932 1825.192337
60.420000 1804.582262 1806.548571 1809.133077 1810.285630 1812.471242 1828.534848
60.520000 1806.580902 1808.819782 1811.538234 1812.755566 1815.006645 1832.438594
60.610000 1808.223629 1810.815736 1813.547064 1815.136214 1817.883744 1835.428227
60.710000 1810.397058 1812.983982 1816.032606 1817.945853 1822.366560 1842.071598
60.800000 1812.142920 1814.830006 1818.252823 1820.526755 1825.868009 1845.417590
60.900000 1814.069488 1816.912035 1820.951019 1823.410692 1829.622825 1849.938654
61.000000 1816.442497 1819.345583 1823.828333 1826.262503 1832.794919 1853.755276
61.090000 1818.817393 1821.639110 1826.646151 1828.899887 1835.425187 1856.103737
61.190000 1820.866038 1824.330424 1830.977258 1832.292416 1838.353068 1858.619741
61.285000 1822.942008 1827.264612 1834.808477 1835.642873 1841.647480 1861.612567
61.380000 1825.073773 1830.567705 1838.453280 1838.997980 1844.893006 1864.192279
61.480000 1827.537011 1834.063075 1841.996691 1842.447673 1848.152663 1866.542470
61.570000 1829.948678 1837.581694 1845.268300 1845.572658 1851.144103 1868.466245
61.670000 1832.218529 1841.292759 1848.609898 1848.985667 1855.165973 1870.284772
61.760000 1834.978951 1844.470146 1851.489548 1852.150570 1859.992689 1872.227470
61.860000 1838.110995 1848.327461 1854.931103 1855.971320 1865.558651 1874.184236
61.950000 1841.436394 1851.703347 1859.528031 1859.927098 1870.197187 1876.085708
62.050000 1844.938054 1855.418826 1865.666418 1864.514107 1873.693405 1878.136753
62.150000 1848.083084 1859.537170 1870.805985 1868.748418 1876.824307 1880.053802
62.240000 1851.540338 1863.928646 1874.274278 1871.989711 1879.014630 1881.718154
62.340000 1854.968597 1870.370058 1877.537792 1875.611497 1881.112664 1883.541862
62.430000 1860.522534 1873.659617 1879.775667 1878.295959 1883.003741 1885.116109
62.530000 1867.927604 1877.044311 1881.957515 1880.901829 1884.844938 1886.765349
62.630000 1873.892088 1880.219662 1884.204332 1883.454528 1886.689464 1888.761896
62.720000 1877.469916 1882.960290 1886.139503 1885.591830 1888.402149 1890.531966
62.820000 1881.439339 1885.706223 1888.346461 1887.982734 1890.270612 1892.353914
62.910000 1884.236201 1887.980443 1890.324847 1890.007656 1892.163629 1893.888504
63.010000 1887.289524 1890.213701 1892.416954 1892.163350 1894.187064 1895.769892
63.110000 1890.073284 1892.695576 1894.568375 1894.433525 1896.246130 1897.793465
63.200000 1892.791968 1894.881273 1896.625956 1896.518962 1898.146747 1899.683461
63.300000 1895.762981 1897.450793 1899.028589 1899.007349 1900.552640 1901.904238
63.390000 1898.520705 1899.868133 1901.262833 1901.277125 1902.770041 1903.978313
63.490000 1900.785605 1902.149652 1903.486255 1903.492771 1904.905655 1906.160562
63.580000 1902.539621 1903.917212 1905.260532 1905.294081 1906.741485 1908.029790
63.680000 1904.210655 1905.726885 1907.241801 1907.252248 1908.789945 1910.266021
63.780000 1905.920683 1907.607496 1909.197973 1909.242745 1910.781264 1912.600722
63.870000 1907.591770 1909.281762 1910.906272 1911.012190 1912.786372 1914.695011
63.970000 1909.443026 1911.186367 1912.919064 1913.066686 1914.923313 1917.465287
64.060000 1911.340964 1913.130798 1915.041449 1915.199182 1917.215919 1919.960078
64.160000 1913.584446 1915.716990 1917.998829 1918.391329 1921.134001 1925.283082
64.260000 1916.191230 1918.243573 1921.133970 1921.632904 1925.055172 1929.834091
64.350000 1918.205610 1920.677604 1924.068117 1924.661277 1928.850549 1934.069639
64.450000 1921.055799 1923.714586 1927.860045 1928.255133 1932.736604 1938.210008
64.540000 1923.845316 1926.855932 1931.601342 1931.842047 1936.561570 1941.883233
64.680000 1927.428150 1931.713061 1938.017779 1938.979776 1946.280200 1955.701763
64.820000 1930.565844 1937.528588 1945.810481 1946.620368 1955.540397 1966.111780
64.960000 1936.468532 1944.302650 1954.132817 1954.545429 1964.844971 1974.369395
65.100000 1941.858411 1951.579357 1962.619492 1962.559201 1973.379102 1983.048720
65.240000 1947.687571 1959.784757 1970.952419 1970.560282 1981.269677 1990.850507
65.380000 1956.429564 1968.390217 1979.687156 1978.885304 1989.360827 1996.823257
65.520000 1964.577300 1977.527841 1987.412003 1986.593080 1996.133050 2002.939922
65.660000 1973.297871 1986.947477 1995.351696 1994.227607 2001.836479 2007.367223
65.800000 1989.230340 1996.504708 2002.060683 2001.383234 2007.175094 2011.608357
65.895000 1992.520973 2000.780987 2006.355385 2005.523787 2011.019520 2014.759042
65.990000 1996.566707 2005.271800 2010.356748 2009.452431 2014.262094 2017.758272
66.130000 2003.872354 2011.169224 2015.861587 2014.984578 2019.501942 2022.295638
66.270000 2011.738629 2016.761223 2020.510301 2019.806644 2023.503112 2026.432423
66.370000 2014.586587 2019.541173 2023.076480 2022.434714 2026.049636 2028.672779
66.470000 2017.041236 2021.962211 2025.516046 2024.814038 2028.301021 2031.001468
66.610000 2020.691755 2025.313041 2028.538962 2028.115312 2031.101811 2033.887027
66.750000 2025.173161 2028.770691 2031.782738 2031.480632 2034.017567 2036.337350
66.850000 2028.615743 2031.754961 2034.288090 2034.086839 2036.514607 2038.958041
66.940000 2031.409872 2034.318242 2036.526946 2036.489697 2038.767506 2041.010288
67.040000 2033.953345 2036.669201 2038.745869 2038.821107 2041.117859 2043.635006
67.140000 2036.235107 2039.065413 2041.182257 2041.198094 2043.375642 2045.783562
67.280000 2039.279109 2042.284935 2044.237322 2044.270770 2046.479296 2048.712074
67.420000 2042.772522 2045.269119 2047.315865 2047.375482 2049.529229 2051.660422
67.520000 2045.586631 2047.752366 2049.727660 2049.739821 2051.850777 2053.677075
67.610000 2047.781266 2049.767213 2051.745484 2051.767701 2053.816672 2055.620120
67.710000 2050.106291 2051.940478 2053.956126 2053.988900 2056.057675 2057.870462
67.810000 2052.403198 2054.179331 2056.381194 2056.268414 2058.328544 2060.127656
67.900000 2054.214817 2056.334247 2058.666893 2058.509499 2060.517480 2062.352585
68.000000 2056.668601 2058.815427 2061.017086 2060.850984 2062.777604 2064.182863
68.090000 2059.077209 2061.349247 2063.219953 2063.086748 2064.874997 2066.420289
68.190000 2062.297987 2064.394220 2066.050209 2066.022623 2067.714853 2069.703237
68.280000 2064.849836 2066.550620 2068.230777 2068.263176 2069.969625 2071.984293
68.370000 2066.917509 2068.491280 2070.113481 2070.291690 2072.163911 2074.171026
68.480000 2069.231094 2070.773563 2072.435174 2072.658424 2074.621051 2077.217821
68.570000 2071.095408 2072.734952 2074.534878 2074.700486 2076.857720 2079.644222
68.670000 2073.218517 2074.892388 2077.061965 2077.264530 2079.641213 2082.533995
68.760000 2075.508968 2077.432219 2079.906753 2080.091033 2082.438128 2085.798871
68.860000 2078.773435 2081.358470 2084.022044 2084.238099 2087.112371 2090.613253
68.970000 2082.589659 2085.436476 2088.362110 2088.622830 2091.578121 2096.471483
69.050000 2085.910346 2089.171562 2092.256813 2092.472904 2095.751264 2100.773640
69.140000 2088.943461 2092.333268 2095.519341 2095.865983 2099.296292 2104.572772
69.270000 2092.845416 2096.002072 2099.549896 2100.093322 2104.532240 2110.659548
