depth(m) lower_95(kyr) lower_68(kyr) median(kyr) mean(kyr) upper_68(kyr) upper_95(kyr)
98.030000 1498.954247 1503.734956 1507.725501 1507.610184 1510.917484 1519.347331
98.130000 1501.252528 1505.904254 1509.822672 1509.724330 1512.832852 1521.153187
98.266000 1504.141245 1509.037970 1512.841395 1512.877822 1516.414724 1523.501125
98.402000 1506.558283 1511.896931 1516.160876 1516.050435 1520.207781 1525.440906
98.538000 1508.707151 1515.498411 1519.287609 1519.181458 1523.252501 1527.198883
98.674000 1510.619269 1519.017898 1522.408308 1522.164898 1526.019359 1529.121043
98.810000 1512.580087 1521.988626 1525.306946 1524.985016 1528.512442 1531.406792
98.930000 1514.639222 1524.309979 1527.484257 1527.080224 1530.511081 1533.299704
99.070000 1517.957751 1526.278164 1529.733688 1529.445307 1532.971023 1535.786403
99.210000 1521.573983 1528.363385 1532.026643 1531.745985 1535.212194 1538.483759
99.350000 1525.575814 1530.380734 1534.170795 1534.048102 1537.547524 1541.281427
99.490000 1529.015452 1532.827831 1536.738371 1536.519362 1539.970232 1544.016106
99.630000 1531.458473 1535.336343 1539.208199 1539.075604 1542.303903 1547.091697
99.763333 1534.176874 1537.849873 1541.709042 1541.700719 1545.342017 1550.689728
99.896667 1536.558951 1540.169733 1544.212062 1544.257893 1548.056872 1553.878101
100.030000 1539.043103 1542.605700 1546.600847 1546.812956 1550.847159 1556.449010
100.163333 1541.360605 1545.179509 1549.107781 1549.425406 1554.016241 1558.449613
100.296667 1543.913868 1547.590962 1551.382412 1551.957948 1556.962735 1560.828663
100.430000 1546.970011 1550.155479 1553.976725 1554.488179 1559.437085 1562.626794
100.570000 1548.801259 1552.267627 1556.521558 1556.823643 1561.709307 1565.034243
100.710000 1551.025447 1554.181651 1558.907118 1559.038969 1563.898443 1567.198296
100.850000 1553.058451 1556.289865 1561.508115 1561.251850 1565.778489 1569.257389
100.990000 1554.881406 1558.338896 1563.909074 1563.407642 1567.776156 1571.413785
101.130000 1557.123338 1560.323367 1566.277645 1565.467164 1569.662447 1573.300738
101.263333 1558.982108 1562.603297 1568.009640 1567.347085 1571.340345 1574.905795
101.396667 1561.319774 1564.763662 1569.605219 1569.183009 1572.969615 1576.775778
101.530000 1563.084436 1567.076891 1571.210332 1570.985836 1574.548402 1578.736201
101.663333 1565.120718 1569.056660 1572.777811 1572.803284 1576.061320 1580.990886
101.796667 1568.320252 1571.276394 1574.434965 1574.668717 1577.731744 1582.927084
101.930000 1570.692599 1573.549024 1576.153537 1576.571444 1579.517212 1585.098245
102.050000 1572.674554 1575.296441 1578.141878 1578.559296 1581.951492 1586.989557
102.170000 1574.225266 1576.987916 1580.197604 1580.628263 1584.498887 1589.305282
102.290000 1575.961488 1578.881077 1582.385486 1582.838504 1587.165556 1591.453347
102.410000 1577.751734 1580.852974 1584.633607 1585.051596 1589.376270 1593.309370
102.530000 1579.981649 1582.927775 1586.914943 1587.285744 1591.674267 1595.578263
102.663333 1582.311165 1585.788565 1589.777104 1589.922622 1594.037261 1597.936464
102.796667 1584.922385 1588.640573 1592.591655 1592.551746 1596.567018 1600.078301
102.930000 1587.588994 1591.327891 1595.442255 1595.247912 1599.108635 1602.736992
103.063333 1590.622954 1594.138094 1597.925912 1597.959480 1601.721747 1605.235558
103.196667 1594.050398 1597.589993 1600.482089 1600.743435 1604.293964 1607.585778
103.330000 1598.262702 1600.388211 1603.178881 1603.453569 1606.647431 1610.084410
103.400000 1599.638164 1601.797189 1604.711780 1604.960244 1608.240489 1611.841081
103.526000 1601.561688 1604.220378 1607.492188 1607.821666 1611.474992 1615.579439
103.652000 1603.622432 1606.625390 1610.512338 1610.828052 1614.810939 1619.727845
103.778000 1605.918316 1609.275271 1613.582211 1613.860869 1618.309285 1623.222221
103.904000 1608.247343 1612.091251 1616.714339 1616.842536 1621.296221 1626.809995
104.030000 1610.643112 1615.314894 1619.671858 1619.814850 1624.214751 1629.826453
104.115000 1612.122606 1617.290909 1621.738614 1621.821254 1626.272032 1631.948654
104.200000 1614.148828 1619.387567 1623.678356 1623.768819 1628.314356 1633.635542
104.326000 1616.913810 1621.898067 1626.515406 1626.640081 1631.567688 1636.580557
104.452000 1619.712495 1624.372360 1629.135039 1629.343812 1634.640284 1639.272434
104.578000 1622.341362 1626.871648 1631.903264 1632.052684 1637.412236 1642.024099
104.704000 1624.768084 1629.637933 1634.902512 1634.886057 1640.100149 1644.577554
104.830000 1627.408928 1632.218619 1637.890158 1637.643495 1642.850276 1646.997298
104.970000 1630.288152 1635.109238 1641.159564 1640.868551 1645.963938 1650.175252
105.110000 1633.318302 1638.729544 1644.712310 1644.188168 1649.233086 1653.371062
105.250000 1636.442708 1642.390274 1647.835739 1647.447960 1652.207247 1656.605644
105.390000 1640.435719 1646.133188 1650.982439 1650.758329 1655.268841 1659.847356
105.530000 1644.696420 1649.677864 1654.240981 1654.043631 1658.206404 1662.614446
105.663333 1647.170333 1652.847812 1657.273625 1657.134165 1661.404190 1665.455231
105.796667 1650.621230 1655.924995 1660.121312 1660.058089 1664.389532 1669.377372
105.930000 1653.607146 1658.652125 1662.937418 1662.795132 1666.962952 1671.625519
106.063333 1656.810259 1661.860892 1665.705652 1665.655717 1669.530926 1674.399211
106.196667 1660.639420 1664.905712 1668.462218 1668.524335 1672.312614 1677.143265
106.330000 1664.147638 1668.015072 1671.125253 1671.347870 1674.735093 1680.003407
106.466364 1666.518512 1670.435673 1673.841073 1674.192464 1678.099093 1683.359854
106.602727 1669.450086 1672.895117 1676.876029 1677.166478 1681.202348 1687.273218
106.739091 1671.954613 1675.696457 1680.040820 1680.257352 1684.783304 1690.276156
106.875455 1674.122069 1678.346747 1682.946447 1683.229385 1688.070401 1693.390096
107.011818 1677.107162 1681.159332 1686.052417 1686.252982 1691.268314 1696.071209
107.148182 1679.551560 1684.337047 1689.353141 1689.295658 1694.310805 1698.737819
107.284545 1682.595448 1687.581933 1692.630693 1692.519629 1697.607364 1701.817153
107.420909 1685.398130 1690.718224 1695.836150 1695.693646 1700.624718 1704.768414
107.557273 1689.762143 1694.204260 1698.829964 1698.940525 1703.724159 1707.905501
107.693636 1693.243872 1697.728857 1702.041581 1702.190801 1706.655033 1712.081621
107.830000 1697.736560 1701.367343 1705.365281 1705.892914 1710.441732 1717.530181
107.970000 1701.175909 1705.169000 1710.632196 1710.923239 1716.434059 1722.728081
108.110000 1704.605613 1709.565124 1716.785429 1716.431506 1722.271273 1729.398997
108.250000 1708.310135 1714.993361 1722.604810 1722.169917 1728.321535 1734.929635
108.390000 1713.354074 1721.020036 1728.755838 1728.012940 1733.793602 1740.726663
108.530000 1718.309789 1728.526329 1734.903464 1734.124110 1739.441422 1747.721845
108.580000 1720.126001 1731.328232 1737.055648 1736.428752 1742.013809 1751.053004
108.705000 1724.996896 1736.641268 1742.428414 1742.096090 1748.270605 1755.959441
108.830000 1731.418022 1741.925013 1747.913083 1747.894762 1754.579798 1761.533896
108.955000 1737.921683 1747.135664 1753.362869 1753.494894 1760.405675 1766.621798
109.080000 1744.776409 1752.360755 1758.825775 1758.891225 1765.774873 1771.703197
109.205000 1752.144884 1758.029413 1764.499081 1764.407778 1770.970127 1776.213592
109.330000 1757.412558 1763.100031 1770.087841 1769.710444 1776.035312 1780.194984
109.380000 1759.314551 1765.399541 1772.296173 1771.854645 1777.788053 1781.910532
109.520000 1764.957453 1771.138186 1777.750900 1776.942720 1782.260499 1785.507435
109.660000 1770.769152 1776.385095 1782.658251 1781.545332 1785.991053 1788.258758
109.800000 1776.616701 1782.299217 1786.531143 1785.740971 1789.030246 1790.860806
109.940000 1783.339154 1787.596419 1790.035860 1789.501050 1791.561170 1792.615355
110.080000 1790.916582 1791.864204 1792.888023 1792.872475 1793.878529 1794.689080
110.213333 1792.880122 1793.903405 1795.322537 1795.691946 1797.293655 1801.064967
110.346667 1794.550172 1795.788356 1797.642716 1798.285281 1800.794744 1805.309223
110.480000 1796.308663 1797.931407 1800.280146 1800.955046 1804.310937 1808.686671
110.613333 1797.958935 1799.796020 1802.806575 1803.423898 1807.342567 1811.574536
110.746667 1800.119652 1801.950015 1805.481984 1806.023472 1810.210113 1815.358958
110.880000 1802.197115 1804.348145 1808.111483 1808.576406 1812.477510 1818.678375
111.022000 1804.006377 1806.669886 1810.916912 1811.400319 1815.768731 1822.791317
111.164000 1805.965866 1809.083920 1813.843909 1814.152540 1819.046989 1826.387133
111.306000 1808.304245 1811.202699 1816.691576 1817.168031 1822.867462 1829.735243
111.448000 1810.467314 1813.990489 1819.741726 1820.240889 1825.979318 1833.851407
111.590000 1812.424446 1817.130670 1823.337498 1823.536089 1829.631517 1837.317959
111.723333 1815.377185 1820.134886 1826.641256 1826.791587 1833.140027 1841.393069
111.856667 1817.935653 1823.257049 1829.775356 1830.171172 1836.951549 1844.950626
111.990000 1820.681919 1826.529647 1833.032890 1833.675808 1841.929937 1849.401430
112.123333 1824.136791 1829.628436 1836.300870 1837.390600 1846.428488 1853.547623
112.256667 1828.295301 1832.918961 1839.978793 1841.492195 1851.540098 1858.162758
112.390000 1832.708621 1837.054727 1844.042823 1845.842195 1856.918153 1862.704312
112.523333 1835.877233 1841.045648 1849.857962 1850.738183 1861.449067 1867.430610
112.656667 1839.034259 1845.641905 1855.793574 1856.132728 1866.592439 1872.739711
112.790000 1842.628692 1850.801675 1862.399981 1861.878158 1872.630612 1878.215020
112.896667 1846.186356 1855.538333 1867.938832 1866.873904 1877.125488 1882.555116
113.003333 1850.021091 1860.596790 1873.816747 1871.967847 1881.604924 1886.660816
113.110000 1853.455860 1866.175882 1879.507951 1877.078998 1886.371594 1891.529453
113.230000 1860.977763 1872.633489 1884.304427 1882.680302 1891.401981 1896.578101
113.350000 1867.061458 1880.043701 1890.109350 1888.677246 1897.087672 1902.665894
113.470000 1876.543729 1887.005635 1895.761477 1894.885169 1902.551365 1907.361728
113.590000 1887.414152 1895.291237 1902.520686 1901.574428 1907.686392 1910.649533
113.696667 1897.815744 1904.509503 1908.696072 1907.898723 1911.586450 1913.589153
113.803333 1907.223571 1910.703491 1913.076500 1912.613892 1914.530646 1915.749914
113.910000 1914.164801 1915.015062 1915.920219 1915.917977 1916.828075 1917.681029
114.041111 1915.580596 1916.501235 1917.518971 1917.642048 1918.797768 1920.333450
114.172222 1916.734841 1917.730315 1918.753014 1919.026557 1920.392724 1922.499378
114.303333 1917.781628 1918.784379 1919.956192 1920.280101 1921.885541 1924.185633
114.434444 1918.768251 1919.746012 1921.114649 1921.477328 1923.294964 1925.920338
114.565556 1919.729322 1920.703919 1922.226972 1922.657620 1924.715289 1927.405707
114.696667 1920.625011 1921.629984 1923.420930 1923.861957 1926.107140 1929.426214
114.827778 1921.368631 1922.637967 1924.658135 1925.067083 1927.532489 1930.966886
114.958889 1922.219925 1923.573571 1925.832015 1926.261717 1929.010720 1932.645640
115.090000 1923.015522 1924.498282 1927.068319 1927.379202 1930.198270 1933.717983
115.230000 1923.757600 1925.467518 1928.235592 1928.550508 1931.536255 1935.392128
115.370000 1924.649105 1926.465903 1929.398741 1929.676401 1932.861691 1937.173576
115.510000 1925.606453 1927.398173 1930.446786 1930.776009 1934.137396 1938.853822
115.650000 1926.459584 1928.315447 1931.428190 1931.833809 1935.276868 1939.872548
115.790000 1927.218271 1929.269489 1932.334456 1932.896250 1936.443995 1941.353660
115.923333 1928.155714 1930.210425 1933.378258 1933.964803 1937.726017 1942.505695
116.056667 1929.019923 1931.277781 1934.517119 1935.064096 1938.781286 1943.509058
116.190000 1929.885797 1932.242757 1935.934255 1936.181184 1940.211043 1944.432575
116.323333 1930.740884 1933.176508 1936.975184 1937.270176 1941.400714 1945.465778
116.456667 1931.634396 1934.202716 1938.049633 1938.342410 1942.578014 1946.382866
116.590000 1932.452301 1935.141571 1939.118634 1939.406728 1943.798067 1947.261819
116.730000 1933.422637 1936.340014 1940.384523 1940.575082 1945.041468 1948.541975
116.870000 1934.305392 1937.352515 1941.563268 1941.743270 1946.340903 1950.078510
117.010000 1934.965501 1938.298271 1942.617492 1942.902014 1947.729392 1951.224593
117.150000 1935.995966 1939.301970 1943.685269 1944.102942 1949.226685 1952.655679
117.290000 1936.822152 1940.164475 1944.818407 1945.241940 1950.610388 1954.193384
117.423333 1937.496529 1941.012316 1945.844244 1946.251633 1951.739943 1955.678194
117.556667 1938.296621 1941.755024 1946.897636 1947.258628 1952.850727 1956.808143
117.690000 1939.070644 1942.649416 1947.836113 1948.312362 1954.086787 1958.072883
117.823333 1939.815902 1943.492228 1949.126365 1949.422229 1955.480473 1959.899258
117.956667 1940.544133 1944.324970 1950.532509 1950.564215 1956.739225 1961.518716
118.090000 1941.445167 1945.472875 1951.855415 1951.765887 1958.092402 1963.482442
118.230000 1942.310326 1946.446425 1953.171671 1953.074428 1959.464059 1964.783617
118.370000 1943.509069 1947.420095 1954.803060 1954.423727 1960.960488 1966.599092
118.510000 1944.439788 1948.335149 1956.558227 1955.830953 1962.409517 1967.828794
118.650000 1945.759519 1949.369682 1958.230334 1957.327313 1963.872881 1969.934108
118.790000 1947.092977 1950.903161 1960.179340 1959.025477 1965.651042 1971.740143
118.934000 1949.105222 1953.140394 1962.099337 1961.018996 1967.158828 1973.620819
119.078000 1951.032941 1955.460687 1963.978627 1963.076150 1968.894207 1975.176157
119.222000 1953.131226 1957.953687 1966.118696 1965.290742 1970.752072 1977.353884
119.366000 1955.667429 1960.863148 1968.399466 1967.612537 1972.716149 1979.122117
119.510000 1958.107843 1964.402048 1970.897732 1970.066011 1974.687902 1980.665406
119.650000 1961.217522 1967.396266 1973.522272 1972.730172 1977.146131 1982.703949
119.790000 1964.243676 1971.087010 1976.064350 1975.615928 1979.753354 1985.556277
119.930000 1968.755244 1974.414839 1978.614161 1978.494380 1982.359971 1987.659402
120.070000 1973.812988 1977.784763 1981.262793 1981.438360 1985.003663 1990.167339
120.210000 1978.387968 1981.068831 1983.902556 1984.407586 1987.887233 1992.932439
120.343333 1980.340792 1983.670401 1986.925917 1987.452537 1991.201942 1996.434730
120.476667 1983.270665 1986.262345 1990.162683 1990.456350 1994.824403 1999.328258
120.610000 1985.624722 1988.793923 1993.218629 1993.492017 1998.004250 2002.924505
120.743333 1988.113136 1991.896353 1996.412438 1996.511786 2001.032924 2006.455743
120.876667 1991.135830 1994.843564 1999.139664 1999.451731 2004.083277 2009.208326
121.010000 1994.301138 1997.641653 2002.262913 2002.554811 2007.222128 2012.041624
121.148889 1996.718082 2000.465266 2005.306589 2005.553281 2010.735277 2015.489064
121.287778 1999.106814 2003.341675 2008.232880 2008.475018 2013.911855 2018.902398
121.426667 2001.848214 2006.063691 2011.403509 2011.501981 2016.884788 2022.229441
121.565556 2004.515823 2008.937325 2014.281161 2014.535129 2019.972331 2025.371137
121.704444 2006.801977 2011.860517 2017.506472 2017.570097 2023.074109 2028.194475
121.843333 2010.232987 2014.932615 2020.427881 2020.543939 2025.680012 2031.382213
121.982222 2013.590894 2018.108737 2023.454851 2023.601785 2028.736809 2034.695680
122.121111 2016.303405 2021.133019 2026.534154 2026.612528 2032.031907 2037.802243
122.260000 2020.099868 2024.071206 2029.571424 2029.668378 2035.544887 2040.489793
122.393333 2022.748237 2026.939078 2032.998898 2032.932994 2038.892417 2044.151566
122.526667 2025.276400 2029.891717 2036.215668 2036.233320 2042.379227 2047.292575
122.660000 2027.635997 2033.013116 2039.906462 2039.620582 2045.801233 2050.694856
122.793333 2030.640265 2036.736066 2043.276000 2042.971222 2049.226347 2054.116212
122.926667 2033.288850 2039.921578 2046.540146 2046.212004 2052.284597 2057.560450
123.060000 2036.797633 2043.013662 2049.573321 2049.329794 2055.165928 2060.321063
123.200000 2039.743723 2046.702692 2052.801711 2052.651716 2058.371353 2064.162023
123.340000 2043.828491 2050.350717 2056.430838 2055.990421 2061.479186 2066.962382
123.480000 2047.216462 2054.010210 2059.724630 2059.341604 2064.177615 2069.696911
123.620000 2051.497297 2057.732203 2062.910997 2062.531514 2067.055708 2072.341642
123.760000 2054.678249 2061.386431 2065.693142 2065.530313 2069.899865 2074.727075
123.890000 2057.740654 2064.023752 2068.162842 2068.053360 2072.247409 2076.990620
124.020000 2060.792762 2066.569214 2070.426960 2070.501390 2074.912709 2079.289440
124.150000 2063.816598 2068.898095 2072.792991 2072.902822 2077.345946 2081.067870
124.280000 2066.560570 2071.340255 2075.089034 2075.324664 2079.802030 2083.457271
124.410000 2069.388626 2073.734778 2077.522294 2077.770112 2082.156262 2085.872544
124.485000 2071.401319 2075.221997 2079.035297 2079.223678 2083.418089 2087.214669
124.560000 2073.454864 2076.740030 2080.603863 2080.724578 2084.927478 2088.746463
124.690000 2075.512597 2078.969397 2083.004650 2083.042680 2087.002987 2091.431522
124.820000 2077.980759 2081.287510 2085.210826 2085.323573 2089.100719 2093.992533
124.950000 2080.712159 2083.647126 2087.383956 2087.602836 2091.335743 2095.884414
125.080000 2082.912277 2086.063127 2089.750378 2089.954688 2093.747578 2098.488946
125.210000 2085.278588 2088.387048 2092.169932 2092.349558 2096.201079 2101.207648
125.260000 2086.222015 2089.343689 2093.205858 2093.402319 2097.226308 2102.503086
