depth(m) lower_95(kyr) lower_68(kyr) median(kyr) mean(kyr) upper_68(kyr) upper_95(kyr)
55.380000 1484.592152 1492.695280 1499.178930 1498.174462 1503.367101 1507.123862
55.490000 1497.330678 1502.447775 1506.749334 1506.290615 1510.141339 1512.147082
55.590000 1506.923060 1510.733498 1513.404288 1513.164371 1515.655451 1518.400130
55.680000 1512.555308 1515.444730 1517.575526 1517.577566 1519.857650 1522.343070
55.780000 1516.987986 1519.238163 1521.427954 1521.539777 1524.003445 1526.362042
55.880000 1520.488692 1522.920366 1525.357861 1525.345628 1527.790525 1529.996182
55.975000 1524.294213 1526.246246 1528.711925 1528.711222 1531.059713 1533.416033
56.070000 1527.612832 1529.460403 1531.672821 1531.693187 1533.827216 1535.607080
56.170000 1530.707398 1532.578032 1534.536198 1534.544851 1536.555894 1538.329828
56.270000 1533.253274 1535.166891 1537.278883 1537.172425 1539.061806 1540.744442
56.360000 1535.500352 1537.686040 1539.748327 1539.712335 1541.663363 1543.487853
56.470000 1539.356040 1541.561329 1543.909667 1544.032097 1546.553301 1549.531802
56.590000 1541.922203 1544.272462 1547.031634 1547.299087 1550.376198 1553.986872
56.710000 1544.241342 1546.590526 1549.654520 1550.213951 1554.098435 1557.592954
56.840000 1546.946414 1549.428369 1553.512546 1553.737083 1558.031272 1561.710800
56.980000 1549.924883 1553.079589 1558.047062 1557.860355 1562.368000 1565.719207
57.120000 1553.772165 1558.393353 1563.192402 1562.516370 1566.293796 1568.463121
57.240000 1558.620693 1563.844743 1567.215847 1566.589535 1569.325144 1570.922303
57.360000 1566.207024 1568.513079 1570.361410 1570.238705 1572.007903 1573.508096
57.430000 1569.081508 1570.658316 1572.184772 1572.157119 1573.684878 1575.109782
57.480000 1570.374511 1572.000929 1573.446941 1573.431122 1574.907653 1576.370017
57.580000 1572.801770 1574.208284 1575.706305 1575.620897 1577.002128 1578.409010
57.650000 1574.487503 1575.880918 1577.378526 1577.327755 1578.689718 1580.104208
57.680000 1575.273059 1576.719751 1578.129621 1578.134873 1579.488042 1581.060041
57.760000 1577.536251 1579.014690 1580.317729 1580.466447 1581.951048 1583.884223
57.780000 1578.049250 1579.542624 1580.862973 1581.026993 1582.594741 1584.433298
57.920000 1581.180274 1582.574155 1584.146289 1584.517455 1586.552543 1589.269462
57.970000 1582.415949 1583.827031 1585.611362 1585.953392 1588.282752 1590.836497
57.990000 1582.895154 1584.504717 1586.275154 1586.601093 1588.864949 1591.571169
58.080000 1585.164542 1587.204365 1589.424339 1589.612521 1592.187094 1594.697297
58.180000 1588.451413 1590.775661 1593.565116 1593.644085 1596.272075 1599.455656
58.210000 1589.750345 1592.374365 1595.024615 1595.111792 1597.824243 1601.736231
58.250000 1591.787278 1594.439203 1597.077870 1597.408886 1600.362633 1604.901468
58.280000 1593.808250 1596.107311 1599.048106 1599.511779 1603.361697 1607.037170
58.310000 1595.401371 1597.925848 1601.823111 1601.933878 1606.151436 1608.748865
58.360000 1597.639277 1602.278567 1606.522461 1605.881619 1609.448776 1611.520288
58.380000 1598.867070 1603.973613 1607.782962 1607.241596 1610.508575 1612.615262
58.430000 1603.066481 1607.428000 1610.250914 1609.996872 1612.718859 1614.875469
58.480000 1606.671263 1609.890566 1612.357272 1612.255076 1614.558264 1617.036663
58.530000 1609.626187 1611.782898 1614.151802 1614.133295 1616.431269 1618.880307
58.560000 1610.887160 1612.790320 1615.095342 1615.190546 1617.520571 1620.069596
58.590000 1611.925112 1613.882969 1616.071767 1616.252733 1618.585395 1621.414025
58.680000 1614.392029 1616.666454 1618.935676 1619.322571 1621.898652 1626.896180
58.780000 1616.990254 1619.435220 1622.513407 1623.035247 1626.493145 1632.248421
58.880000 1619.795765 1623.116364 1627.219448 1627.533353 1632.133506 1636.926594
58.970000 1623.065920 1627.203422 1631.955718 1631.870177 1636.711518 1640.049029
59.070000 1627.502915 1632.101688 1636.417111 1636.075258 1639.884714 1642.806884
59.140000 1631.513825 1635.714007 1639.121705 1638.868626 1641.957033 1644.324826
59.200000 1634.820290 1638.232344 1641.037657 1640.866927 1643.586984 1645.691827
59.240000 1637.177444 1639.791347 1642.202938 1642.141164 1644.609969 1646.697775
59.290000 1639.141631 1641.227200 1643.518887 1643.498364 1645.716617 1647.835990
59.350000 1640.743898 1642.841194 1645.011896 1644.951493 1647.051397 1649.185038
59.410000 1642.201713 1644.236921 1646.227493 1646.244721 1648.311977 1650.213852
59.530000 1644.458658 1646.688173 1648.733431 1648.708032 1650.720227 1652.641262
59.615000 1646.295330 1648.309655 1650.386270 1650.284352 1652.265029 1654.065170
59.700000 1647.877878 1649.920808 1651.951711 1651.829723 1653.760846 1655.481914
59.840000 1650.231321 1652.038307 1654.017044 1653.966383 1655.913063 1657.413538
59.980000 1652.528401 1654.332376 1656.166950 1656.115833 1657.943589 1659.200815
60.083333 1654.149074 1655.967267 1657.752321 1657.685554 1659.438649 1660.644806
60.186667 1655.944889 1657.703585 1659.365228 1659.295663 1660.937019 1662.037366
60.290000 1657.842952 1659.511249 1661.115226 1660.994474 1662.533526 1663.534266
60.370000 1659.617836 1661.102799 1662.522450 1662.491956 1663.880090 1665.044949
60.410000 1660.671363 1662.055069 1663.343873 1663.329672 1664.682941 1665.883077
60.440000 1661.282939 1662.724081 1664.012549 1664.013593 1665.309132 1666.672728
60.460000 1661.832457 1663.207723 1664.528011 1664.536822 1665.822897 1667.229083
60.490000 1662.633430 1664.042352 1665.401995 1665.449248 1666.849452 1668.480131
60.520000 1663.363226 1665.063759 1666.451677 1666.537985 1667.997920 1670.121693
60.570000 1665.323069 1666.957190 1668.850352 1669.029677 1671.142905 1673.419964
60.660000 1667.471306 1669.750366 1672.434136 1672.490831 1675.224070 1678.101361
60.750000 1670.059001 1672.662667 1675.607461 1675.637672 1678.671757 1681.351220
60.862500 1672.802620 1675.883409 1679.046465 1678.981996 1682.274014 1684.694401
60.975000 1675.871997 1679.046465 1682.379777 1682.234519 1685.405346 1687.750111
61.087500 1679.132265 1682.348190 1685.762827 1685.487542 1688.627336 1690.609283
61.200000 1682.842960 1685.963781 1689.359540 1689.011601 1691.883315 1693.674701
61.280000 1685.829581 1689.731410 1692.380297 1692.066995 1694.497142 1696.080176
61.310000 1687.832714 1691.370095 1693.665198 1693.460792 1695.629208 1697.391350
61.330000 1689.677272 1692.662729 1694.558093 1694.470295 1696.454230 1698.305072
61.360000 1692.080916 1694.423251 1696.255557 1696.222215 1698.095996 1700.035175
61.380000 1693.240689 1695.537793 1697.388389 1697.362515 1699.296727 1701.202068
61.430000 1696.240078 1697.868553 1699.803657 1699.847638 1701.866349 1704.095433
61.470000 1697.622070 1699.641434 1701.511316 1701.624124 1703.639509 1705.949134
61.540000 1700.030726 1702.118412 1704.153279 1704.229952 1706.240503 1708.343371
61.670000 1703.855783 1705.975068 1708.042321 1708.197844 1710.521410 1712.958330
61.795000 1707.363323 1709.540345 1711.767043 1711.987098 1714.571359 1717.650356
61.920000 1710.647537 1713.045166 1715.466888 1715.715457 1718.480462 1721.689042
62.005000 1712.698113 1715.145256 1717.841218 1718.101754 1721.272690 1724.583934
62.090000 1714.832612 1717.303113 1720.274863 1720.495324 1723.679975 1727.489872
62.160000 1717.100852 1719.227019 1722.151171 1722.467390 1725.753105 1729.442045
62.220000 1718.945667 1721.223931 1724.166730 1724.425718 1727.601723 1731.287979
62.260000 1720.411833 1722.608570 1725.833079 1725.883403 1729.233083 1732.295696
62.320000 1722.266498 1724.651401 1727.986535 1728.020448 1731.315783 1734.208600
62.400000 1724.346584 1727.440409 1730.757362 1730.805580 1734.117586 1737.449001
62.480000 1726.583235 1730.048648 1733.627001 1733.485587 1736.972653 1740.054185
62.590000 1730.087757 1733.321636 1737.008022 1736.836432 1740.239695 1742.869615
62.700000 1733.422121 1736.986378 1740.280000 1740.258422 1743.596198 1746.403242
62.830000 1738.035418 1741.376725 1744.448932 1744.322599 1747.434067 1749.825001
62.910000 1740.977864 1744.175244 1747.050914 1746.952652 1749.888797 1752.384665
62.950000 1742.548873 1745.462339 1748.432545 1748.288887 1751.037608 1753.298650
63.030000 1745.917885 1748.398470 1750.991075 1750.914912 1753.481991 1755.365060
63.080000 1747.347664 1750.110873 1752.657601 1752.503422 1754.946497 1756.951495
63.140000 1749.206851 1751.765121 1754.273272 1754.232670 1756.542810 1758.799868
63.220000 1751.686991 1754.080914 1756.466824 1756.518442 1758.863616 1761.653687
63.320000 1754.365698 1756.803249 1759.336250 1759.405589 1762.161262 1764.766748
63.440000 1756.881949 1759.446487 1762.063467 1762.314239 1765.342201 1768.272550
63.580000 1759.570469 1762.230653 1764.902935 1765.279319 1768.769876 1771.831757
63.700000 1761.648113 1764.439449 1767.608235 1767.794085 1771.205793 1774.558768
63.820000 1763.995660 1766.912559 1770.364623 1770.378433 1773.812787 1777.759586
63.960000 1766.663047 1770.254022 1774.262181 1774.376968 1778.743275 1782.130735
64.080000 1771.962250 1776.258438 1780.386039 1780.190906 1784.284684 1786.639561
64.190000 1780.491674 1784.087424 1786.487533 1786.276245 1788.565123 1790.274522
64.280000 1786.490277 1788.382972 1790.042119 1789.860303 1791.248356 1792.364477
64.350000 1790.468825 1791.324324 1792.193592 1792.167428 1793.007526 1793.753269
64.420000 1791.597437 1792.380089 1793.324856 1793.284561 1794.147808 1795.020570
64.540000 1792.911037 1793.746755 1794.638094 1794.669590 1795.608630 1796.597937
64.650000 1794.024461 1794.798452 1795.738290 1795.742289 1796.685225 1797.664297
64.760000 1795.110203 1795.837510 1796.776329 1796.815194 1797.769921 1798.747203
64.860000 1795.867631 1796.849163 1797.810747 1797.841877 1798.868004 1799.883402
64.960000 1796.869889 1797.903264 1798.889412 1798.930719 1799.966032 1801.109790
65.080000 1798.275353 1799.303826 1800.375241 1800.460802 1801.600498 1802.874125
65.160000 1799.406835 1800.514655 1801.678382 1801.800631 1803.122540 1804.672344
65.250000 1800.695502 1801.772167 1803.112792 1803.246825 1804.713899 1806.460632
65.350000 1801.810551 1803.018236 1804.453192 1804.601449 1806.256079 1808.060770
65.440000 1802.806591 1804.131327 1805.685924 1805.803009 1807.624703 1809.537848
65.540000 1803.984920 1805.299377 1807.012444 1807.116080 1808.962952 1810.707381
65.650000 1805.053061 1806.634331 1808.544647 1808.625038 1810.577753 1812.670112
65.750000 1806.429651 1808.016864 1810.006438 1810.046218 1812.047356 1814.253434
65.855000 1807.752973 1809.530404 1811.595327 1811.630035 1813.718971 1815.766823
65.960000 1809.086206 1811.130275 1813.186787 1813.214652 1815.352610 1817.149053
66.060000 1810.648549 1812.784935 1814.789737 1814.770960 1816.916851 1818.496939
66.160000 1812.312934 1814.398156 1816.338896 1816.311646 1818.381968 1819.824134
66.250000 1813.692201 1815.869808 1817.763071 1817.704856 1819.601043 1821.160656
66.350000 1815.033907 1817.346566 1819.271617 1819.196764 1821.002495 1822.675533
66.450000 1816.386486 1818.782247 1820.730635 1820.630357 1822.417448 1824.170822
66.560000 1818.459402 1820.414933 1822.183659 1822.172706 1823.919951 1825.803016
66.650000 1819.746704 1821.593397 1823.338646 1823.334925 1825.146271 1826.798960
66.740000 1821.045967 1822.877299 1824.479519 1824.553843 1826.375145 1828.064816
66.850000 1822.586700 1824.283795 1825.898437 1825.982343 1827.715849 1829.755855
66.940000 1823.799403 1825.386386 1827.153023 1827.232348 1829.116995 1831.259367
67.030000 1824.894945 1826.555158 1828.353692 1828.532539 1830.512959 1833.482302
67.140000 1826.445496 1828.143909 1830.038265 1830.360645 1832.578649 1835.503880
67.240000 1828.303911 1829.803602 1832.083157 1832.331075 1834.873662 1837.575207
67.340000 1829.887096 1831.799126 1834.261718 1834.468717 1837.214626 1839.855132
67.410000 1831.299630 1833.365437 1836.066182 1836.028183 1838.685681 1841.181365
67.520000 1833.522899 1835.627374 1838.391943 1838.306830 1840.909371 1843.070126
67.560000 1834.345013 1836.533203 1839.370050 1839.152200 1841.637442 1843.716563
67.645000 1835.998962 1838.423418 1840.994597 1840.801932 1843.157923 1845.035308
67.730000 1837.611755 1840.161744 1842.502912 1842.368157 1844.539800 1846.249500
67.850000 1839.865012 1842.372242 1844.402891 1844.264539 1846.227020 1847.746362
67.950000 1841.603016 1843.975396 1845.861517 1845.730605 1847.560751 1849.059640
68.050000 1843.141765 1845.344402 1847.065820 1847.001069 1848.682978 1850.104610
68.150000 1844.670544 1846.732595 1848.314261 1848.251158 1849.752058 1851.066331
68.250000 1846.437842 1848.015395 1849.494221 1849.438175 1850.809731 1852.104537
68.350000 1847.809949 1849.106779 1850.481454 1850.479677 1851.890630 1853.145951
68.450000 1848.880499 1850.115389 1851.437444 1851.468620 1852.858706 1854.168513
68.550000 1849.751774 1851.039736 1852.394990 1852.446023 1853.892124 1855.270462
68.650000 1850.785842 1851.982791 1853.441409 1853.458193 1854.945440 1856.601576
68.750000 1851.738529 1852.979300 1854.475253 1854.587288 1856.157820 1858.060183
68.850000 1852.780245 1854.122041 1855.681909 1855.822790 1857.528018 1859.651926
68.950000 1854.004032 1855.450996 1857.142983 1857.292247 1859.128439 1861.187739
69.050000 1855.081748 1856.804127 1858.804462 1858.836918 1860.768919 1862.806704
69.150000 1856.631904 1858.531226 1860.428748 1860.423591 1862.347899 1864.241720
69.250000 1858.202088 1860.019483 1861.873656 1861.875894 1863.704213 1865.459450
69.350000 1859.670118 1861.511723 1863.364337 1863.323132 1865.106687 1866.729135
69.450000 1861.164341 1862.874476 1864.720233 1864.667390 1866.412470 1868.103166
69.550000 1862.499985 1864.304232 1865.981602 1865.938843 1867.571264 1869.290602
69.650000 1863.978222 1865.538387 1867.153534 1867.203898 1868.944502 1870.696156
69.750000 1865.222464 1866.874254 1868.449990 1868.513524 1870.358586 1871.953686
69.850000 1866.511070 1868.170891 1869.824673 1869.906190 1871.753550 1873.471030
69.950000 1867.795206 1869.559266 1871.343815 1871.425100 1873.361931 1875.271646
70.050000 1868.959092 1870.966113 1873.034847 1873.032447 1875.061429 1877.392387
70.150000 1870.505048 1872.440281 1874.686514 1874.672005 1876.801395 1879.278644
70.250000 1872.267053 1874.110646 1876.483213 1876.557265 1878.866287 1881.607518
70.350000 1873.862648 1876.324133 1878.635254 1878.676881 1880.981628 1883.870723
70.450000 1876.072715 1878.767841 1881.068589 1881.180992 1883.557002 1886.402478
70.550000 1878.698785 1880.907798 1883.232575 1883.406792 1885.990142 1888.724612
70.650000 1880.719483 1883.022876 1885.199732 1885.415126 1888.166656 1890.561469
70.750000 1882.450855 1884.651364 1887.175037 1887.250350 1889.967946 1892.134396
70.850000 1884.255627 1886.412643 1888.960184 1889.076048 1891.874488 1894.004981
70.950000 1885.855199 1888.151280 1890.977314 1890.903889 1893.652225 1895.772375
71.050000 1887.580367 1890.018896 1892.934423 1892.834296 1895.492671 1897.813984
71.150000 1889.402898 1891.930493 1895.076812 1894.885875 1897.627595 1899.648896
71.250000 1891.280617 1894.138114 1897.452797 1897.166301 1900.113556 1902.273877
71.350000 1893.921813 1896.679140 1900.133911 1900.028880 1903.278539 1905.805178
71.450000 1896.888877 1900.201331 1903.611426 1903.595331 1906.994044 1909.636659
71.550000 1902.456237 1905.860900 1909.126498 1908.782264 1911.605444 1913.653180
71.650000 1908.899364 1911.780536 1913.633094 1913.453200 1915.145619 1916.583611
71.750000 1915.178918 1916.074011 1916.959771 1916.927900 1917.759225 1918.671499
71.850000 1917.329998 1918.295405 1919.347798 1919.423051 1920.482761 1922.388820
71.950000 1919.017224 1919.958798 1921.147240 1921.383238 1922.845056 1924.773306
72.050000 1920.585028 1921.536508 1923.097579 1923.270589 1925.044708 1926.841745
72.140000 1921.851772 1922.969136 1924.589195 1924.811923 1926.734250 1928.583313
72.250000 1923.376822 1924.720415 1926.655431 1926.726414 1928.702744 1930.615401
72.350000 1925.136305 1926.718503 1928.746160 1928.726275 1930.610586 1932.603668
72.450000 1926.935892 1928.891798 1930.745743 1930.746961 1932.622907 1934.158100
72.550000 1929.139117 1930.742608 1932.729554 1932.654472 1934.441681 1936.274468
72.650000 1930.788186 1932.724316 1934.432498 1934.452293 1936.177265 1937.752840
72.750000 1932.557086 1934.247380 1936.033413 1936.061764 1937.885433 1939.759024
72.850000 1934.119244 1935.620992 1937.452636 1937.506168 1939.297394 1941.323457
72.950000 1935.357719 1936.855460 1938.833322 1938.939581 1940.995916 1942.819875
73.050000 1936.762493 1938.285421 1940.216830 1940.351239 1942.496838 1944.198746
73.150000 1938.206419 1939.752863 1941.828034 1941.904278 1944.192852 1945.811575
73.250000 1939.487224 1941.249135 1943.412586 1943.526970 1945.886889 1947.685568
73.350000 1940.961100 1943.039993 1945.537594 1945.602125 1948.200847 1949.909310
73.450000 1942.967430 1945.801941 1948.909064 1948.532012 1951.043376 1952.559964
73.550000 1948.675678 1951.152300 1952.914138 1952.701508 1954.315232 1955.323470
73.650000 1954.230602 1955.132871 1956.033779 1956.001234 1956.827084 1957.795492
73.750000 1956.103672 1957.370928 1958.564924 1958.759067 1960.172165 1962.599636
73.850000 1957.919571 1959.219905 1960.718288 1961.012697 1962.932536 1965.224942
73.950000 1959.607268 1960.995394 1962.769273 1963.039219 1965.188486 1967.289341
74.050000 1961.193026 1962.664263 1964.706644 1964.892753 1967.220185 1969.223516
74.150000 1962.848727 1964.514251 1966.782371 1966.798930 1969.135916 1970.812901
74.250000 1964.677281 1966.349983 1968.726999 1968.608278 1970.808516 1972.380444
74.350000 1966.511770 1968.349645 1970.654898 1970.480881 1972.483595 1973.865586
74.450000 1968.575594 1970.660475 1972.680959 1972.503550 1974.248380 1975.701828
74.550000 1970.962899 1973.026626 1974.863118 1974.736212 1976.340539 1978.006252
74.650000 1973.894955 1975.516949 1976.932576 1976.944357 1978.303704 1979.959992
74.750000 1976.234842 1977.467799 1979.006796 1979.048470 1980.516483 1982.189696
74.850000 1977.699330 1979.021660 1980.559927 1980.625875 1982.242553 1983.677031
74.950000 1979.068985 1980.357952 1981.940172 1981.964759 1983.586982 1985.267207
75.050000 1980.526406 1981.685980 1983.240927 1983.300755 1984.874963 1986.488391
75.150000 1981.822255 1983.042006 1984.567768 1984.606263 1986.113178 1987.910780
75.250000 1983.031091 1984.398312 1986.005738 1985.961302 1987.459010 1989.336564
75.350000 1983.989997 1985.596153 1987.181737 1987.189200 1988.786018 1990.347768
75.450000 1985.102415 1986.715202 1988.244561 1988.310945 1989.920637 1991.682208
75.550000 1986.139117 1987.811857 1989.278895 1989.392608 1991.094397 1992.949533
75.650000 1987.325317 1988.911135 1990.502016 1990.576129 1992.298552 1994.247388
75.750000 1988.396507 1989.984447 1991.728120 1991.845531 1993.730371 1996.029316
75.850000 1989.540239 1991.225934 1993.182646 1993.424708 1995.605532 1998.905706
75.950000 1990.798128 1992.568014 1994.835226 1995.301560 1997.979655 2002.898566
76.050000 1992.614536 1994.591051 1997.645281 1998.422474 2002.898953 2006.928867
76.150000 1995.750409 1998.557989 2003.286645 2003.129764 2007.407607 2010.454991
76.220000 1998.617254 2002.943277 2006.865044 2006.542299 2010.092151 2012.660993
76.270000 2001.224667 2005.725064 2008.971476 2008.793902 2011.866818 2014.573261
76.330000 2005.013754 2008.666955 2011.412653 2011.284981 2014.148012 2016.436088
76.390000 2008.294368 2011.280303 2013.728131 2013.732993 2016.246401 2018.272933
76.440000 2011.114299 2013.342391 2015.864504 2015.790683 2018.221483 2020.119091
76.470000 2012.287647 2014.541912 2016.949581 2016.833561 2019.207548 2020.804268
76.540000 2014.539717 2016.637482 2018.886582 2018.710558 2020.731084 2022.318503
76.630000 2017.429557 2019.169533 2020.921209 2020.851232 2022.528744 2024.126602
76.760000 2020.348754 2021.851220 2023.435503 2023.383210 2024.946100 2026.306305
76.850000 2022.160228 2023.404030 2024.849416 2024.868282 2026.346765 2027.768725
76.950000 2023.572305 2024.896171 2026.302524 2026.295563 2027.698350 2029.043742
