depth(m) lower_95(kyr) lower_68(kyr) median(kyr) mean(kyr) upper_68(kyr) upper_95(kyr)
166.190000 1493.881555 1497.330008 1499.993334 1499.718968 1502.072172 1503.882563
166.290000 1495.788688 1498.988617 1501.541549 1501.203189 1503.564069 1505.187510
166.390000 1497.522376 1500.515851 1502.871849 1502.661662 1504.930241 1506.570605
166.490000 1499.387106 1501.806998 1504.171860 1504.037141 1506.253706 1507.999146
166.620000 1501.874330 1503.844134 1506.186918 1506.131196 1508.453796 1510.051023
166.690000 1503.238406 1505.190754 1507.587831 1507.510006 1509.796659 1511.246450
166.785000 1505.240586 1507.715866 1510.035389 1509.838911 1511.923884 1513.415914
166.885000 1508.560467 1510.712486 1512.910677 1512.727559 1514.648024 1516.429938
166.985000 1511.738544 1513.584447 1515.417535 1515.421975 1517.204260 1519.479297
167.085000 1514.280103 1515.917582 1517.721212 1517.798195 1519.679243 1521.890069
167.185000 1516.239916 1517.923633 1519.879042 1519.929368 1521.945023 1523.782510
167.285000 1518.211248 1520.150442 1522.038902 1522.138572 1524.236720 1526.019705
167.385000 1520.612999 1522.379698 1524.363334 1524.381448 1526.427148 1528.040121
167.485000 1522.643114 1524.604664 1526.579780 1526.469730 1528.275994 1529.761087
167.585000 1524.621784 1526.422929 1528.456121 1528.297803 1530.019826 1531.267353
167.685000 1526.388586 1528.098273 1529.821552 1529.674679 1531.226066 1532.311962
167.785000 1527.930978 1529.430107 1530.949795 1530.822886 1532.161381 1533.228262
167.885000 1529.475537 1530.764616 1531.946151 1531.876122 1532.989809 1534.068556
167.985000 1530.578872 1531.791701 1532.782271 1532.771299 1533.808196 1534.693777
168.085000 1531.596819 1532.593636 1533.555478 1533.518247 1534.430827 1535.415197
168.185000 1532.405269 1533.301020 1534.199957 1534.166568 1535.043575 1535.975326
168.285000 1533.085817 1533.897467 1534.767835 1534.780476 1535.642392 1536.555369
168.385000 1533.762753 1534.588280 1535.397257 1535.426013 1536.289313 1537.176784
168.485000 1534.315852 1535.196010 1535.994047 1536.018030 1536.878332 1537.721155
168.585000 1534.888917 1535.776618 1536.610002 1536.623829 1537.513097 1538.353439
168.685000 1535.534832 1536.369875 1537.216877 1537.250698 1538.145446 1538.982819
168.785000 1536.149438 1536.997536 1537.884091 1537.898303 1538.833365 1539.707879
168.885000 1536.807174 1537.657734 1538.595422 1538.585654 1539.515014 1540.441078
168.985000 1537.437007 1538.410173 1539.338357 1539.317217 1540.220933 1541.157266
169.085000 1538.287182 1539.148259 1540.145017 1540.133119 1541.110509 1541.945058
169.185000 1539.167677 1540.040975 1541.086256 1541.068435 1542.073568 1543.041611
169.285000 1539.997869 1541.028270 1542.104136 1542.122993 1543.165784 1544.390101
169.385000 1540.854789 1541.972690 1543.113218 1543.138353 1544.267437 1545.665856
169.485000 1541.788084 1543.055950 1544.261245 1544.302061 1545.581675 1546.953438
169.585000 1543.133366 1544.320514 1545.576099 1545.678726 1547.079011 1548.502086
169.685000 1544.622075 1545.738095 1547.147304 1547.207976 1548.656525 1550.219860
169.785000 1545.733025 1547.148756 1548.678300 1548.725913 1550.237641 1551.968271
169.885000 1547.086496 1548.616543 1550.203607 1550.206041 1551.794007 1553.798003
169.985000 1548.472155 1550.023568 1551.575350 1551.664355 1553.349194 1555.219559
170.085000 1549.780548 1551.373731 1552.975378 1553.083766 1554.845831 1556.483169
170.185000 1551.078370 1552.686725 1554.454327 1554.457645 1556.252563 1557.881032
170.285000 1552.638496 1554.074325 1555.888379 1555.825162 1557.502827 1559.132534
170.385000 1553.964445 1555.479104 1557.226458 1557.174548 1558.833682 1560.286848
170.485000 1555.155578 1556.950748 1558.641706 1558.611529 1560.285139 1561.943579
170.585000 1556.476751 1558.308620 1560.149291 1560.111674 1561.795181 1563.429204
170.685000 1558.188969 1559.993417 1561.712494 1561.654551 1563.392146 1564.783146
170.785000 1559.585292 1561.432411 1563.187054 1563.113850 1564.847778 1566.298154
170.885000 1561.047090 1562.961904 1564.759888 1564.651441 1566.358710 1567.578595
170.985000 1562.748825 1564.576838 1566.446249 1566.313375 1567.969807 1569.304392
171.085000 1564.435487 1566.518097 1568.074527 1568.041719 1569.665162 1571.228031
171.185000 1567.003998 1568.703151 1570.143170 1570.244568 1571.793711 1573.456024
171.285000 1569.383108 1570.788157 1572.426297 1572.431108 1574.016625 1575.800146
171.385000 1571.270744 1572.644595 1574.320021 1574.326162 1575.984123 1577.696851
171.485000 1572.966990 1574.468697 1576.211119 1576.197889 1577.825002 1579.360230
171.585000 1574.774438 1576.629417 1578.223998 1578.223027 1579.846339 1581.670957
171.685000 1577.048857 1578.917508 1580.585782 1580.646259 1582.233450 1585.157644
171.785000 1579.494506 1581.287134 1583.056412 1583.339037 1585.293047 1588.983550
171.885000 1582.233077 1583.897211 1586.097934 1586.450096 1589.062856 1592.514602
171.985000 1584.956722 1586.729062 1589.461167 1589.595222 1592.552997 1595.240752
172.085000 1587.352738 1589.899300 1592.860055 1592.725219 1595.437962 1597.481297
172.185000 1590.422477 1593.280386 1595.868412 1595.625089 1597.856085 1599.851003
172.285000 1593.692103 1596.270627 1598.523257 1598.387661 1600.350401 1602.520162
172.385000 1596.560853 1598.654110 1600.689544 1600.664689 1602.559167 1605.192327
172.485000 1599.059209 1600.657960 1602.700481 1602.784456 1604.866610 1607.347165
172.585000 1600.814227 1602.680787 1604.745347 1604.900699 1607.304830 1609.586053
172.685000 1602.680167 1604.751845 1607.110570 1607.187967 1609.723751 1612.037518
172.785000 1605.064649 1607.072611 1609.601593 1609.573449 1611.999213 1614.084041
172.885000 1607.291041 1609.404827 1611.863664 1611.802925 1614.164822 1616.144588
172.985000 1609.175358 1611.607420 1613.918877 1613.863103 1616.011786 1618.030056
173.085000 1611.465406 1613.632896 1615.778586 1615.701600 1617.678426 1619.636650
173.185000 1613.294476 1615.444644 1617.483557 1617.403338 1619.291730 1621.046658
173.285000 1615.187492 1617.197495 1619.044987 1619.053248 1620.872183 1623.120852
173.385000 1616.874626 1618.829209 1620.532159 1620.583796 1622.307579 1624.644133
173.485000 1618.487744 1620.368333 1622.037697 1622.078262 1623.757161 1625.947752
173.585000 1620.007388 1621.724102 1623.428189 1623.553524 1625.395877 1627.412377
173.685000 1621.279053 1623.166631 1624.873611 1624.996001 1626.926111 1628.963969
173.785000 1622.773104 1624.507443 1626.343427 1626.491803 1628.572730 1631.139732
173.885000 1624.176796 1625.843082 1627.863793 1628.030214 1630.194397 1632.930965
173.985000 1625.753824 1627.488116 1629.541565 1629.781350 1632.057320 1634.784892
174.085000 1627.325568 1629.347172 1631.466603 1631.651324 1634.064956 1636.587982
174.185000 1628.999409 1631.062729 1633.470678 1633.625306 1636.165387 1638.650306
174.285000 1630.557158 1633.072160 1635.627527 1635.644812 1638.200274 1640.840559
174.385000 1632.452655 1635.093574 1637.855069 1637.797249 1640.372133 1642.740616
174.485000 1634.385812 1637.351985 1640.378043 1640.174356 1642.842608 1645.426255
174.585000 1636.990692 1639.797543 1642.657206 1642.473859 1644.916519 1647.418056
174.685000 1639.309499 1642.229239 1644.645484 1644.578846 1647.024737 1649.041310
174.785000 1641.460729 1644.362342 1646.461581 1646.487564 1648.811844 1650.907873
174.885000 1643.752593 1646.313204 1648.394887 1648.335638 1650.487556 1652.243195
174.985000 1645.809921 1648.193342 1650.184034 1650.124553 1652.052715 1653.871917
175.085000 1647.640916 1649.909109 1651.777188 1651.708065 1653.450844 1655.427630
175.185000 1649.508436 1651.389478 1653.100109 1653.118454 1654.896296 1656.537016
175.285000 1651.221283 1652.721686 1654.445467 1654.410488 1656.081922 1657.797792
175.385000 1652.387284 1653.962730 1655.630206 1655.632687 1657.302958 1658.868489
175.485000 1653.558354 1655.072779 1656.697197 1656.709862 1658.331955 1659.840979
175.585000 1654.725887 1656.191835 1657.880410 1657.807254 1659.361039 1660.665741
175.685000 1655.788928 1657.316198 1658.928916 1658.876860 1660.404750 1661.613858
175.785000 1656.795240 1658.444315 1659.945333 1659.912829 1661.458462 1662.683772
175.885000 1658.066756 1659.456151 1660.961835 1660.942531 1662.501570 1663.697391
175.985000 1659.172097 1660.544769 1662.023103 1661.992073 1663.443121 1664.648869
176.085000 1660.279240 1661.653374 1663.045517 1663.052726 1664.513969 1665.772408
176.185000 1661.267840 1662.681713 1664.155985 1664.118940 1665.541291 1666.809775
176.285000 1662.357109 1663.873205 1665.335759 1665.266519 1666.660775 1668.189523
176.385000 1663.480718 1665.164678 1666.617352 1666.632694 1668.070994 1669.809172
176.485000 1665.201257 1666.949094 1668.473908 1668.543923 1670.193586 1672.135926
176.585000 1667.506573 1669.021332 1670.604447 1670.743703 1672.524313 1674.499382
176.685000 1669.354318 1670.805204 1672.596947 1672.663515 1674.475192 1676.653462
176.785000 1670.658008 1672.514991 1674.337776 1674.395998 1676.317281 1678.202714
176.885000 1672.430241 1674.240555 1676.014273 1676.039260 1677.833603 1679.675726
176.985000 1674.023044 1675.674432 1677.498794 1677.495524 1679.232637 1681.135379
177.085000 1675.404939 1677.084725 1678.921467 1678.932951 1680.807631 1682.715043
177.185000 1676.739785 1678.311182 1680.180130 1680.263379 1682.196761 1684.258906
177.285000 1678.076793 1679.676337 1681.576301 1681.661862 1683.587595 1685.889873
177.385000 1679.409074 1681.147973 1683.133249 1683.239943 1685.231719 1687.728110
177.485000 1681.024611 1682.846387 1685.004854 1685.100490 1687.321336 1690.048564
177.585000 1683.132717 1685.104142 1687.280271 1687.389442 1689.696147 1692.062852
177.685000 1684.929806 1687.023140 1689.477551 1689.484361 1692.011674 1693.915501
177.785000 1686.567431 1689.055328 1691.579797 1691.589630 1694.191266 1696.110460
177.885000 1688.862227 1691.372768 1693.891833 1693.859549 1696.324677 1698.172285
177.985000 1691.624580 1693.879742 1696.322970 1696.186069 1698.428917 1700.112666
178.085000 1694.624150 1696.853133 1698.962675 1698.814857 1700.689910 1702.274067
178.185000 1696.977246 1699.023271 1700.805726 1700.761181 1702.564124 1704.050073
178.285000 1698.837121 1700.987362 1702.609181 1702.548466 1704.175600 1705.686324
178.385000 1700.718027 1702.572937 1704.179936 1704.172891 1705.765815 1707.527950
178.485000 1702.701439 1704.263879 1705.868030 1705.863002 1707.403844 1709.146764
178.585000 1704.237464 1705.864929 1707.464926 1707.453972 1709.053522 1710.572393
178.685000 1705.917875 1707.452241 1709.059264 1709.053192 1710.679663 1712.194306
178.785000 1707.473941 1709.072462 1710.621907 1710.616137 1712.204665 1713.887055
178.885000 1709.014129 1710.520901 1712.043494 1712.083335 1713.688961 1715.386659
178.985000 1710.548493 1712.111252 1713.555660 1713.641800 1715.295780 1716.717004
179.085000 1712.189837 1713.791242 1715.295469 1715.288508 1716.888171 1718.381722
179.185000 1713.911852 1715.327512 1716.836315 1716.832210 1718.370790 1719.846465
179.285000 1715.305482 1716.718751 1718.158732 1718.169764 1719.749880 1720.929948
179.385000 1716.487973 1717.998541 1719.468331 1719.480800 1720.986173 1722.463181
179.485000 1717.700726 1719.268461 1720.814727 1720.832499 1722.469008 1723.945343
179.585000 1719.195710 1720.584787 1722.198865 1722.236886 1723.869487 1725.738490
179.685000 1720.548046 1722.024035 1723.659356 1723.739424 1725.531389 1727.267256
179.785000 1721.796808 1723.433783 1725.125297 1725.179816 1726.975240 1728.734376
179.885000 1722.947951 1724.790666 1726.515972 1726.547135 1728.349453 1730.097663
179.985000 1724.335451 1726.127389 1727.909483 1727.915362 1729.664074 1731.830366
180.085000 1725.768950 1727.507640 1729.275798 1729.310169 1731.106705 1733.327810
180.185000 1727.106981 1728.923252 1730.655275 1730.749516 1732.614377 1735.029294
180.285000 1728.622426 1730.297014 1732.102332 1732.254281 1734.262160 1736.469730
180.385000 1730.048034 1731.724469 1733.701054 1733.789130 1735.917928 1738.081424
180.485000 1731.580813 1733.266668 1735.336128 1735.404568 1737.491295 1739.833259
180.585000 1733.043032 1734.891277 1737.121203 1737.106634 1739.212436 1741.214932
180.685000 1734.525136 1736.482641 1738.959977 1738.856664 1741.001114 1743.090502
180.785000 1736.446778 1738.558936 1740.900803 1740.799618 1743.001319 1745.017687
180.885000 1738.690574 1740.825302 1743.006040 1742.987235 1745.129581 1747.033444
180.985000 1740.769725 1742.932434 1744.968414 1744.949907 1747.039988 1748.897326
181.085000 1742.909063 1744.722223 1746.722820 1746.760086 1748.791573 1750.539654
181.185000 1744.501559 1746.557023 1748.484840 1748.451483 1750.430137 1752.054951
181.285000 1746.139474 1748.178303 1750.271278 1750.157821 1752.083974 1753.890689
181.385000 1747.893872 1749.893119 1752.046233 1751.993460 1753.992651 1756.090537
181.485000 1749.576886 1751.648770 1753.679912 1753.699067 1755.637231 1757.912664
181.585000 1751.297288 1753.213349 1755.304374 1755.332592 1757.368491 1759.737652
181.685000 1752.774211 1754.736948 1756.756502 1756.798066 1758.897710 1761.117388
181.785000 1754.246887 1756.186529 1758.292508 1758.306999 1760.471972 1762.723152
181.885000 1756.051396 1757.940345 1759.939722 1759.946474 1762.071313 1763.965513
181.985000 1757.795086 1759.549365 1761.555309 1761.619043 1763.679301 1765.921094
182.085000 1759.154068 1761.046667 1763.113406 1763.182248 1765.295951 1767.437921
182.185000 1760.602333 1762.568308 1764.628839 1764.680911 1766.829244 1768.934167
182.285000 1762.032052 1763.859549 1766.112688 1766.152838 1768.438856 1770.509067
182.385000 1763.309926 1765.403023 1767.672677 1767.667202 1769.863663 1771.987379
182.485000 1764.821955 1766.844903 1769.185733 1769.202679 1771.480193 1773.485374
182.585000 1766.248029 1768.501576 1770.737891 1770.792670 1773.102395 1775.397940
182.685000 1768.029700 1770.350849 1772.550467 1772.622167 1774.994124 1777.587916
182.785000 1769.468855 1772.062662 1774.491247 1774.539531 1777.074043 1779.699027
182.885000 1771.611339 1774.345013 1776.718321 1776.821010 1779.454541 1781.801256
182.985000 1773.836888 1776.515566 1779.030709 1778.995684 1781.529433 1783.939786
183.085000 1776.476985 1778.840939 1781.357180 1781.294988 1783.703233 1785.670192
183.185000 1778.945109 1781.294189 1783.659165 1783.491155 1785.641531 1787.332235
183.285000 1781.424098 1783.622583 1785.777791 1785.605222 1787.528196 1788.925662
183.385000 1783.775240 1785.722181 1787.750331 1787.517954 1789.181315 1790.412826
183.485000 1785.942766 1787.809042 1789.459147 1789.269785 1790.613742 1791.823152
183.585000 1788.398983 1789.896421 1791.051843 1790.945306 1791.931380 1792.868072
183.685000 1790.881149 1791.690730 1792.460468 1792.465050 1793.218257 1794.077655
183.785000 1791.850540 1792.718779 1793.592633 1793.595456 1794.448494 1795.313820
183.885000 1792.760901 1793.740835 1794.659747 1794.706764 1795.688245 1796.700775
183.985000 1793.790551 1794.754756 1795.756052 1795.792587 1796.837665 1797.990069
184.085000 1794.855570 1795.859961 1796.913423 1796.967971 1798.040856 1799.187458
184.185000 1795.931073 1797.062681 1798.278192 1798.253424 1799.396679 1800.604921
184.285000 1797.375875 1798.573869 1799.659568 1799.697713 1800.893197 1801.974513
184.385000 1798.714907 1799.674842 1800.774528 1800.837207 1801.981229 1803.198753
184.485000 1799.791398 1800.845678 1801.896189 1801.946399 1803.060544 1804.358912
184.585000 1800.937251 1801.828640 1802.833577 1802.904162 1803.994436 1805.398948
184.685000 1801.749332 1802.585397 1803.670264 1803.778053 1804.967453 1806.511549
184.785000 1802.499960 1803.356543 1804.451789 1804.587439 1805.874365 1807.415806
184.885000 1803.116297 1804.041296 1805.243874 1805.372791 1806.738352 1808.586814
184.985000 1803.726226 1804.729155 1806.044315 1806.152385 1807.607143 1809.412335
185.126667 1804.640945 1805.665115 1807.159141 1807.271486 1808.798035 1810.738522
185.268333 1805.443681 1806.651557 1808.375927 1808.475792 1810.208234 1812.250546
185.410000 1806.344592 1807.774185 1809.535768 1809.696290 1811.572445 1814.067404
185.551667 1807.264872 1808.850633 1810.761533 1810.921354 1812.961901 1815.685595
185.693333 1808.472335 1809.966811 1812.032527 1812.205274 1814.425119 1816.856460
185.835000 1809.573275 1811.202719 1813.346229 1813.479128 1815.984275 1818.013514
185.976667 1810.764399 1812.346501 1814.750488 1814.818099 1817.261668 1819.218616
186.118333 1811.608728 1813.707831 1816.095630 1816.113480 1818.563317 1820.379809
186.260000 1812.790430 1815.200469 1817.467771 1817.487307 1819.884697 1821.565289
186.401667 1814.303659 1816.472667 1818.837550 1818.835806 1821.167704 1822.865877
186.543333 1815.718454 1817.941907 1820.333177 1820.250040 1822.628584 1824.300775
186.685000 1816.753637 1819.254774 1821.851495 1821.712014 1824.108060 1825.923218
186.826667 1818.488173 1820.688330 1823.361131 1823.226412 1825.675084 1827.633452
186.968333 1819.840785 1822.191515 1824.943733 1824.868547 1827.457335 1829.811405
187.110000 1821.292215 1824.049709 1826.731436 1826.743609 1829.457912 1832.098686
187.251667 1822.696985 1825.833566 1828.775665 1828.775002 1831.784767 1834.578075
187.393333 1825.004154 1827.863530 1831.123058 1831.152841 1834.416996 1837.699334
187.535000 1826.946318 1830.149505 1833.902383 1833.893083 1837.569019 1841.161445
187.635000 1828.370505 1831.865318 1836.124139 1836.144476 1840.239347 1844.309212
187.735000 1830.346864 1834.059611 1838.666044 1838.635071 1843.122070 1847.168454
187.835000 1832.717552 1836.500526 1841.537113 1841.357689 1845.875308 1849.915499
187.935000 1834.683476 1839.807439 1844.528638 1844.337388 1848.925484 1852.659460
188.035000 1837.871194 1842.683095 1847.531148 1847.273929 1851.778659 1856.153990
188.135000 1841.391396 1845.668378 1850.356604 1850.241687 1854.658405 1859.763885
188.235000 1844.463345 1848.678210 1853.295165 1853.325728 1857.849475 1862.885284
188.335000 1847.632865 1851.957408 1856.570357 1856.729228 1861.571307 1867.093787
188.475000 1851.580872 1856.786287 1861.775676 1862.053718 1867.553998 1873.281988
188.615000 1856.295213 1861.870019 1867.893368 1867.966938 1874.099072 1879.524023
188.755000 1862.288493 1867.934563 1874.670206 1874.105944 1880.034661 1884.171057
188.895000 1869.908958 1874.768473 1880.699744 1880.169431 1885.131240 1888.924190
189.035000 1876.917226 1881.331793 1886.112866 1885.766216 1889.875583 1893.201504
189.135000 1881.099074 1885.714152 1889.795101 1889.504116 1893.279073 1896.454998
189.235000 1884.670214 1889.359711 1893.387582 1893.137726 1896.942315 1899.683350
189.335000 1888.934873 1893.365461 1897.236983 1897.029655 1900.559586 1903.545530
189.435000 1894.034375 1898.855472 1901.906291 1901.743953 1904.889191 1907.512176
189.535000 1900.899452 1903.852621 1906.723638 1906.522052 1909.121682 1911.343797
189.635000 1906.333891 1908.663611 1910.854761 1910.664145 1912.598317 1914.031121
189.735000 1910.270825 1912.223832 1913.655497 1913.536494 1914.849091 1915.860427
189.835000 1914.162791 1914.890400 1915.683034 1915.653117 1916.406466 1916.956291
189.935000 1915.175999 1915.965711 1916.738872 1916.705064 1917.431289 1918.133219
190.035000 1916.132641 1916.886823 1917.654466 1917.621060 1918.334533 1919.205780
190.135000 1917.064170 1917.787253 1918.526630 1918.555866 1919.256149 1920.334431
190.235000 1917.929876 1918.676322 1919.453100 1919.515451 1920.341800 1921.541858
190.335000 1918.828028 1919.586400 1920.423352 1920.505371 1921.436756 1922.720342
190.435000 1919.826620 1920.506140 1921.450736 1921.566114 1922.663830 1923.877240
190.535000 1920.644837 1921.483153 1922.500646 1922.655166 1923.905478 1925.308610
190.635000 1921.353789 1922.310804 1923.532802 1923.646977 1924.933791 1926.431419
190.685000 1921.835734 1922.774554 1924.087136 1924.212360 1925.588669 1926.965734
190.785000 1922.720358 1923.885908 1925.325066 1925.368719 1926.877911 1928.341376
190.885000 1923.688567 1925.037007 1926.667891 1926.662413 1928.216942 1930.065313
