depth(m) lower_95(kyr) lower_68(kyr) median(kyr) mean(kyr) upper_68(kyr) upper_95(kyr)
19.500000 300.034042 303.560858 306.494740 306.339584 309.124129 311.299858
19.600000 302.652487 305.540382 308.262123 308.093824 310.700421 312.614324
19.700000 304.602812 307.302108 309.867941 309.750357 312.290914 314.145267
19.800000 306.548227 308.945706 311.404281 311.359648 313.855668 315.977939
19.900000 308.196568 310.809831 313.303810 313.191233 315.561540 317.905476
20.000000 310.605870 312.911469 315.267990 315.233813 317.551326 319.453550
20.100000 312.640586 315.110036 317.244331 317.167084 319.394284 320.936955
20.200000 314.719680 316.938606 319.126228 318.986555 320.998255 322.439000
20.300000 316.739258 318.938942 320.894606 320.739281 322.529407 323.960647
20.400000 319.010741 320.868951 322.535978 322.429269 323.986163 325.450291
20.500000 321.332049 322.870691 324.146052 324.123673 325.350474 326.608915
20.600000 323.288153 324.380563 325.523685 325.560407 326.692883 328.066705
20.700000 324.623509 325.700996 326.795210 326.843786 328.011533 329.237854
20.800000 325.917898 326.908194 328.060235 328.099067 329.250065 330.394689
20.900000 327.132627 328.159885 329.302829 329.350706 330.568646 331.556338
21.000000 328.188064 329.403663 330.680280 330.663100 331.908088 333.053611
21.133333 329.679606 331.091204 332.602076 332.777205 334.363396 337.052335
21.266667 331.231021 332.782046 334.488799 334.896833 337.148490 340.657330
21.400000 332.911622 334.546265 336.511169 337.068262 339.878132 343.656673
21.533333 334.638994 336.241657 338.615407 339.201878 342.311756 345.948082
21.666667 336.414245 338.255212 340.940106 341.413065 344.746934 348.443950
21.800000 338.267698 340.218107 343.132173 343.579289 346.971945 350.743699
21.900000 339.406392 341.670914 344.802600 345.161511 348.603158 352.470721
22.000000 340.674567 343.152808 346.531664 346.754328 350.356655 353.837676
22.106667 342.253704 344.861282 348.369448 348.400436 351.863791 355.505167
22.213333 343.687160 346.565437 349.972753 350.041682 353.644813 356.959524
22.320000 345.248918 348.272976 351.613781 351.682810 355.309104 358.377816
22.420000 347.047758 350.145239 353.249902 353.342008 356.822127 359.764560
22.520000 348.657560 351.803757 354.837176 354.924453 358.258061 361.139054
22.620000 350.446928 353.648877 356.545305 356.647404 359.840156 362.418454
22.720000 352.370297 355.412864 358.284714 358.391542 361.455167 363.900091
22.820000 354.561174 357.292794 360.169087 360.129096 363.034145 365.471800
22.920000 356.516457 359.257611 361.883877 361.847627 364.464203 367.108897
23.020000 358.562719 360.932108 363.459983 363.512967 366.133243 368.916166
23.120000 360.383156 362.717135 365.027141 365.159077 367.746191 370.356500
23.220000 362.353198 364.537683 366.707002 366.926832 369.387142 372.229560
23.320000 364.310485 366.552839 368.617952 368.786652 371.132425 374.362279
23.420000 366.065857 368.128718 370.248385 370.457570 372.949027 375.787199
23.520000 367.579736 369.653267 371.855359 372.046636 374.546027 377.252573
23.660000 369.625321 371.845335 374.205999 374.363945 376.961481 380.038035
23.760000 371.397565 373.246056 375.945538 376.054939 378.666695 382.143524
23.860000 373.028241 375.119803 377.630705 377.874608 380.713651 383.884776
23.960000 374.798107 377.044837 379.775950 379.932509 382.941035 385.923933
24.060000 376.655061 379.128015 382.071773 382.246787 385.233087 388.520866
24.160000 378.668183 381.685744 384.991136 385.038280 388.242847 391.916772
24.260000 381.509571 384.655372 388.029232 388.152408 391.623306 395.153568
24.360000 383.932062 387.990651 391.481721 391.427611 395.358513 397.637460
24.460000 387.437961 391.634234 395.721913 395.226560 398.833067 400.914525
24.560000 391.657782 395.982900 399.425273 398.825006 401.453279 403.200318
24.660000 398.796252 400.754606 402.113832 402.111985 403.595731 405.205213
24.760000 401.452465 402.631587 403.855325 403.965885 405.365655 406.787902
24.860000 403.006491 404.078956 405.409364 405.485266 406.871275 408.633295
24.960000 404.301356 405.508261 406.843666 406.902608 408.361453 410.038917
25.060000 405.682412 406.935778 408.228062 408.374063 409.927691 411.716818
25.120000 406.643921 407.936084 409.262584 409.420130 410.911037 413.145277
25.220000 408.375170 409.904440 411.587498 411.635185 413.311513 415.410608
25.320000 411.393695 413.301026 415.191740 415.261842 417.263443 419.499455
25.420000 414.630488 416.411481 418.433544 418.606288 420.802865 423.373893
25.520000 417.599522 419.758316 422.003754 421.975236 424.189960 425.969220
25.620000 420.152003 422.776684 424.839336 424.684359 426.621424 428.252393
25.720000 424.789983 426.598329 428.119008 428.138181 429.675298 431.491071
25.820000 427.915970 429.266362 430.638752 430.820449 432.373547 434.514238
25.920000 429.574460 430.952217 432.569257 432.685445 434.497870 436.605929
26.020000 431.117051 432.352056 434.248958 434.347358 436.318324 438.677225
26.120000 432.420246 433.727670 435.779987 436.015138 438.144458 441.049266
26.220000 433.794349 435.169334 437.455938 437.711332 440.018009 443.438926
26.320000 435.089970 436.781359 439.245000 439.536407 442.202626 445.446615
26.420000 436.494240 438.760716 441.399621 441.756627 444.768548 448.436846
26.520000 438.489111 441.056200 443.961163 444.262328 447.466018 451.954679
26.620000 441.178066 444.133487 447.357366 447.623623 451.305878 455.222343
26.760000 444.524922 447.502390 451.125181 451.522652 455.734797 459.783435
26.860000 446.861169 449.773534 453.816361 454.106265 458.414107 462.772070
26.960000 448.794838 452.140410 456.417453 456.517752 460.856903 465.125438
27.060000 450.753181 454.615203 458.901551 458.940096 463.343312 467.165063
27.160000 452.230091 456.765433 461.308580 461.275513 465.706752 469.377251
27.260000 454.522688 459.305192 463.728035 463.635554 467.887900 471.171726
27.360000 456.588747 461.662928 465.965489 465.815631 469.989328 472.943749
27.460000 458.887055 464.000909 468.080044 467.807989 471.953341 474.550059
27.560000 461.376734 466.246223 470.161713 469.807966 473.783409 476.012305
27.660000 462.936588 468.394211 472.426881 471.850171 475.391154 477.568030
27.760000 464.883857 470.885751 474.626333 474.022813 477.061359 479.156933
27.860000 467.642593 473.367076 476.763730 476.125659 478.955992 480.871433
27.960000 470.202028 475.562609 478.695088 478.095159 480.645115 482.561918
28.080000 472.741732 477.666818 480.436903 479.982527 482.434344 484.310081
28.200000 474.798067 479.443801 482.200724 481.744472 484.084458 486.187685
28.320000 477.135952 481.318999 483.784878 483.431713 485.612759 487.842296
28.440000 479.969031 482.996299 485.401276 485.155231 487.192170 489.311612
28.560000 482.482890 484.912305 486.929146 486.827259 488.618077 490.844621
28.660000 484.814682 486.468498 488.322554 488.307160 489.969024 492.079643
28.760000 486.384291 488.159387 489.797382 489.834998 491.453610 493.471718
28.860000 487.938492 489.707888 491.276845 491.281350 492.933689 494.587823
28.960000 489.375470 491.109076 492.741907 492.730538 494.339093 495.995433
29.060000 490.704195 492.539617 494.197414 494.182263 495.803812 497.540747
29.160000 492.059006 493.958221 495.652211 495.650317 497.274156 499.156891
29.260000 493.489804 495.446541 497.132144 497.078122 498.649120 500.538783
29.360000 494.988487 496.774164 498.541444 498.472350 500.037359 502.081289
29.460000 496.366636 498.207264 499.861563 499.880877 501.502479 503.619186
29.560000 497.824533 499.577244 501.255547 501.294636 502.985592 505.078950
29.660000 499.272845 500.926567 502.696277 502.729330 504.459852 506.543902
29.760000 500.995789 502.617922 504.328497 504.443324 506.240854 508.633247
29.860000 502.496711 504.520990 506.377711 506.640375 508.955453 511.654182
29.960000 504.658665 506.549397 508.782607 508.952717 511.509104 514.082640
30.060000 506.830293 508.589279 511.375840 511.302269 513.876803 516.179965
30.160000 508.400918 510.760689 513.660464 513.474801 516.148505 518.049926
30.260000 510.283054 513.027486 515.761986 515.560302 518.089299 519.924567
30.360000 512.035552 515.194026 517.707477 517.575410 520.097668 521.972013
30.460000 514.559566 517.020621 519.388826 519.358647 521.748890 523.953123
30.560000 516.007356 518.806648 521.065044 521.056936 523.465144 525.380806
30.660000 517.676797 520.461240 522.768257 522.738355 525.271031 527.379207
30.760000 519.571514 522.016739 524.458365 524.434570 526.895904 529.022965
30.860000 521.713042 523.760780 526.150006 526.210860 528.510328 530.835943
30.960000 523.704756 525.799251 528.176283 528.167957 530.501852 533.252549
31.060000 525.560535 527.889964 530.344978 530.350520 532.826104 535.399722
31.160000 527.629925 529.981801 532.457109 532.587038 535.195129 538.536206
31.260000 530.244436 532.733151 535.215604 535.407849 538.246726 541.372794
31.360000 532.349215 535.154577 537.670762 537.841150 540.863926 543.732981
31.460000 534.818339 537.447799 540.237240 540.292471 543.253322 546.025654
31.560000 537.098857 539.695698 542.595974 542.608695 545.567134 548.065077
31.660000 539.162477 542.032768 544.899532 544.864243 547.791993 550.478292
31.760000 541.373043 544.267400 547.318808 547.213572 550.106863 552.592933
31.860000 543.549287 546.544067 549.636671 549.578076 552.489785 555.244024
31.960000 545.960241 548.860427 552.223327 552.123635 555.216633 557.886125
32.060000 548.485561 551.760497 554.935021 554.877333 557.865342 561.202149
32.160000 551.100633 554.472664 557.757664 557.596110 560.628482 563.250953
32.260000 554.053849 557.064085 560.253779 560.013019 562.940558 565.525058
32.360000 556.817638 559.585150 562.829293 562.576169 565.412797 567.919690
32.460000 559.236668 562.286138 565.214590 565.004335 567.588584 569.805580
32.560000 561.343013 564.369197 567.216875 566.980149 569.466819 571.918024
32.660000 563.647252 566.342355 569.125782 568.894741 571.210532 573.569911
32.760000 565.696945 568.528736 571.145285 570.989105 573.264423 575.731532
32.860000 567.936075 570.493421 572.973878 572.923276 575.325374 577.684186
32.960000 569.740708 572.406122 574.837376 574.774812 577.173735 579.347068
33.060000 571.328074 574.270058 576.712000 576.576351 578.835458 580.858641
33.160000 573.591705 576.282136 578.490591 578.379782 580.429069 582.398456
33.260000 576.148186 578.470692 580.245756 580.305686 582.194720 584.194809
33.360000 579.479333 581.198145 582.880331 583.048472 584.877375 587.552698
33.460000 581.806224 583.232268 585.007888 585.240951 587.219524 590.159574
33.560000 583.586568 585.211285 587.153525 587.406260 589.626607 593.014810
33.660000 585.245330 587.136877 589.321850 589.612432 591.977217 595.730411
33.760000 587.548463 589.369743 591.786821 592.085516 594.747789 598.258772
33.860000 589.727221 591.808117 594.472117 594.802164 597.970738 601.553805
33.960000 591.841173 594.304031 597.102038 597.400074 600.770512 603.661260
34.060000 593.756326 596.707098 599.777850 599.833295 603.039715 605.731811
34.160000 595.634942 598.994261 602.411439 602.117429 605.274958 607.465291
34.260000 598.337473 601.354004 604.661486 604.301732 607.145118 608.937827
34.360000 600.637086 603.829189 606.774631 606.491629 609.171579 610.774702
34.460000 602.949417 606.182703 608.948537 608.577016 610.938773 612.406206
34.560000 605.919752 608.402474 610.796974 610.510549 612.511800 613.843527
34.660000 608.024714 610.486066 612.589236 612.318779 614.028782 615.168728
34.760000 609.890512 612.413439 614.259696 614.003971 615.566467 616.521356
34.860000 612.076446 614.170410 615.803992 615.600034 617.037510 618.090786
34.960000 613.995012 616.040502 617.380678 617.279442 618.584424 619.516145
35.060000 616.669598 618.212286 619.340041 619.231017 620.272576 621.242308
35.160000 619.299954 620.332817 621.407668 621.410092 622.469901 623.563253
35.260000 621.019923 622.117063 623.259453 623.413756 624.596266 626.967331
35.360000 622.513609 623.650871 625.039951 625.376262 627.077360 630.662337
35.460000 624.019733 625.165386 626.830770 627.328452 629.675308 633.017250
35.560000 625.321700 626.702873 628.763456 629.208663 631.873206 635.345815
35.660000 626.836081 628.221411 630.684125 631.114581 634.028719 637.512134
35.760000 628.217635 629.971472 632.872413 633.126256 636.295608 639.875186
35.860000 630.004380 631.935196 634.983433 635.174976 638.399924 641.936787
35.960000 631.887422 634.148896 637.118413 637.338775 640.593313 643.861189
36.060000 633.744528 636.424551 639.904236 639.958632 643.436281 646.998854
36.160000 636.311323 639.178198 642.557459 642.660476 646.139136 649.599715
36.260000 638.610049 642.072847 645.611308 645.666265 649.338486 652.839343
36.360000 642.043407 645.004999 648.576848 648.685073 652.391583 655.850488
36.460000 644.935443 648.282061 652.133296 651.991754 655.507541 659.127697
36.560000 648.294481 651.874532 655.338501 655.258473 658.559358 661.900931
36.660000 651.252197 654.887881 658.197212 658.212537 661.538336 665.050525
36.760000 654.115114 657.636345 660.869152 660.835195 664.143241 668.065158
36.860000 656.598162 659.774870 663.095574 663.143565 666.436106 670.067547
36.960000 658.745421 661.873406 665.140516 665.215305 668.569201 672.368950
37.060000 661.254371 664.079832 667.309659 667.399905 670.849942 674.233896
37.160000 663.252115 666.179296 669.475462 669.608242 673.181141 676.351271
37.293333 666.031947 668.900833 672.516527 672.510592 676.138489 679.107590
37.426667 668.959237 672.295123 675.668064 675.506889 678.669117 681.180629
37.560000 672.044297 675.544688 678.725017 678.416102 681.218298 683.549908
37.660000 674.997731 677.994284 680.686040 680.527651 683.065551 685.114980
37.760000 677.220665 680.130281 682.692699 682.508607 684.861113 686.702835
37.860000 679.386887 682.173548 684.441669 684.266253 686.348545 688.177971
37.960000 681.869597 684.461452 686.371763 686.243128 688.025471 689.767166
38.060000 685.015171 686.681467 688.465438 688.471589 690.094762 692.523418
38.160000 687.036206 688.624497 690.348195 690.483047 692.213417 694.773842
38.260000 688.584348 690.289457 692.056961 692.251095 694.199023 696.653763
38.360000 690.016634 691.768989 693.763050 693.957112 696.244227 698.612303
38.460000 691.497955 693.514802 695.614132 695.677517 697.933392 700.198206
38.560000 693.161793 695.264608 697.379561 697.446626 699.727914 701.846886
38.650000 694.849726 696.798212 699.016253 699.077217 701.293042 703.761128
38.740000 696.598519 698.519939 700.744650 700.748227 702.981451 705.269623
38.840000 698.697716 700.595040 702.789706 702.799917 705.017354 706.915759
38.940000 701.077877 702.994195 705.029547 705.023063 707.053659 708.959128
39.040000 703.182766 705.512552 707.521770 707.426079 709.273168 710.971498
39.140000 706.009713 707.902955 709.738307 709.658614 711.378056 712.813659
39.240000 708.496025 710.069820 711.730028 711.673087 713.244250 714.771593
39.340000 710.333233 712.042599 713.604961 713.602406 715.121619 716.593870
39.440000 712.378184 713.828983 715.427718 715.409502 716.926135 718.612946
39.540000 713.906399 715.376928 716.939983 717.007465 718.562554 720.459771
39.640000 715.348674 716.825395 718.457729 718.526974 720.105268 722.322790
39.740000 716.673216 718.282088 719.972801 720.018565 721.623003 723.715909
39.840000 718.147734 719.812672 721.433500 721.508414 723.081742 725.329676
39.940000 719.690885 721.359876 722.876107 723.002657 724.611840 726.902424
40.040000 721.305069 722.977972 724.371375 724.621506 726.191361 729.547118
40.140000 723.049940 724.625802 726.099198 726.495900 728.073682 732.832047
40.240000 725.252900 726.657328 728.476785 729.102567 731.612580 736.271313
40.340000 727.188095 728.907400 731.379524 731.906087 735.140473 738.938633
40.440000 728.933678 731.305884 734.887714 735.017147 738.789595 742.603752
40.540000 730.640846 733.822108 737.812277 737.887769 741.624792 745.858765
40.640000 732.812971 736.255698 740.174821 740.192719 744.022434 748.439536
40.740000 734.889637 738.251691 742.250361 742.286993 746.427751 750.532993
40.840000 736.987515 740.153298 744.278557 744.283329 748.489108 752.776372
40.940000 739.199987 742.205525 746.307159 746.352179 750.331956 754.525133
41.040000 740.861367 744.397439 748.651035 748.497459 752.327800 756.286684
41.140000 742.418308 746.340602 750.798756 750.560752 754.372051 758.044560
41.240000 744.318707 748.603433 752.792470 752.540736 756.372460 759.783953
41.340000 746.448277 750.704639 754.604084 754.383460 757.989704 761.570113
41.473333 749.325355 753.107440 756.849296 756.763584 760.308088 763.857942
41.606667 751.798249 755.912564 759.179357 759.165942 762.561211 766.260187
41.740000 755.505213 758.602758 761.681227 761.694434 764.933346 768.247766
41.840000 757.843396 760.734541 763.661647 763.787530 766.914201 770.001515
41.940000 760.063746 762.895246 765.821775 765.901992 769.142464 771.968767
42.040000 762.263270 765.187039 768.368919 768.359412 771.658177 773.954510
42.140000 765.116750 767.942891 771.155854 770.987243 774.035476 776.030447
42.240000 768.198656 771.123410 774.124346 773.854478 776.565870 778.130021
42.340000 770.890344 774.024077 776.617955 776.358307 778.700589 780.378460
42.440000 773.798291 776.265301 778.885956 778.601568 780.767270 782.459361
42.540000 775.614973 778.348769 780.681929 780.467700 782.531730 784.217246
42.640000 777.439738 780.164804 782.515616 782.276276 784.259605 785.949698
42.740000 779.712810 782.063381 784.285797 784.115324 785.990223 787.706194
42.840000 782.597662 784.399681 786.190799 786.166684 787.963912 789.483401
42.940000 785.308783 787.180340 788.885880 788.916788 790.699217 792.435297
43.040000 789.353032 791.194425 793.216569 793.433896 795.554329 798.859422
43.140000 792.030893 794.486587 796.860061 796.990680 799.525858 802.290217
43.240000 793.659663 796.529656 799.774259 799.619348 802.359033 804.944325
43.310000 794.881781 798.116092 801.648902 801.322205 804.219321 806.478945
43.340000 795.502818 798.713647 802.438316 802.025903 804.844892 807.199152
43.440000 797.884865 801.408519 804.468521 804.167829 806.835893 809.108843
43.540000 800.088840 803.834055 806.541301 806.347144 808.828103 810.955229
43.640000 802.894135 806.346426 808.696227 808.586028 810.944088 813.183366
43.740000 805.232983 808.264892 810.609623 810.548439 812.840346 815.418172
43.840000 807.268197 810.166157 812.475328 812.541644 814.846781 817.558031
43.940000 809.572616 812.038998 814.351519 814.728861 817.352359 821.892797
44.040000 811.547404 813.842110 816.423659 817.212943 820.788612 826.452493
44.140000 813.123302 815.402532 818.322279 819.467273 824.465330 830.090483
44.240000 815.358258 817.665022 820.805365 822.029933 827.397012 832.608669
44.340000 817.414515 820.192094 823.819216 824.868675 830.434984 835.286365
44.440000 820.149297 823.140034 827.232962 827.809990 832.959641 837.475243
44.540000 822.798450 826.501633 830.855334 831.007176 835.623221 839.647838
44.640000 825.791455 829.717483 834.239882 834.213328 838.416422 842.290946
44.740000 829.261980 833.373102 837.812872 837.661154 841.867475 845.314367
44.840000 832.734773 837.907272 842.027106 841.904544 845.678918 850.154087
44.940000 837.294293 842.318425 846.465637 846.210967 850.460591 853.851972
45.040000 840.689995 845.948495 849.643402 849.703856 853.942813 856.633710
45.140000 844.221193 848.800014 852.800399 852.497516 856.547750 858.674621
45.240000 846.350482 851.373119 855.667114 855.069275 858.733312 860.360735
45.340000 849.001925 854.390330 858.477880 857.621548 860.663183 862.003490
45.440000 851.631017 857.507109 861.072666 860.111018 862.576937 863.875626
45.540000 855.119391 860.663450 862.875113 862.270689 864.205990 865.209065
45.640000 859.202315 863.413461 865.023784 864.658899 866.165328 867.244057
45.773333 863.100184 865.638694 867.338301 867.183863 868.815145 870.760312
45.906667 866.233515 867.965465 869.516410 869.596585 871.272128 873.606375
46.040000 868.495011 870.035153 871.747975 871.909819 873.902239 875.969755
46.140000 870.126462 871.659507 873.386914 873.575703 875.695224 877.881557
