depth(m) lower_95(kyr) lower_68(kyr) median(kyr) mean(kyr) upper_68(kyr) upper_95(kyr)
34.110000 291.193656 295.719936 300.480975 300.869370 306.104772 311.827203
34.250000 293.430034 298.345424 303.549684 303.580765 308.706382 314.178500
34.390000 295.584083 301.354503 306.621106 306.507555 311.763766 316.513335
34.530000 298.542562 304.405876 309.686732 309.566617 315.000664 319.484771
34.670000 301.047530 307.752178 312.900638 312.768306 317.727027 321.895932
34.810000 304.021917 311.161907 316.527878 315.988465 320.774805 323.802500
34.943333 305.799305 314.087365 319.842975 319.208451 324.174239 329.038305
35.076667 307.683547 317.020998 323.266838 322.479117 327.577618 332.384152
35.210000 309.934621 320.455510 326.711679 325.711846 330.937068 335.231010
35.343333 311.164461 323.963035 330.054070 328.759236 333.637324 337.427396
35.476667 313.037889 328.642105 333.220935 331.854001 336.151832 339.311463
35.610000 315.202349 333.147918 335.970870 334.782987 338.499455 341.129717
35.750000 319.331118 334.719738 338.223383 337.226421 341.337416 344.728011
35.890000 323.975531 336.138778 340.217764 339.534159 343.743616 347.350019
36.030000 329.557431 337.500202 342.247947 341.827992 346.390894 350.593176
36.170000 334.815836 339.045402 344.390421 343.998521 348.586825 353.042319
36.310000 338.222829 340.805030 346.620019 346.166821 350.781398 355.215298
36.410000 339.349793 341.941441 348.013259 347.539514 352.405323 356.573632
36.543333 340.832665 343.547975 349.775708 349.273562 354.196954 358.410042
36.676667 342.325693 344.991247 351.440890 350.924073 355.755126 360.078866
36.810000 343.704671 346.706404 352.987505 352.541014 357.339491 361.560253
36.943333 345.104708 348.440531 354.663199 354.179646 359.030942 363.360024
37.076667 346.465021 349.841767 356.370622 355.810569 360.786551 364.973797
37.210000 348.098422 351.703661 357.995628 357.515079 362.372324 366.100857
37.350000 349.642878 354.102427 359.871728 359.420789 364.018903 368.148995
37.490000 351.619448 356.388095 361.840174 361.397402 365.789864 370.356497
37.630000 353.681577 358.960129 363.715679 363.379169 367.627730 372.363907
37.770000 355.658864 361.112100 365.796873 365.361634 369.381388 374.189750
37.910000 357.465484 363.309927 367.649363 367.276113 371.082511 375.742082
38.043333 359.331055 365.190827 369.398038 369.130783 372.754894 377.747683
38.176667 361.197517 367.005337 371.195082 370.947295 374.788114 379.896153
38.310000 363.444589 368.817215 372.896618 372.776989 376.624094 381.494393
38.443333 365.260599 370.980062 374.600319 374.639599 378.667181 383.488475
38.576667 367.036794 372.825456 376.283266 376.427673 380.478086 385.405783
38.710000 368.543415 374.542694 377.971573 378.136251 382.366905 386.972313
38.850000 369.720518 375.991514 379.578756 379.703603 383.784053 388.662001
38.990000 371.641680 377.667753 381.289605 381.306258 385.270698 389.939637
39.130000 373.607498 379.185423 382.912997 382.877348 386.859779 391.466340
39.270000 375.322029 380.706649 384.407127 384.441357 388.369474 392.813143
39.410000 376.715552 382.418040 386.053018 385.994596 389.815588 394.210894
39.543333 378.086895 383.795789 387.556137 387.441543 391.203097 395.432838
39.676667 379.858205 385.150401 388.942065 388.883643 392.653045 396.752443
39.810000 381.417654 386.690209 390.559696 390.334499 394.019123 398.150974
39.943333 383.049554 388.160163 391.994086 391.760036 395.370182 399.149634
40.076667 384.605069 389.498440 393.361354 393.194723 396.697854 400.626019
40.210000 386.084824 390.962056 394.939960 394.698260 398.200745 402.346678
40.354444 388.144629 392.797672 396.776745 396.450255 400.014020 404.077088
40.498889 389.963979 394.360785 398.371489 398.180952 401.843772 405.421129
40.643333 391.651573 396.214168 400.310725 400.046277 403.772489 407.446751
40.787778 393.875922 398.003038 402.159944 401.891857 405.562630 408.915512
40.932222 395.438302 399.935164 404.174942 403.716062 407.375613 410.575530
41.076667 397.156182 401.992771 405.963570 405.579034 409.026569 412.363352
41.221111 398.914964 403.982096 407.863436 407.502736 410.751130 413.794172
41.365556 401.091221 406.380732 409.856961 409.497367 412.587706 416.029436
41.510000 402.993071 408.814809 411.906665 411.564368 414.365321 417.573536
41.610000 404.753066 410.439410 413.307955 413.048729 415.728216 418.759513
41.710000 407.827551 412.119331 414.851211 414.675413 417.373374 420.152690
41.830000 410.003785 413.906197 416.784633 416.613685 419.489146 422.205795
41.950000 412.172329 415.791321 418.822344 418.702459 421.818255 424.238801
42.070000 414.638437 418.001479 420.979352 420.846104 423.832101 426.011855
42.190000 416.909158 419.948103 423.176392 422.907493 425.801688 427.717559
42.310000 418.921735 421.902310 425.211203 424.856988 427.579805 429.416415
42.450000 420.716686 423.854221 426.973728 426.704353 429.377160 431.594178
42.590000 422.617516 425.758024 428.687892 428.493663 431.228542 433.360455
42.730000 424.286166 427.479857 430.340295 430.125180 432.811945 434.956339
42.870000 425.693213 429.112048 431.896046 431.784245 434.478189 436.670377
43.010000 427.324581 430.939227 433.541486 433.478109 436.059688 438.634746
43.143333 428.653699 432.420580 435.079693 435.060565 437.694445 441.087178
43.276667 430.101116 433.851065 436.664326 436.659641 439.529180 442.953268
43.410000 431.527113 435.196605 438.177744 438.206772 441.283356 444.723138
43.543333 432.583115 436.581818 439.574899 439.730754 442.862662 447.063731
43.676667 433.796675 438.053425 441.131015 441.322877 444.641498 448.811086
43.810000 435.229248 439.542286 442.758878 442.927891 446.471868 451.283924
43.950000 436.558229 440.997361 444.331192 444.647234 448.438403 454.438156
44.090000 437.810159 442.371885 445.856067 446.349519 450.460695 456.851130
44.230000 438.938813 443.858372 447.594710 448.116190 452.397045 459.672617
44.370000 440.841358 445.426805 449.268661 449.895830 454.476793 462.065605
44.510000 442.116947 446.877805 451.108480 451.793354 456.965441 464.419539
44.643333 443.870231 448.320338 453.091233 453.826501 459.192354 466.897531
44.776667 445.735970 450.033751 455.222485 456.023739 462.011046 469.197774
44.910000 447.413866 451.876521 457.579183 458.302007 464.968411 471.487061
45.043333 449.010511 453.668881 459.822185 460.696498 467.692714 474.123154
45.176667 450.695853 455.462964 462.109526 463.043291 470.393980 476.297032
45.310000 452.420212 457.641456 464.841068 465.649260 473.431950 479.209477
45.451176 453.542190 460.109708 467.811911 468.665539 476.760224 485.050840
45.592353 455.443180 462.866322 470.732263 471.731204 479.919993 492.427152
45.733529 456.902154 465.123026 473.811785 474.906433 483.964969 498.558830
45.874706 458.264561 467.653244 476.863404 478.262430 488.511472 504.614114
46.015882 459.777894 470.334737 479.826588 481.553514 492.299355 509.786446
46.157059 461.244565 472.915657 483.338383 484.946102 496.677663 516.034575
46.298235 462.547365 475.583275 486.473018 488.415643 502.086595 522.075850
46.439412 463.843937 478.165603 489.740712 491.937632 507.014743 527.396662
46.580588 465.422274 480.691806 492.720671 495.469046 513.162168 532.562128
46.721765 467.268404 483.209371 495.631217 498.954261 517.169466 538.171331
46.862941 468.830236 485.863754 498.746351 502.576312 522.357938 543.747268
47.004118 470.204471 488.817805 501.747055 506.019592 526.648366 551.117758
47.145294 472.100842 491.868131 504.739867 509.646580 532.577366 556.202289
47.286471 473.625327 494.247178 507.099778 513.203026 537.866729 562.793479
47.427647 475.384663 496.452966 510.116350 516.991877 544.019767 566.083694
47.568824 477.385365 498.973157 512.931749 520.760894 550.311040 569.637868
47.710000 478.578986 501.339985 515.537964 524.336956 555.662774 573.062425
47.830000 479.806226 502.904242 517.931188 527.326777 559.548952 577.788560
47.950000 480.972547 505.270108 520.295522 530.525097 564.728551 581.672587
48.070000 482.221059 507.622294 522.831719 533.870286 569.881556 585.052113
48.190000 483.412882 509.843021 525.134152 537.136317 577.440198 586.954404
48.310000 484.855032 514.058787 527.452967 540.295758 582.645662 589.663891
48.410000 486.127528 516.980813 529.332430 542.611466 585.905535 593.269158
48.510000 486.793212 518.993461 531.153211 544.887407 588.391596 597.836568
48.520000 486.940482 519.321057 531.378517 545.104634 588.647236 598.100904
48.658000 499.043535 521.841413 534.547550 548.313968 590.953034 607.293810
48.796000 505.396584 525.335650 538.044686 551.426051 593.248002 610.811965
48.934000 510.797632 527.908772 541.797167 554.624345 595.354163 614.490790
49.072000 512.654047 530.804129 545.644588 557.890401 597.529816 617.282112
49.210000 515.917900 533.307041 549.126130 561.247649 600.158615 620.678542
49.343333 517.215546 535.841572 553.384235 564.575794 602.274465 627.724150
49.476667 520.287521 538.531146 557.176448 568.000588 604.520413 640.093048
49.610000 522.553136 541.753123 560.428680 571.377926 607.239127 648.983102
49.743333 524.205892 544.888026 564.341550 574.707625 609.758832 654.392498
49.876667 525.924999 548.210196 568.045199 578.085730 612.606835 664.394141
50.010000 527.923890 550.935794 571.466229 581.481597 615.979182 672.152400
50.020000 528.029344 551.101417 572.092301 581.736032 616.197229 672.537919
50.158000 531.953289 553.876030 578.162328 586.872144 622.351416 675.152535
50.296000 536.502089 556.914177 583.125419 592.587137 632.655062 678.256132
50.434000 543.278273 560.897053 587.310226 598.275952 643.460837 680.485179
50.572000 546.160440 564.224093 590.273174 603.856344 654.668652 684.086579
50.710000 552.018218 567.386104 594.417356 609.294834 664.046518 688.457482
50.843333 555.128293 571.617561 598.035680 614.000164 669.500474 693.313744
50.976667 559.620077 575.464552 602.329885 618.817451 676.143745 697.116253
51.110000 563.771952 581.746695 607.119639 623.831985 683.171656 702.907327
51.243333 566.521684 589.015821 612.033452 628.783446 689.050856 706.520706
51.376667 568.325291 595.539709 616.195262 633.802033 696.052748 711.055820
51.510000 569.951333 602.770021 620.480845 638.972634 701.645615 715.962021
51.647500 572.183963 609.796187 630.105921 645.350105 706.256408 720.507589
51.785000 575.388950 618.608202 641.936809 652.343717 710.031129 730.401030
51.922500 579.751064 628.432886 650.544054 659.144255 714.078800 736.159370
52.060000 583.508013 642.572230 658.209267 665.873236 717.408846 741.198050
52.135000 584.989592 645.584968 661.455088 668.449739 719.506856 742.631655
52.210000 586.537958 648.236810 664.848679 671.093676 721.186017 744.072599
52.340000 589.137211 652.984642 673.194585 676.469700 723.892876 746.966836
52.470000 591.110476 660.143410 680.875426 681.997336 726.668077 749.204753
52.600000 593.525445 665.746133 688.999173 687.398330 729.161144 752.088267
52.730000 595.731849 668.507015 696.402450 692.673792 731.779402 755.483483
52.860000 599.880694 672.235876 702.811875 697.923450 734.064497 758.452300
52.935000 601.813164 675.348806 705.758340 700.424104 735.462377 759.698204
53.010000 603.827061 676.805774 708.460962 702.723332 736.876365 760.556624
53.147500 607.928738 678.721904 711.420422 706.444855 739.931525 762.841965
53.285000 612.655685 681.494475 714.529483 710.201274 742.998762 764.307111
53.422500 618.024737 684.158327 717.510964 713.939718 746.011654 766.295765
53.560000 621.657732 686.600587 720.564176 717.384832 749.376564 767.766175
53.703750 624.675820 689.871718 723.869785 720.837016 752.583849 769.670962
53.847500 626.673370 694.385100 727.306822 724.274395 755.725691 772.046372
53.991250 629.350395 696.581937 731.218278 727.616420 758.911502 774.257184
54.135000 631.251958 702.883091 734.737712 730.868832 762.288530 776.930754
54.278750 633.318116 711.094946 738.175968 734.128409 766.273856 779.342288
54.422500 636.551304 716.979196 742.899147 737.349878 769.642090 782.096443
54.566250 638.018048 719.926008 746.401986 740.438180 772.590996 784.087547
54.710000 639.507648 722.754589 749.192718 743.582601 776.027005 786.121399
54.853750 641.805472 726.280154 751.898021 746.540216 778.706573 788.572702
54.997500 644.104825 729.380610 755.929889 749.575643 781.568414 791.056874
55.141250 646.843914 731.814285 759.131774 752.767151 785.090948 793.656805
55.285000 649.130089 734.247920 762.321689 755.962451 788.348341 796.940390
55.428750 651.984076 736.842367 765.217892 759.182704 791.831555 800.045150
55.572500 654.049055 738.710560 768.319209 762.389629 795.035943 802.867356
55.716250 656.517225 740.645993 771.121420 765.438534 798.380946 805.896901
55.860000 659.563872 743.009706 773.546111 768.465722 801.256054 808.126413
56.000000 662.678001 745.040746 778.621091 771.442636 803.951292 811.052596
56.140000 666.032858 747.348128 785.263079 774.514017 806.281249 814.221153
56.280000 669.097550 749.634566 789.428577 777.385523 808.674148 817.203267
56.420000 672.496085 752.345726 792.473438 780.406404 810.819989 820.340901
56.560000 675.766750 754.853515 796.078139 783.371192 813.262558 822.969077
56.701667 685.878569 757.985252 800.458423 786.812694 815.710224 827.872864
56.843333 694.925933 761.444387 803.517170 790.058998 818.292481 829.889726
56.985000 704.205305 765.818514 806.841136 793.587779 820.886139 832.697242
57.126667 711.633572 769.318474 809.530001 797.112943 823.397420 834.640805
57.268333 727.404010 775.300641 812.861927 800.574104 825.909184 836.426693
57.410000 737.408049 779.650263 815.094229 803.972639 828.223949 838.560487
57.551667 745.092460 784.061786 817.838356 807.359447 830.475335 840.403181
57.693333 750.853543 788.478608 820.804356 810.554844 832.853836 841.938585
57.835000 755.208173 793.472686 822.961682 813.971478 834.915550 843.864562
57.976667 757.995461 798.477349 825.706653 817.356980 837.134783 846.273764
58.118333 760.619810 804.098475 828.609366 820.744283 839.822535 848.755421
58.260000 764.627124 809.272656 831.543049 824.080274 842.442642 850.755483
58.401667 767.637755 814.266505 834.072795 827.249435 844.852469 853.071570
58.543333 770.993126 818.810465 836.717889 830.374051 847.476325 854.854483
58.685000 772.993249 822.613457 839.465945 833.357525 849.663787 856.746705
58.826667 774.450416 827.384844 842.240417 836.352016 852.031525 858.630047
58.968333 776.031577 832.588972 844.999171 839.531267 854.260385 860.285872
59.110000 777.532579 836.883978 847.883430 842.644425 856.548877 862.321638
59.246364 779.626364 840.168897 850.664283 845.453644 859.161054 864.131069
59.382727 781.106478 844.034443 853.384484 848.197350 861.382572 865.687678
59.519091 782.929201 846.908052 855.924178 850.889121 863.374716 867.187654
59.655455 783.839164 849.736328 858.526593 853.526259 865.173729 868.916023
59.791818 785.540007 852.860874 860.798034 856.010864 867.078336 870.179303
59.928182 787.036149 856.369971 862.951988 858.458650 868.809562 871.730712
60.064545 788.245193 859.529387 865.203299 860.867508 870.445632 873.476443
60.200909 790.134412 862.009582 867.413987 863.234268 872.064683 875.452773
60.337273 791.371649 864.656497 869.731170 865.407815 873.724298 876.872882
60.473636 792.850596 867.422793 871.799029 867.654368 875.484382 878.452968
60.610000 794.536465 869.849645 873.807681 869.818773 877.221412 880.624483
60.743333 796.000058 871.619350 875.825592 871.635787 878.943156 882.291233
60.876667 796.943173 873.219951 877.586950 873.348093 880.627296 883.896980
61.010000 798.141459 874.777618 879.241353 874.999965 882.165360 886.005340
61.110000 799.126360 875.816561 880.456674 876.181824 883.296572 887.131327
61.210000 800.388632 876.898489 881.723686 877.386991 884.498728 888.507830
61.310000 801.572681 878.035090 882.908344 878.564698 885.644321 889.437993
61.435000 802.378273 879.712987 884.395810 880.127877 887.092177 890.871712
61.560000 803.584956 881.343821 885.903635 881.688346 888.657629 892.161591
61.685000 804.928426 883.288616 887.401519 883.255599 890.098261 893.712157
61.810000 806.326355 884.979580 888.923771 884.806785 891.505774 895.091833
61.910000 807.224428 886.514964 890.091524 886.027404 892.559427 896.292651
62.010000 808.525891 887.781126 891.182609 887.219453 893.746293 897.289796
62.110000 809.445382 889.089440 892.377993 888.384169 894.898844 898.288031
62.243333 811.085401 890.742589 893.669926 889.844557 896.307085 899.620403
62.376667 812.737399 892.314900 895.089889 891.331523 897.641188 900.921020
62.510000 814.546931 893.825700 896.454481 892.820778 898.998047 902.420894
62.643333 815.812085 895.397081 897.926269 894.346218 900.505044 903.646132
62.776667 818.417120 896.887878 899.407715 895.913260 902.031722 905.084352
62.910000 820.465270 898.407560 900.870767 897.427508 903.409009 906.386577
63.043333 823.116337 899.981698 902.327975 898.958398 904.934921 907.599205
63.176667 825.364520 901.520893 903.844466 900.485742 906.264758 909.207673
63.310000 828.186881 903.038059 905.334379 902.022609 907.749280 910.754266
63.450000 831.081592 904.417358 906.840663 903.623352 909.174311 912.470097
63.590000 838.291464 905.794400 908.313086 905.171642 910.672702 914.074457
63.730000 844.309325 907.390211 909.827900 906.789506 912.184946 915.953865
63.870000 847.164774 908.826169 911.383082 908.365534 913.756774 917.773786
64.010000 849.868230 910.439470 913.002349 910.041491 915.272888 919.274510
64.143333 854.111864 912.042924 914.630569 911.750696 916.991016 921.252497
64.276667 864.578979 913.574032 916.284881 913.577006 918.861625 923.123768
64.410000 870.235102 915.302786 918.073529 915.429393 920.734614 925.452455
64.543333 877.019301 917.064104 919.684814 917.334928 922.552606 927.801325
64.676667 882.708554 918.933787 921.557986 919.306562 924.564051 930.528057
64.810000 889.485511 920.960501 923.635821 921.540984 926.883730 933.946554
64.950000 895.637964 922.767414 926.016614 924.576255 931.336356 938.744016
65.090000 907.730797 924.699476 928.733845 927.642474 935.462159 941.826950
65.230000 917.181153 926.667386 931.559715 930.654857 939.357652 945.919783
65.370000 921.583543 928.503085 934.732755 933.723397 942.869451 949.935554
65.510000 925.301644 930.371309 937.747095 936.647335 946.060704 953.523666
65.651111 926.817746 932.230975 940.350582 938.948017 948.886691 957.436250
65.792222 928.063459 933.688716 942.287100 941.065572 951.161984 960.383524
65.933333 929.302765 935.308244 944.162408 943.034821 954.131295 963.033643
66.074444 930.850971 936.879505 946.160383 944.981149 956.449539 965.764380
66.215556 931.618501 938.334768 948.086360 946.967845 959.619786 968.648641
66.356667 934.429747 940.066469 949.676750 948.938754 961.830151 970.782374
66.497778 936.230860 941.488428 951.408202 950.825016 964.808733 973.116493
66.638889 938.300475 942.987517 953.003998 952.603030 966.920462 975.185595
66.780000 940.389509 944.475150 954.738954 954.426196 969.088533 976.892284
66.895000 941.819215 945.685764 956.284600 955.912968 970.430347 978.454698
67.010000 943.222965 946.775382 958.034223 957.409507 972.192157 979.869446
67.143333 944.606692 948.197862 959.927532 959.430666 973.518511 981.337920
67.276667 945.949828 949.679069 961.868738 961.377153 974.964954 983.164024
67.410000 947.191477 951.129990 963.778203 963.364276 976.399532 985.135602
67.543333 948.762800 952.571313 966.011070 965.330659 978.113603 986.701942
67.676667 949.982532 954.109135 968.425033 967.257832 979.616523 988.491442
67.810000 951.442897 955.795274 970.766299 969.251032 981.357433 991.198600
67.927500 952.814142 957.438810 972.258442 971.100775 983.064738 993.156224
68.045000 954.319564 959.348865 973.992798 973.111289 985.045435 994.181268
68.162500 955.816786 961.241001 975.791960 975.036509 987.025883 995.417048
68.280000 957.105414 963.081882 977.578884 977.007641 989.203365 997.158920
68.413333 958.706516 965.805147 980.380952 979.196604 991.142376 999.151311
68.546667 960.024325 968.791841 982.650448 981.478959 992.953948 1002.401496
68.680000 961.458636 972.130972 985.280918 983.753501 994.897287 1004.788643
