depth(m) lower_95(kyr) lower_68(kyr) median(kyr) mean(kyr) upper_68(kyr) upper_95(kyr)
3.970000 1568.158059 1573.429648 1578.727589 1577.987640 1582.420470 1585.015766
4.020000 1572.936444 1577.653252 1581.961207 1581.410037 1585.143074 1587.194320
4.070000 1577.246315 1581.880564 1585.494019 1584.872751 1587.968435 1589.934579
4.120000 1581.477579 1585.364511 1588.560685 1588.123780 1590.768934 1592.976985
4.170000 1585.397960 1588.864839 1591.636078 1591.303151 1593.615671 1595.509035
4.220000 1588.337912 1591.922484 1594.324629 1594.025550 1596.204898 1597.906824
4.270000 1592.327785 1594.943836 1597.110170 1596.922708 1598.832270 1600.495500
4.320000 1595.495887 1597.767852 1599.711245 1599.613454 1601.450685 1603.321893
4.370000 1598.237463 1600.315574 1602.081574 1602.083544 1603.816961 1606.079437
4.420000 1600.663367 1602.633623 1604.474876 1604.532616 1606.274271 1609.120043
4.470000 1602.947432 1604.989503 1606.956778 1607.148757 1609.188125 1612.822694
4.520000 1605.084800 1607.414713 1609.476764 1609.732834 1612.100371 1615.737339
4.570000 1607.790418 1609.902760 1612.219716 1612.564509 1615.230874 1618.759774
4.620000 1610.285895 1612.695250 1615.311367 1615.653787 1618.637458 1621.682501
4.670000 1612.910392 1615.726932 1618.524131 1618.822675 1621.936031 1625.339939
4.720000 1615.755456 1618.771887 1621.883096 1622.004616 1625.105775 1627.519302
4.770000 1619.034897 1621.945653 1625.218525 1625.248814 1628.190988 1630.586146
4.820000 1622.101513 1625.011913 1628.387731 1628.333270 1630.998270 1633.191086
4.870000 1624.917895 1628.215304 1631.404199 1631.238422 1633.728428 1635.457941
4.920000 1627.994818 1631.392910 1634.126488 1633.968577 1636.215981 1637.831757
4.970000 1630.990868 1634.505707 1636.838766 1636.773020 1638.655656 1640.220312
5.020000 1634.528292 1637.567783 1639.649511 1639.770784 1641.366459 1643.238590
5.070000 1639.235163 1641.328007 1643.005057 1643.495370 1644.913301 1650.223978
5.120000 1642.549737 1644.707667 1646.925705 1648.022383 1650.915709 1658.458772
5.220000 1647.932591 1651.238119 1655.795129 1657.881854 1662.244199 1699.760451
5.270000 1651.214967 1655.221803 1660.985879 1662.837900 1667.159806 1705.673949
5.320000 1655.533954 1659.753379 1665.587605 1667.745685 1671.067909 1710.534129
5.370000 1659.784690 1665.702666 1670.244103 1673.517350 1679.234765 1716.205157
5.420000 1669.635098 1674.864263 1680.097689 1683.049972 1689.496740 1725.779002
5.470000 1675.015864 1683.596163 1690.066104 1692.722959 1699.210016 1734.328281
5.520000 1681.088460 1689.391353 1695.763489 1698.671683 1705.454390 1743.821199
5.570000 1689.426646 1693.705074 1699.015513 1704.729572 1715.571182 1746.938905
5.620000 1694.131582 1697.365395 1702.579097 1710.473305 1729.619355 1752.787128
5.670000 1697.882816 1700.588958 1706.200581 1716.647816 1744.726843 1771.912211
5.720000 1701.090237 1703.690741 1710.342899 1723.080128 1750.700679 1783.804604
5.770000 1704.122217 1707.016147 1717.840172 1731.002829 1768.168925 1789.445733
5.820000 1707.219193 1710.974632 1729.563983 1739.599952 1785.244279 1793.649909
5.870000 1710.575626 1716.761957 1743.057202 1748.181264 1791.671463 1797.998887
5.920000 1715.076291 1726.902120 1749.153060 1756.750484 1796.756813 1803.533214
5.970000 1722.689037 1737.392365 1754.763355 1764.642070 1801.639953 1812.270576
6.020000 1731.500252 1750.123157 1761.583629 1772.320785 1807.684181 1823.286120
6.070000 1737.680019 1759.082291 1767.386756 1780.266075 1814.591301 1835.755545
6.120000 1746.708461 1766.111265 1773.624439 1787.911272 1821.770185 1847.071227
6.170000 1762.200312 1773.767500 1780.448164 1796.032322 1829.011870 1853.707046
6.220000 1772.218225 1780.004946 1786.016755 1803.828134 1838.464008 1859.725686
6.270000 1780.717785 1785.506524 1792.213466 1811.619182 1850.275404 1868.475700
6.320000 1787.468945 1790.836379 1799.175755 1819.223761 1860.988844 1877.692932
6.370000 1793.153257 1797.344088 1811.582216 1827.600984 1868.492712 1899.655359
6.420000 1800.066897 1805.944770 1830.494307 1838.339847 1877.291159 1914.051229
6.470000 1806.424598 1817.613686 1846.619408 1849.831990 1884.811403 1921.215533
6.520000 1815.065293 1831.351756 1857.865492 1862.216787 1899.000138 1942.056148
6.570000 1824.390197 1843.691043 1866.494238 1873.975474 1907.606584 1952.542386
6.620000 1834.625402 1857.309658 1874.421685 1885.906746 1914.743530 1959.773691
6.670000 1843.442188 1869.421068 1883.357254 1896.110248 1921.345596 1966.771015
6.720000 1855.737836 1877.486958 1895.783801 1905.354932 1927.429960 1973.576279
6.770000 1871.202207 1883.385406 1924.939149 1914.533714 1932.645465 1979.117264
6.820000 1882.600779 1889.102646 1931.478678 1922.319102 1938.087242 1985.921789
6.870000 1889.656107 1894.966854 1937.523004 1929.147077 1943.088676 1992.018616
6.920000 1898.973203 1901.912804 1943.903146 1936.510439 1950.779811 1998.732219
6.970000 1903.892906 1908.509908 1949.411725 1944.691579 1964.348347 2005.496877
7.020000 1909.224057 1915.798666 1955.435993 1956.340036 1998.562425 2012.621410
7.070000 1914.717509 1946.832549 1964.959642 1972.614561 2007.642009 2021.840687
7.120000 1923.868164 1956.872534 1998.221561 1990.413674 2018.403026 2038.991611
7.170000 1948.926349 1971.578755 2012.095370 2009.104598 2040.070635 2046.314916
7.220000 1965.167386 2004.350612 2037.926465 2027.191015 2048.196555 2053.267365
7.270000 1988.419510 2023.249499 2050.705513 2042.404076 2056.226139 2060.602052
7.320000 2009.886337 2047.470403 2060.243703 2056.171245 2063.978734 2068.198802
7.370000 2051.230413 2063.681039 2067.706159 2067.048235 2071.662290 2075.905623
7.420000 2065.479171 2070.433734 2074.541093 2074.720760 2078.897669 2083.414916
7.470000 2073.137730 2077.893450 2081.971692 2082.838040 2086.837618 2093.929627
7.520000 2080.331158 2084.801936 2089.542359 2091.842957 2096.537684 2119.458397
7.570000 2088.024373 2092.411585 2098.532917 2103.259026 2115.780145 2146.560523
7.620000 2096.293339 2101.471123 2111.373797 2117.965009 2137.394304 2177.876902
7.670000 2104.897669 2111.303423 2128.509348 2137.525037 2164.832006 2194.618783
7.720000 2112.520207 2122.044827 2165.784505 2155.578999 2183.013188 2208.978579
7.770000 2122.702549 2139.132491 2185.346840 2174.030715 2197.096140 2235.151154
7.820000 2133.335082 2163.019459 2198.289910 2191.536198 2207.977900 2248.352136
7.870000 2168.204283 2181.384948 2210.004889 2208.261668 2223.448707 2274.891777
7.920000 2179.065907 2201.331088 2220.501728 2224.525396 2251.001580 2297.676829
7.970000 2189.305032 2217.995871 2231.578261 2240.303626 2269.938417 2310.601377
8.020000 2201.480201 2233.097422 2243.138384 2255.714323 2294.338275 2323.257280
8.070000 2212.873790 2245.678523 2253.456168 2270.738577 2321.366680 2332.674348
8.120000 2225.900281 2257.906463 2265.673317 2285.704958 2338.021651 2344.910220
8.170000 2245.526359 2269.212886 2292.740061 2300.310266 2349.571065 2357.702378
8.220000 2268.697369 2278.857633 2315.149595 2315.650914 2360.716991 2370.411008
8.270000 2281.652540 2289.767132 2328.118999 2331.919634 2371.898158 2385.053582
8.320000 2294.263929 2303.787928 2345.586278 2349.006691 2386.634843 2409.793845
8.370000 2309.256411 2319.639661 2366.497026 2367.176423 2401.569504 2430.288698
8.420000 2321.481131 2343.517542 2389.855464 2386.257392 2416.153203 2459.008322
8.470000 2334.657148 2367.685271 2411.986364 2406.273123 2433.426121 2477.284944
8.520000 2357.467436 2392.952492 2439.558492 2427.767372 2453.119102 2490.820564
8.570000 2376.534355 2407.490891 2459.272235 2447.397683 2475.015644 2502.390887
8.620000 2392.177883 2421.705728 2475.791555 2469.271624 2507.302861 2513.290895
8.670000 2426.447579 2437.262746 2496.763669 2489.819311 2525.172414 2534.216138
8.770000 2455.444908 2476.755807 2543.931235 2528.153843 2553.546174 2560.070068
8.820000 2466.919009 2509.504512 2556.133325 2543.847916 2564.269664 2571.430469
8.870000 2484.717604 2544.829391 2565.361767 2558.147358 2574.456384 2581.456496
8.920000 2508.185741 2554.666889 2573.881376 2569.854855 2582.694662 2590.395479
8.970000 2548.806965 2568.737277 2581.053486 2580.225382 2590.931868 2613.496175
9.020000 2558.605290 2580.435500 2588.984982 2590.577388 2602.804668 2624.985061
9.070000 2567.861282 2592.929651 2608.017341 2605.142086 2616.960895 2633.011639
9.120000 2577.691562 2611.047973 2621.444657 2618.514123 2627.523844 2640.043748
9.170000 2586.549791 2621.475420 2629.915568 2628.754156 2638.210688 2648.724408
9.220000 2594.654998 2629.812104 2639.671897 2638.855596 2650.754805 2656.797356
9.270000 2623.214621 2639.223703 2651.009996 2649.151255 2658.872788 2664.214871
9.320000 2634.053144 2651.224398 2658.367706 2657.778331 2665.469628 2672.461798
9.370000 2651.415248 2659.212599 2665.076763 2665.721433 2671.411717 2692.474717
9.420000 2661.263241 2666.965757 2672.264399 2674.558232 2681.093649 2703.865332
