depth(m) lower_95(kyr) lower_68(kyr) median(kyr) mean(kyr) upper_68(kyr) upper_95(kyr)
33.420000 376.333092 380.569389 384.677423 384.370957 388.080096 391.060578
33.545000 377.902775 382.103073 386.251112 385.877167 389.454704 392.053059
33.670000 379.362002 383.773156 387.846779 387.351801 390.851927 393.107069
33.795000 381.053996 385.427695 389.274295 388.798198 392.135697 394.244374
33.920000 383.361214 387.198761 390.665644 390.322388 393.445141 395.373352
34.045000 385.133015 388.917527 392.240739 391.910400 394.771984 396.488641
34.170000 387.407741 391.058743 393.633519 393.437486 396.004622 397.615558
34.295000 389.186436 392.879084 395.231587 394.929116 397.079700 398.704060
34.420000 391.579157 394.579255 396.696024 396.430558 398.374176 399.702343
34.545000 393.531152 396.385400 398.287846 398.055414 399.821488 400.999796
34.670000 396.045809 398.288161 399.793145 399.610202 401.069629 402.118220
34.795000 397.938480 399.544932 401.030139 400.903217 402.208972 403.327441
34.920000 399.612601 400.872317 402.159279 402.123021 403.343345 404.525394
35.045000 400.583885 401.865641 403.167877 403.174737 404.415423 405.724003
35.170000 401.622708 402.899983 404.173108 404.208832 405.475118 406.835597
35.295000 402.574174 403.942027 405.136050 405.198012 406.526612 407.821058
35.420000 403.561458 404.941186 406.196823 406.212910 407.484985 408.830683
35.545000 404.546545 405.957059 407.244798 407.236943 408.534743 409.809861
35.670000 405.553479 406.955480 408.253964 408.255278 409.525504 410.986621
35.795000 406.652920 407.933397 409.291513 409.292262 410.584320 411.997605
35.920000 407.576180 408.924925 410.321371 410.302409 411.629104 413.088498
36.045000 408.711855 409.987705 411.327913 411.407118 412.811405 414.417170
36.170000 409.871757 411.163694 412.499587 412.587574 413.975635 415.780687
36.295000 410.983413 412.354710 413.752837 413.899242 415.441181 417.547035
36.420000 412.327417 413.539808 415.098513 415.268416 416.936285 419.389950
36.545000 413.490343 414.825964 416.394029 416.646387 418.594290 421.355712
36.670000 414.651176 416.018809 417.821177 418.064910 420.226352 422.790536
36.795000 415.831450 417.285914 419.372387 419.560795 421.969562 424.308597
36.920000 417.152712 418.667255 420.951615 421.157815 423.703040 425.742339
37.045000 418.627685 420.406552 423.191668 423.195537 425.758291 428.122741
37.170000 420.449302 422.787771 425.496872 425.404424 427.819516 430.196541
37.295000 422.544046 425.295256 427.662832 427.613682 429.879761 431.974505
37.420000 425.240382 427.781522 429.654896 429.652598 431.638173 433.651446
37.545000 427.238138 429.345496 431.157206 431.198198 433.115236 435.382399
37.670000 428.805568 430.679045 432.530409 432.639799 434.645256 436.696934
37.795000 430.154253 431.975852 433.871349 433.985966 436.150125 437.980453
37.920000 431.435567 433.216950 435.163500 435.279181 437.461520 439.232916
38.045000 432.591349 434.429130 436.445060 436.548763 438.663689 440.709658
38.170000 433.763907 435.836286 437.740692 437.853720 439.895522 442.596051
38.295000 434.991217 437.028127 439.054750 439.164213 441.302888 444.040200
38.420000 436.343729 438.276072 440.342194 440.539876 442.819873 445.810387
38.545000 437.392725 439.422917 441.650169 441.890229 444.302476 447.807174
38.670000 438.743595 440.639492 443.002352 443.287372 445.918010 450.106897
38.795000 439.779071 441.828754 444.372282 444.781237 447.818294 452.374629
38.920000 441.070289 443.168480 445.761236 446.307651 449.573511 454.761444
39.045000 442.149554 444.531527 447.199416 447.863006 451.434108 456.505529
39.170000 443.317912 445.894081 448.726441 449.448443 453.389462 458.644471
39.295000 444.713675 447.245622 450.543414 451.253067 455.704113 460.488908
39.420000 446.091816 448.775737 452.619809 453.103124 457.884877 462.401720
39.545000 447.554598 450.515647 454.626372 454.984121 459.710136 464.190847
39.670000 448.935995 452.185295 456.876520 456.967074 461.474921 466.190395
39.795000 450.603459 454.298421 458.885096 458.961284 463.668966 467.901025
39.920000 452.304096 456.376979 461.129570 461.092094 465.641072 469.737396
40.045000 454.183613 458.588081 463.426961 463.264235 467.868454 471.727931
40.170000 456.395065 461.076749 465.576890 465.475198 469.958464 473.594762
40.295000 458.953893 463.366652 468.017997 467.744512 471.953069 475.367566
40.420000 461.654884 465.727807 470.247928 469.916448 474.025353 476.747529
40.545000 464.240168 468.330395 472.652733 472.221737 475.994877 478.332433
40.670000 466.281312 470.934939 475.048210 474.508129 477.916011 479.725474
40.795000 469.719951 473.807583 477.207775 476.768657 479.583536 481.357549
40.920000 472.394105 476.590898 479.199904 478.880820 481.297722 483.100581
41.045000 475.032198 478.430049 480.832460 480.656507 482.698503 485.319564
41.170000 477.593336 480.235715 482.258725 482.290840 484.289566 487.196138
41.295000 479.039342 481.555589 483.546789 483.750596 485.756142 489.080028
41.420000 480.757144 482.947942 484.851285 485.197347 487.340208 491.668042
41.545000 482.172214 484.168588 486.199497 486.652382 489.148373 494.016583
41.670000 483.443373 485.413480 487.589329 488.068971 490.841071 495.510720
41.801667 484.700035 486.731520 489.146900 489.619426 492.673467 497.616010
41.933333 485.821303 487.942072 490.558855 491.083605 494.492534 499.259443
42.065000 486.820063 489.206062 491.964587 492.514679 496.078742 500.529324
42.196667 488.186099 490.479447 493.346669 493.930373 497.610869 501.905799
42.328333 489.562670 491.883084 495.082754 495.414185 499.086373 503.259283
42.460000 490.714100 493.319268 496.591306 496.881568 500.729363 504.510702
42.600000 492.139424 494.839072 498.218474 498.500225 502.340140 506.426724
42.740000 493.926514 496.349171 499.971454 500.219370 503.838160 508.501611
42.880000 495.528423 498.212858 501.713333 501.944246 505.372196 510.543341
43.020000 497.203887 499.976652 503.418996 503.673672 506.990871 512.386753
43.160000 499.110677 502.121872 505.142154 505.419525 508.598629 514.419057
43.300000 501.069365 504.128165 506.740595 507.231164 510.328960 516.078776
43.425000 502.846123 505.892376 508.533789 509.000208 512.160864 517.589719
43.550000 504.842700 507.654506 510.421034 510.775073 514.041709 519.042674
43.675000 506.046833 509.199190 512.135669 512.466444 515.614008 520.892665
43.800000 507.670182 510.768066 513.807952 514.152711 517.423516 522.511773
43.925000 509.129468 512.447610 515.679928 515.812726 519.135897 524.052817
44.050000 510.753382 514.166650 517.390239 517.520169 520.968137 525.443834
44.175000 512.350713 515.939551 519.211581 519.219474 522.451159 526.701913
44.300000 514.317663 517.598257 520.984339 520.977692 524.321634 528.008940
44.425000 515.482407 519.276829 522.582255 522.624541 526.029119 529.356629
44.550000 517.249051 521.151296 524.464896 524.431247 527.713105 530.851294
44.653333 518.965783 522.590039 525.960219 525.902551 529.033648 532.271138
44.756667 520.690827 524.210511 527.531900 527.382607 530.523717 533.955788
44.860000 522.428657 525.795848 528.886041 528.833703 531.708459 535.615955
44.985000 524.373287 527.837354 530.668575 530.713798 533.669225 537.408219
45.110000 526.478351 529.802104 532.426929 532.598693 535.576438 539.138992
45.235000 528.299417 531.434057 534.268397 534.448771 537.781755 541.008125
45.360000 530.729510 533.110674 536.006181 536.342538 539.835866 542.878090
45.485000 532.362806 534.628014 537.787607 538.126226 541.851069 544.506385
45.610000 533.714628 536.111365 539.637815 539.881891 543.667009 546.695976
45.735000 534.981131 537.678522 541.366847 541.476034 545.310602 548.343484
45.860000 536.378527 539.121165 543.056390 543.075911 546.863931 550.357938
45.985000 537.793831 540.931268 544.833883 544.746662 548.424661 551.841406
46.110000 539.117958 542.504629 546.547078 546.384503 550.056826 553.515896
46.235000 540.485103 544.148829 548.186662 548.003457 551.722902 555.079232
46.360000 541.822404 546.014554 549.675866 549.652278 553.378787 556.461482
46.485000 543.704012 548.009823 551.598656 551.415891 555.030408 557.864281
46.610000 545.730040 550.036398 553.386143 553.190217 556.687698 559.549757
46.735000 547.751152 551.597343 555.172934 554.963522 558.402258 561.385707
46.860000 549.613413 553.262839 556.960389 556.768362 560.147436 563.231739
46.985000 552.344630 555.397298 558.851255 558.695984 561.903710 564.726957
47.110000 554.557492 557.433902 560.676425 560.564817 563.753739 566.352630
47.235000 556.283129 559.119791 562.563507 562.409040 565.486420 567.903182
47.360000 558.116469 561.296641 564.430024 564.289395 567.192845 569.608233
47.485000 560.100703 563.125417 566.361486 566.121349 569.111584 571.109641
47.610000 562.085425 565.106873 568.274706 567.975063 570.692289 572.372747
47.735000 564.337485 567.328613 570.245866 569.944025 572.422206 574.331974
47.860000 566.752050 569.751880 572.079310 571.929994 574.060305 575.938251
47.985000 568.937551 571.584147 573.655825 573.536617 575.457815 577.419661
48.110000 570.820710 573.186340 575.164817 575.059697 576.834758 578.784001
48.235000 572.766732 574.769090 576.659832 576.627623 578.442632 580.208689
48.360000 574.503031 576.424718 578.230988 578.234779 579.963283 582.146001
48.485000 576.364583 578.374324 580.320291 580.482270 582.478319 585.636407
48.610000 578.947741 580.586204 582.562322 582.866919 585.219954 589.009511
48.735000 580.588301 582.348495 584.687565 585.088080 587.866581 591.409365
48.860000 581.956193 584.049408 586.742020 587.109470 590.282939 593.601673
48.985000 583.688477 585.918026 588.878977 589.236738 592.631755 596.229196
49.110000 585.298328 587.803325 591.088857 591.234686 594.698228 598.676626
49.235000 586.776767 589.597497 593.284990 593.340682 597.091200 600.490998
49.360000 588.362713 591.646304 595.487153 595.460038 599.122898 602.868786
49.485000 589.815521 593.390107 597.242010 597.298274 601.357880 604.608815
49.610000 591.295632 595.112002 599.283677 599.098314 603.184580 605.920276
49.735000 593.027009 596.845311 601.112648 600.872789 604.724390 607.490863
49.860000 595.249841 598.904033 602.961063 602.668820 606.333801 608.974025
49.985000 597.224474 600.772554 604.811485 604.409205 607.942089 609.972539
50.110000 598.987314 602.943742 606.604715 606.135461 609.359858 611.201790
50.235000 600.841207 604.915126 608.301763 607.859050 610.743645 612.439246
50.360000 603.021753 606.857395 609.901384 609.454292 611.967840 613.486369
50.485000 605.107672 608.443532 611.211484 610.858997 613.187979 614.662183
50.610000 607.044876 610.099638 612.547832 612.244877 614.375543 615.688830
50.735000 608.518831 611.538530 613.685372 613.482505 615.499416 616.778563
50.860000 610.683677 613.036974 614.954812 614.777370 616.593626 617.814802
50.985000 612.147896 614.418992 616.225898 616.073281 617.708097 618.868127
51.110000 614.055056 615.889862 617.559608 617.431141 618.937001 620.153846
51.235000 616.089576 617.822649 619.309026 619.163380 620.469539 621.588515
51.360000 618.464405 619.843477 621.028513 620.979740 622.144221 623.212197
51.485000 620.100312 621.332926 622.487877 622.534280 623.733191 625.280862
51.610000 621.502560 622.758799 623.884482 623.937372 625.137158 626.740245
51.735000 622.547516 623.939741 625.173017 625.238977 626.629678 628.208399
51.860000 623.726671 625.088503 626.351251 626.484270 627.945695 629.669245
52.000000 624.877823 626.231369 627.643318 627.731908 629.280153 630.875213
52.140000 626.057713 627.361992 628.757677 628.944466 630.564868 632.192347
52.280000 627.000356 628.494856 630.076223 630.171137 631.859190 633.363768
52.360000 627.848867 629.278840 630.841050 630.917048 632.690700 633.979776
52.445000 628.687633 630.044088 631.629341 631.716489 633.484617 634.749353
52.530000 629.594146 630.853953 632.404424 632.520118 634.257431 635.670842
52.610000 630.273347 631.563938 633.154908 633.266288 634.983198 636.587665
52.735000 631.236476 632.637141 634.310702 634.362181 636.125114 637.814499
52.860000 632.293286 633.649412 635.340412 635.435731 637.178121 638.957975
52.945000 632.963415 634.415133 636.151724 636.196966 637.966069 639.733347
53.030000 633.701338 635.158693 636.859860 636.956472 638.732740 640.726793
53.070000 634.096245 635.498410 637.309976 637.351431 639.147499 641.162412
53.175000 634.985061 636.422590 638.269748 638.293174 640.089851 642.385506
53.280000 635.908718 637.304506 639.228673 639.261008 641.092176 643.359995
53.300000 636.066699 637.495872 639.443795 639.465369 641.286233 643.599876
53.415000 636.994950 638.557725 640.581322 640.606047 642.515981 644.749611
53.530000 637.922776 639.513828 641.732284 641.732751 643.825166 646.117422
53.550000 638.107566 639.663879 641.939073 641.945490 644.065034 646.281104
53.665000 638.974063 640.747232 642.953133 643.075498 645.316261 647.742208
53.780000 639.921786 641.770323 644.135798 644.230227 646.633177 649.206609
53.800000 640.149029 641.948025 644.349803 644.449288 646.910365 649.421360
53.925000 641.209814 643.096684 645.590667 645.735266 648.275606 650.514283
54.050000 642.400654 644.378104 646.929160 647.009589 649.584331 651.785362
54.175000 643.370605 645.713937 648.170458 648.228232 650.796613 653.046055
54.300000 644.438024 646.913923 649.453798 649.463812 652.067466 654.551797
54.425000 645.562728 648.067359 650.728751 650.705412 653.331964 656.052534
54.550000 646.588560 649.173664 651.969803 651.901196 654.539613 657.400490
54.675000 647.631626 650.323252 653.145030 653.096591 655.780348 658.567687
54.800000 648.688670 651.396173 654.352525 654.286182 657.010000 659.867706
54.925000 649.955464 652.457358 655.529276 655.518770 658.263885 661.294256
55.050000 651.136271 653.589802 656.744237 656.685666 659.419669 662.481376
55.175000 652.184849 654.802262 657.933477 657.852964 660.545202 663.771622
55.300000 653.418130 656.014018 659.113166 659.059575 661.833263 665.002539
55.425000 654.349298 657.295618 660.332785 660.333624 663.211711 666.525925
55.550000 655.431359 658.520770 661.737144 661.618574 664.471056 667.659698
55.675000 656.944721 659.710804 662.932502 662.904155 665.834873 669.147283
55.800000 658.271415 661.025345 664.303737 664.250227 667.154842 670.295989
55.925000 659.558735 662.441610 665.599901 665.590744 668.611119 671.555657
56.050000 660.843116 663.855346 666.884982 666.921319 669.948682 672.816276
56.175000 661.980409 665.394547 668.253666 668.275622 671.209893 674.360288
56.300000 663.227336 666.848714 669.735226 669.654298 672.476694 675.607786
56.425000 664.791473 668.399628 671.178451 671.126672 673.977062 677.155291
56.550000 666.219389 669.920291 672.660953 672.655466 675.694647 678.607414
56.675000 667.839619 671.287463 674.046908 674.141799 677.188163 680.028941
56.800000 669.172574 672.909671 675.523964 675.638209 678.666654 681.585544
56.925000 670.900525 674.325403 677.068989 677.128507 680.038617 682.881211
57.050000 672.843026 675.899443 678.618069 678.664148 681.615578 684.273981
57.175000 674.225160 677.366260 680.246180 680.193901 683.103750 685.810330
57.300000 675.942191 678.907764 681.934418 681.754348 684.639210 687.033687
57.425000 677.556099 680.428372 683.442123 683.312554 686.093109 688.750388
57.550000 679.111848 681.910798 685.069394 684.929813 687.718843 690.246889
57.675000 680.574966 683.622974 686.751191 686.599519 689.327424 692.122525
57.800000 681.857351 685.302969 688.401508 688.252581 691.201192 694.063634
57.925000 683.615294 686.913323 689.999996 689.944465 692.837496 696.116958
58.050000 685.673453 688.795535 691.651446 691.657955 694.544217 697.786630
58.175000 687.809103 690.656459 693.357304 693.416723 696.218748 699.327232
58.300000 689.679125 692.314512 695.113262 695.182945 698.089914 700.851677
58.425000 691.192621 694.008978 696.902211 696.895281 699.914251 702.283507
58.550000 692.590873 695.724672 698.701682 698.636468 701.551410 703.668045
58.675000 694.372206 697.631971 700.604597 700.381848 703.202520 704.981919
58.800000 696.816523 699.533332 702.322519 702.146604 704.804849 706.617366
58.925000 698.813169 701.423176 704.016952 703.828343 706.233379 708.068869
59.050000 700.783823 703.261936 705.740271 705.554371 707.737337 709.762158
59.175000 702.788488 705.042506 707.364223 707.248767 709.366833 711.267092
59.300000 704.530652 706.862154 709.028823 708.936230 711.095317 712.712864
59.425000 706.712765 708.718469 710.978782 710.813876 712.800599 714.725416
59.550000 708.727201 710.715001 712.791700 712.695147 714.535968 716.372163
59.675000 710.202662 712.367375 714.422213 714.322759 716.296997 718.258941
59.800000 711.761271 714.005691 715.997393 715.964975 717.981150 719.810126
59.925000 713.522482 715.612423 717.603700 717.561661 719.558019 721.248655
60.050000 715.363666 717.189772 719.186061 719.176277 721.091845 722.487632
60.080000 715.856060 717.556973 719.607119 719.549418 721.401467 723.004853
60.190000 716.965449 719.010999 720.991029 720.933811 722.752581 724.182250
60.300000 718.488542 720.366011 722.373562 722.306865 724.073133 725.571130
60.330000 718.835273 720.797205 722.812785 722.689305 724.443983 725.951411
60.440000 720.197633 722.272002 724.195983 724.047999 725.702973 727.451461
60.550000 721.678873 723.734091 725.459317 725.392015 726.937290 728.796946
60.580000 722.123286 724.205993 725.799659 725.789443 727.396469 729.205389
60.690000 723.805483 725.768926 727.279873 727.426190 729.226843 731.309469
60.800000 725.912479 727.336303 728.750320 729.100938 731.040856 733.168056
60.830000 726.360665 727.744349 729.141087 729.503254 731.456128 733.550508
60.940000 727.561557 728.932141 730.562011 730.894881 733.052372 735.349635
61.050000 728.769747 730.055334 732.073937 732.318904 734.505547 736.978599
61.080000 729.077683 730.450652 732.504024 732.738861 734.928617 737.445505
61.205000 730.555877 732.050145 734.474112 734.679565 737.071235 740.612115
61.330000 731.994520 733.871660 736.518071 736.734807 739.413192 743.096316
61.455000 733.245652 735.644642 738.474076 738.831741 741.932832 746.394633
61.580000 734.767469 737.533997 740.724179 741.145758 745.041316 748.915429
61.620000 735.427406 738.088745 741.345729 741.764174 745.722180 749.688793
61.725000 736.869827 739.592359 743.208191 743.609347 747.702961 752.247629
61.830000 738.431599 741.047603 745.091768 745.422475 749.831069 754.709296
61.870000 738.892781 741.643205 745.785078 746.053187 750.440978 755.449529
62.008889 741.076311 743.977787 748.408752 748.664593 753.145518 758.190629
62.147778 743.086501 746.340946 751.110781 751.269254 756.058723 760.506543
62.286667 745.364254 749.028691 754.084918 753.938510 758.740478 763.526113
62.425556 747.564364 751.496060 756.549740 756.491632 761.392861 766.010045
62.564444 749.820287 754.222929 759.381243 759.229180 764.101981 767.974033
62.703333 752.576572 757.051012 762.184659 761.890886 766.680263 770.262493
62.842222 755.094477 759.901899 764.773488 764.514842 768.956351 772.768393
62.981111 758.592637 762.889758 767.449588 767.244969 771.484443 774.615002
63.120000 761.878776 765.848278 770.083330 769.926672 773.699199 776.732662
63.242500 764.410680 768.562514 772.434785 772.235824 775.934340 778.337612
63.365000 767.549067 770.896817 774.821322 774.470059 777.815876 780.092657
63.487500 770.114311 773.812427 777.069705 776.742817 779.722782 781.919881
63.610000 773.231840 776.268696 779.032655 778.851085 781.450332 783.410847
63.735000 775.205174 778.051157 780.818953 780.595067 783.095149 785.203369
63.860000 777.137724 779.780132 782.501036 782.292977 784.674722 786.650621
63.998889 778.618706 781.666776 784.444679 784.332002 786.868290 790.071379
64.137778 780.413656 783.496055 786.329920 786.299863 788.942689 792.394548
64.276667 782.158846 785.478901 788.251940 788.279302 791.205131 794.437060
64.415556 784.144925 787.294027 790.340890 790.312135 793.333703 796.383649
64.554444 786.163837 789.379442 792.252714 792.279446 795.272016 798.759693
64.693333 788.204675 791.237240 794.186104 794.284264 797.323265 800.647659
64.832222 790.345327 793.182493 796.149283 796.234256 799.314156 802.741358
