depth(m) lower_95(kyr) lower_68(kyr) median(kyr) mean(kyr) upper_68(kyr) upper_95(kyr)
6.170000 294.356791 297.362244 300.167252 300.087885 302.919262 305.111357
6.220000 297.790578 299.688763 302.237848 302.222902 304.654998 306.688428
6.270000 299.585875 302.031101 304.369717 304.245675 306.438142 308.457422
6.320000 301.460352 303.938376 306.158813 306.151380 308.400838 310.239046
6.340000 302.181929 304.674538 306.860872 306.853179 309.043469 311.072676
6.390000 303.750923 306.189189 308.441595 308.386224 310.626684 312.676624
6.440000 305.119538 307.668256 310.023424 309.980862 312.324288 314.426981
6.490000 306.717559 309.309996 311.764688 311.740379 314.175214 316.272741
6.540000 308.840679 311.182348 313.760455 313.722397 316.276613 318.224834
6.590000 311.241199 313.597697 316.096644 315.960635 318.351157 319.827089
6.640000 313.459802 315.684054 318.283794 318.027035 320.222119 321.543707
6.690000 315.565875 318.075123 320.292139 319.945390 321.739991 322.931784
6.740000 317.742121 320.267754 322.004567 321.763728 323.225733 324.333713
6.790000 320.922738 322.429676 323.615862 323.599696 324.817182 325.812458
6.840000 322.854600 324.056582 325.114294 325.131784 326.298637 327.271310
6.890000 324.597102 325.372375 326.518864 326.523118 327.658125 328.648221
6.940000 325.748345 326.636716 327.797168 327.809614 328.917113 329.924232
6.990000 326.863695 328.002388 329.119613 329.072285 330.149018 331.147013
7.040000 328.060689 329.296508 330.327558 330.328264 331.446305 332.437581
7.090000 329.579073 330.616020 331.670920 331.683442 332.767594 333.831368
7.190000 332.637537 333.657962 334.779490 334.829240 335.983409 337.213806
7.290000 336.363256 337.613443 338.791847 338.957800 340.392749 341.819069
7.340000 338.194105 339.378780 340.741906 340.807329 342.271837 343.693098
7.390000 339.721842 340.795888 342.213973 342.273165 343.754101 345.340463
7.440000 340.992826 342.115115 343.545921 343.591335 345.050943 346.779951
7.490000 342.186569 343.325583 344.769428 344.810902 346.259787 347.915200
7.590000 344.315394 345.593210 347.046845 347.130969 348.656381 350.241396
7.640000 345.631624 346.901103 348.288992 348.410550 349.897094 351.823766
7.690000 346.902918 348.188789 349.652779 349.763041 351.363020 353.288015
7.740000 348.245920 349.353112 350.997741 351.159981 352.884878 355.244343
7.790000 349.359465 350.714819 352.492975 352.690029 354.562647 357.017190
7.840000 350.739787 352.183507 354.160580 354.379180 356.603406 359.288041
7.890000 352.019636 353.675921 356.033255 356.215827 358.757124 361.230533
7.940000 353.454410 355.362777 357.974222 358.101351 360.858808 363.453157
7.990000 354.722331 356.999793 359.906319 359.967368 362.819191 365.755388
8.040000 356.443586 358.722875 361.806891 361.825575 364.713516 368.002565
8.090000 358.058913 360.571021 363.732622 363.836917 366.960690 370.240811
8.190000 361.514469 364.696098 368.290897 368.623253 372.500594 377.916246
8.290000 368.101708 372.714540 377.315784 377.437722 382.461747 387.030039
8.390000 374.941416 379.337176 384.285509 384.362426 389.420225 393.420187
8.490000 381.791258 386.324211 391.647376 391.284706 395.910750 398.635995
8.590000 392.741263 397.634879 400.598174 400.330067 403.026262 406.960786
8.690000 400.552543 403.248740 406.249165 406.195258 409.116548 412.293158
8.790000 405.510920 409.151404 411.900381 411.690052 414.254936 416.532916
8.890000 412.512997 414.507485 416.820824 416.981188 419.619365 421.845637
8.990000 417.065068 419.883389 422.743640 422.458397 425.011643 426.699757
9.090000 424.035947 426.496873 428.367022 428.315306 430.095188 432.020350
9.190000 428.804126 430.417217 431.940756 432.040226 433.761182 435.469262
9.290000 431.619707 433.288296 434.979637 435.048404 436.720203 439.462236
9.390000 434.404159 436.072639 437.966846 438.107028 439.921613 442.957380
9.440000 436.032497 437.856272 439.716146 439.945823 441.847031 445.012593
9.540000 439.143533 441.223441 443.485882 443.822801 446.287375 450.554146
9.640000 442.231400 444.710841 447.404764 448.086790 451.599718 457.362145
9.740000 445.375349 448.067366 451.662798 452.425489 457.109696 462.647644
9.840000 448.662872 452.229645 457.020591 457.606980 463.310182 469.110845
9.940000 453.179916 457.409217 463.604123 463.597351 469.452221 474.040088
10.040000 458.613247 464.339959 470.604531 469.935957 475.039599 478.026302
10.140000 465.529298 473.129470 477.478291 476.733786 480.480108 482.818709
10.240000 477.612312 481.001479 483.709596 483.652906 486.325397 489.827106
10.340000 482.744869 485.845930 489.232852 489.268236 492.729626 495.778324
10.440000 486.176613 489.780307 494.166474 493.745362 497.415383 499.778279
10.540000 489.920441 494.001182 497.951110 497.502783 500.780765 503.240830
10.640000 494.127278 498.120160 501.666469 501.354339 504.333055 506.541671
10.740000 498.817116 502.893564 505.512228 505.363255 507.940797 510.434797
10.840000 504.687617 507.210218 509.568073 509.682671 512.139688 516.115708
10.940000 508.738909 510.675283 513.364212 513.600840 516.190555 521.375313
11.040000 511.858821 514.505596 517.301976 517.753733 521.195612 525.623754
11.140000 516.182307 518.928623 521.736435 522.292536 526.030696 530.627093
11.240000 520.068294 523.286894 527.086829 527.227605 531.028512 534.982322
11.340000 524.646963 528.503485 532.256384 532.192991 536.063807 539.437438
11.440000 529.579817 533.683825 537.566178 537.416040 541.161714 544.860934
11.540000 535.080626 538.400680 542.080885 542.075607 545.660894 549.077681
11.640000 539.375428 542.832285 546.537634 546.442992 550.055283 552.940153
11.740000 543.899750 547.463975 551.217284 551.121996 554.648510 558.285559
11.840000 548.528376 552.222874 555.882686 555.811067 559.426060 563.089220
11.940000 554.511846 557.866724 561.153316 561.313248 564.796273 568.192138
12.040000 559.376444 563.032402 566.500214 566.347287 569.651476 572.900867
12.140000 564.898271 568.174531 571.673082 571.485227 574.593043 577.424394
12.240000 569.083096 573.265415 576.634666 576.364495 579.281380 581.789768
12.340000 574.504608 578.911732 581.375583 581.591575 584.255240 589.221869
12.440000 581.185436 583.488089 586.164379 586.693546 590.274898 595.223616
12.540000 584.688504 587.450300 591.000750 591.185165 594.650974 599.466479
12.640000 588.810032 591.925737 595.464000 595.613805 599.159941 603.788140
12.740000 592.445916 596.078204 599.812055 599.913362 603.581710 608.775426
12.820000 595.508390 599.702844 603.420874 603.495649 607.097962 612.539359
12.840000 596.241072 600.778107 604.567334 604.547706 608.085550 614.006465
12.920000 601.365444 605.042799 608.892750 609.171316 613.777438 618.013702
12.940000 602.278144 606.341677 610.183365 610.455667 615.352123 618.721416
13.020000 607.025144 611.524671 616.894231 615.966217 620.106317 621.706601
13.040000 608.166252 613.059306 618.196699 617.184075 620.968423 622.627942
13.120000 620.684151 622.115541 623.543014 623.602993 625.062507 627.169519
13.140000 621.685111 622.982364 624.396396 624.487240 625.980242 628.297789
13.220000 624.214892 625.761626 627.243591 627.331837 628.902737 630.849941
13.320000 627.082000 628.452380 630.299881 630.409291 632.270249 634.516459
13.420000 629.586225 631.349670 633.335734 633.340683 635.348058 637.429121
13.520000 632.228071 634.054442 636.166244 636.227508 638.297898 640.585263
13.620000 634.938341 636.936914 639.139129 639.182115 641.373912 643.730282
13.720000 637.676611 639.886353 642.111879 642.156028 644.327424 647.100236
13.820000 640.215786 642.806857 645.113533 645.169740 647.487310 650.263604
13.920000 643.445796 645.752733 648.202376 648.353637 650.897714 653.956996
14.020000 646.276428 648.744424 651.482049 651.641467 654.373078 658.651065
14.120000 649.452632 652.177920 654.911849 655.427681 658.826044 663.816746
14.220000 653.110799 656.141626 659.682851 660.312787 664.880735 670.413239
14.320000 658.360584 661.945894 667.687903 667.957196 674.048500 679.242261
14.420000 665.452291 672.471105 678.976175 678.335392 683.864931 688.824752
14.520000 682.673575 688.134756 691.707992 691.777380 695.965481 699.154964
14.620000 691.070763 694.658696 698.495115 698.146551 701.503000 703.778926
14.720000 697.862204 701.110277 703.769803 703.571378 705.926548 707.698340
14.820000 703.241746 705.596117 707.877046 707.744429 709.779197 711.904230
14.920000 706.907931 709.223775 711.285480 711.371527 713.522907 715.995218
15.020000 710.613188 712.454158 714.302403 714.545592 716.696546 719.739954
15.120000 714.580477 716.254696 718.124357 718.357154 720.445128 722.751609
15.220000 717.924427 719.899448 722.129514 722.244120 724.376586 727.326985
15.320000 721.828245 724.350608 726.758074 727.169637 730.049180 734.870731
15.420000 726.554402 729.381200 732.365970 732.722811 736.387143 740.232070
15.520000 731.149198 734.501968 738.480572 738.409735 742.178131 746.692750
15.620000 735.176312 739.398746 743.276316 743.169655 746.969349 750.719669
15.720000 739.385851 743.513938 747.442806 747.344130 751.351122 754.794898
15.820000 743.560954 747.501932 751.488536 751.375829 755.281395 758.679987
15.920000 747.735549 751.731690 755.788595 755.622416 759.494383 762.618498
16.020000 752.048523 756.238906 760.519631 760.258030 764.034336 768.103714
16.120000 756.703221 760.557085 764.827279 764.672888 768.533226 772.487848
16.220000 762.237665 766.352180 769.947986 770.001240 773.870484 776.826956
16.320000 767.079403 770.831978 774.493874 774.353468 777.837409 780.684723
16.420000 771.796105 775.251863 778.534114 778.467340 781.760974 784.297110
16.520000 777.545285 780.411434 783.065751 782.938313 785.381566 787.096436
16.620000 783.332745 785.979575 787.774516 787.656761 789.337460 791.121056
16.720000 788.270435 789.751124 791.384670 791.501613 793.195272 795.434918
16.820000 791.516740 793.154019 794.993574 795.355997 797.453941 801.969526
16.920000 794.952950 796.711948 798.844506 799.352935 802.139560 806.019668
17.020000 797.961605 800.384930 803.080075 803.498049 806.850749 810.315190
17.120000 801.711515 804.379134 807.647125 807.894604 811.375100 814.916038
17.220000 805.902909 808.631897 812.394837 812.566469 815.900937 821.323942
17.320000 812.543667 816.171803 819.713659 820.185810 823.976973 830.714912
17.420000 817.562928 821.605733 825.444591 825.985267 830.609516 837.010557
17.520000 821.567049 826.463831 831.736376 831.597931 836.892191 841.666486
17.620000 825.372520 831.721047 837.475504 836.966067 842.124717 845.882953
17.720000 831.016868 837.028759 842.342819 841.849087 846.629395 849.953422
17.820000 837.827195 842.594562 847.010480 846.601904 850.517636 853.247526
17.920000 843.444660 847.636954 851.241630 850.886771 854.300308 856.274045
18.020000 847.940945 851.889941 855.202412 854.857400 857.839004 859.615876
18.120000 852.544071 856.294631 859.066303 858.712895 861.083713 862.605331
18.220000 858.702395 861.450424 863.286895 863.080826 864.748630 866.079087
18.320000 866.103597 867.642379 869.426371 869.883768 872.211917 876.330469
18.420000 869.761177 871.970717 874.468299 874.707875 877.491347 881.083252
18.520000 873.310701 875.752430 878.897900 878.914495 882.030354 884.795018
18.620000 876.718364 879.732617 882.900321 882.870559 886.010005 888.692380
18.720000 880.075579 883.006577 886.309059 886.223040 889.187567 892.239256
18.820000 883.159184 886.137199 889.515756 889.343532 892.233780 895.254551
18.920000 886.286370 889.297081 892.500532 892.343389 895.096692 898.175214
19.020000 889.925240 892.717787 895.486648 895.510729 898.039566 901.725487
19.120000 893.361971 896.198784 898.850644 899.075486 901.897932 906.300771
19.220000 897.078100 899.773805 902.542996 902.923599 906.337844 910.770528
19.320000 900.320444 903.333214 906.881779 907.060607 910.953017 914.545455
19.420000 903.473953 906.711168 911.859373 911.436092 915.599920 918.211299
19.520000 906.871173 910.860775 917.633864 916.432740 920.737491 923.511909
19.620000 910.051546 913.848098 921.456465 920.269925 924.967894 928.151658
19.720000 913.344360 917.634179 924.888423 923.791217 928.370463 931.423004
19.820000 917.291593 923.261991 927.929703 927.445222 931.389525 934.766231
19.920000 924.760614 928.771377 931.931995 931.925918 935.380241 938.094675
20.020000 929.936695 933.460986 936.760555 936.616641 939.771532 942.020420
20.120000 935.873533 939.021033 942.219508 941.849204 944.437886 946.360264
20.220000 940.534853 943.474785 945.902048 945.634891 947.766012 949.106492
20.320000 944.909542 947.351049 949.330734 949.117376 950.812695 952.313438
20.420000 948.810853 950.825395 952.339098 952.231458 953.700244 954.874224
20.520000 952.281534 953.981843 955.228982 955.128596 956.271079 957.528893
20.620000 956.339620 957.560181 958.497918 958.597014 959.594745 961.318168
20.720000 959.892993 960.971206 962.306825 962.594029 964.312254 966.615739
20.820000 962.503386 964.057068 965.984733 966.312072 968.600986 971.513763
20.920000 965.558124 967.521392 969.815744 970.099817 972.556537 976.019192
21.020000 969.230213 971.429099 974.004796 974.402400 977.358238 981.576642
21.120000 972.453844 974.810689 978.029846 978.517334 982.196326 987.842945
21.220000 975.508410 978.208735 981.981939 982.554220 987.432696 991.829569
21.320000 978.453938 981.738739 985.987965 986.401778 991.423105 995.643623
21.420000 981.995896 985.429531 990.050545 990.282064 994.926301 999.119355
21.520000 985.282137 989.916220 994.871359 994.380957 998.536245 1002.103228
21.620000 989.557054 994.997412 999.159881 998.631205 1002.014665 1005.126636
21.720000 995.033148 1000.301482 1003.551111 1003.176871 1006.337133 1009.017911
21.820000 999.640636 1003.692933 1007.192537 1006.966298 1010.157542 1013.230492
21.920000 1004.729990 1007.622803 1010.716077 1010.760873 1013.773847 1017.813403
22.020000 1009.135694 1012.102412 1015.289657 1015.470180 1018.975209 1022.589928
22.120000 1013.863383 1016.730207 1020.344507 1020.372168 1024.132156 1026.477698
22.220000 1018.105119 1022.187159 1026.074377 1025.437216 1028.349238 1030.169770
22.320000 1024.938345 1029.131660 1031.127130 1031.146489 1033.286303 1036.512329
22.420000 1030.912044 1032.916793 1035.309483 1035.675042 1038.454116 1042.119629
22.520000 1033.870519 1036.040728 1039.267442 1039.507048 1042.649715 1047.430965
22.620000 1036.617487 1039.363671 1042.720443 1043.021703 1046.675304 1051.204747
22.720000 1040.234160 1043.067883 1046.607220 1047.044907 1051.204159 1055.440052
22.820000 1044.548422 1047.721068 1051.633294 1051.799659 1056.154564 1058.385742
22.920000 1049.137990 1052.828857 1056.647352 1056.353925 1059.877792 1061.613629
23.020000 1054.345908 1057.909099 1061.024777 1060.483199 1062.832203 1064.131338
23.120000 1062.067886 1063.876258 1065.092942 1064.991189 1066.241149 1067.431855
23.220000 1066.105899 1067.228292 1068.369795 1068.338523 1069.523249 1070.543257
23.320000 1068.710324 1069.867227 1071.002395 1070.944630 1071.959614 1073.118596
23.420000 1071.214881 1072.369146 1073.403771 1073.442922 1074.532562 1075.664353
23.520000 1073.841817 1075.068714 1076.150946 1076.084428 1077.093865 1078.347323
23.570000 1075.351919 1076.457901 1077.440884 1077.460314 1078.494897 1079.569860
23.620000 1076.708371 1077.897920 1078.861963 1078.920415 1080.018746 1081.336733
23.670000 1078.320602 1079.446283 1080.525171 1080.684127 1081.944993 1083.797825
23.720000 1079.991309 1081.198396 1082.576572 1082.912929 1084.528201 1087.467247
23.770000 1081.610727 1083.085257 1084.855632 1085.220266 1087.381151 1090.792285
23.870000 1084.759207 1086.809041 1089.541893 1089.969946 1093.268606 1096.928586
23.970000 1088.075337 1091.181894 1095.140539 1095.091850 1098.981272 1101.720200
24.070000 1091.951956 1096.426518 1100.774838 1100.054857 1103.286399 1105.336190
24.170000 1097.898920 1102.243819 1104.889775 1104.553981 1106.969577 1109.032123
24.270000 1102.932179 1106.149914 1108.284943 1108.182229 1110.203214 1112.289667
24.370000 1106.622062 1109.630154 1111.902369 1111.845963 1113.967241 1116.877858
24.470000 1111.211287 1113.495874 1115.780251 1116.269662 1118.974948 1123.844694
24.570000 1115.310893 1117.950733 1122.294405 1122.544023 1127.095731 1131.074566
24.670000 1119.178704 1123.427523 1129.507166 1128.827625 1133.444657 1137.059002
24.770000 1124.169253 1132.012652 1135.830515 1135.581675 1139.266468 1143.858387
24.870000 1135.248847 1138.785584 1142.123787 1142.414657 1146.502829 1150.271745
24.970000 1140.135873 1143.963210 1147.799017 1147.897102 1152.040423 1155.305456
25.070000 1144.742612 1149.010706 1153.003568 1152.770725 1156.533228 1159.527953
25.170000 1149.240060 1153.509965 1157.417556 1157.219846 1160.786741 1163.777174
25.270000 1153.572676 1157.334488 1160.674634 1160.679151 1164.125950 1168.079062
25.370000 1156.917924 1160.536079 1163.762669 1163.844667 1167.012914 1171.667107
25.470000 1160.147759 1163.462500 1166.671123 1166.939024 1170.510357 1174.819986
25.570000 1163.375231 1166.460953 1169.794732 1170.112186 1174.016919 1177.973905
25.670000 1166.181138 1169.470983 1173.229718 1173.519231 1177.849781 1181.528251
25.770000 1169.298716 1173.156812 1176.902054 1177.131344 1181.640518 1184.430007
25.870000 1172.877422 1176.902885 1181.789633 1181.194236 1185.366604 1187.481374
25.970000 1177.721916 1182.115030 1186.395601 1185.742139 1188.915209 1190.997938
26.070000 1185.149122 1188.730871 1191.122118 1190.932760 1193.102987 1195.925013
26.170000 1191.605827 1193.685888 1195.768729 1196.052810 1198.378864 1202.179760
26.270000 1195.357182 1197.298922 1200.055549 1200.347113 1203.400818 1206.697058
26.370000 1198.518729 1201.272396 1204.418768 1204.492310 1207.908503 1210.436109
26.470000 1202.119555 1205.980529 1209.463114 1209.211775 1212.290786 1214.978482
26.570000 1206.483978 1210.839817 1214.147182 1213.802295 1216.608097 1219.090277
26.670000 1211.069227 1214.381866 1217.327076 1217.066572 1219.765585 1221.639736
26.770000 1214.897378 1217.948357 1220.505726 1220.290336 1222.684780 1224.478230
26.870000 1219.530219 1222.106760 1224.066742 1224.019690 1226.048067 1228.006024
26.970000 1223.205003 1225.498233 1227.514580 1227.444896 1229.350669 1231.125629
27.070000 1226.790224 1228.985203 1230.830785 1230.736240 1232.449805 1234.055136
27.170000 1230.119930 1232.059989 1233.793404 1233.705095 1235.362566 1236.851426
27.270000 1232.995034 1234.945583 1236.496362 1236.406557 1237.915229 1238.958650
27.370000 1235.984923 1237.772698 1239.236334 1239.091178 1240.422058 1241.496875
27.470000 1239.798787 1241.141816 1242.264112 1242.223947 1243.352016 1244.454804
27.570000 1243.751584 1244.698056 1245.874965 1246.055662 1247.436810 1249.641612
27.670000 1246.428251 1247.771092 1249.374813 1249.520789 1251.280601 1253.409309
27.770000 1249.421891 1250.873306 1252.689251 1252.722453 1254.507020 1256.278988
27.830000 1251.148612 1252.923683 1254.755540 1254.855410 1256.878131 1259.123032
27.870000 1252.558954 1254.403729 1256.385526 1256.515825 1258.664413 1261.007304
27.930000 1254.697328 1256.710383 1258.724613 1258.906894 1261.353727 1263.505469
27.970000 1256.110602 1258.272127 1260.309856 1260.472878 1262.955206 1265.064358
28.030000 1258.277860 1260.414354 1262.654407 1262.647820 1264.910130 1267.124915
28.130000 1262.483732 1264.521057 1266.729935 1266.807743 1268.991598 1271.545424
28.230000 1267.232091 1269.474260 1272.071689 1272.253553 1275.080852 1277.871493
28.330000 1271.358132 1274.059337 1277.026633 1276.875802 1279.727449 1281.625013
28.430000 1275.171036 1278.862611 1281.579564 1281.165512 1283.330514 1285.150508
28.530000 1281.292463 1284.126470 1285.830767 1286.147795 1288.273588 1292.749332
28.630000 1285.486926 1287.391961 1289.860638 1290.417868 1293.775622 1297.477533
28.730000 1288.556274 1290.671926 1293.988222 1294.322369 1298.111428 1301.162339
28.830000 1291.644697 1294.251832 1298.400379 1298.293644 1302.240515 1304.604821
28.930000 1294.955678 1298.429755 1302.969311 1302.367805 1305.680120 1307.891163
29.030000 1299.461119 1303.340981 1306.768559 1306.204514 1308.794902 1310.558460
