depth(m) lower_95(kyr) lower_68(kyr) median(kyr) mean(kyr) upper_68(kyr) upper_95(kyr)
45.860000 309.873469 310.810522 311.666435 311.759970 312.703928 314.145422
45.935000 310.295464 311.165177 312.062566 312.187998 313.214117 314.786056
46.010000 310.609955 311.495722 312.419921 312.596718 313.731661 315.430452
46.060000 310.838228 311.741077 312.703017 312.881664 314.085204 315.818229
46.160000 311.346393 312.252194 313.260341 313.485581 314.819100 316.722329
46.210000 311.610541 312.512159 313.540718 313.780651 315.183717 317.025344
46.310000 312.158510 313.061596 314.114946 314.428108 315.932731 318.041125
46.410000 312.602438 313.598745 314.715561 315.061530 316.704790 318.823957
46.551667 313.185829 314.356489 315.672039 316.010633 317.746844 319.915148
46.693333 314.113703 315.258704 316.674798 316.928368 318.708010 320.759211
46.835000 314.845842 316.155337 317.706311 317.905046 319.780520 321.626313
46.976667 315.650288 317.080026 318.741032 318.849701 320.685138 322.659862
47.118333 316.443899 318.019261 319.735732 319.800525 321.677542 323.495739
47.260000 317.196916 318.991487 320.731331 320.729074 322.518198 324.096278
47.401667 318.243471 319.973902 321.665514 321.672616 323.464422 324.827239
47.543333 319.297722 321.038273 322.676905 322.618312 324.280027 325.635816
47.685000 320.480651 322.025490 323.627262 323.568634 325.130370 326.459896
47.826667 321.617612 323.046412 324.555918 324.507622 325.969722 327.128957
47.968333 322.537239 324.141146 325.457114 325.405110 326.723750 328.013050
48.110000 323.825896 325.088804 326.279267 326.297234 327.510872 328.776792
48.185000 324.454092 325.568759 326.770870 326.738854 327.880140 329.181602
48.260000 324.808269 326.086341 327.201653 327.151500 328.185547 329.504778
48.393333 325.601598 326.770374 327.910403 327.853584 328.890162 330.215449
48.526667 326.440331 327.521477 328.537219 328.543492 329.586509 330.916688
48.660000 327.298341 328.285938 329.171980 329.228776 330.279160 331.437470
48.710000 327.619142 328.576004 329.407816 329.483308 330.524979 331.640668
48.810000 328.205696 329.065455 329.843726 329.972408 331.023510 332.139456
48.910000 328.800697 329.585174 330.358139 330.516122 331.595074 332.627587
48.960000 329.047953 329.831284 330.640817 330.807753 331.957843 332.935168
49.010000 329.224585 330.113657 330.985239 331.117306 332.271714 333.304320
49.060000 329.571161 330.481567 331.365451 331.464645 332.592694 333.598874
49.172500 330.513686 331.380735 332.571160 332.603006 333.879258 334.870777
49.285000 331.402991 332.513878 333.843765 333.813966 335.071034 336.085535
49.397500 332.754043 333.880321 335.103199 335.089730 336.268454 337.168629
49.510000 334.209478 335.193465 336.309077 336.222757 337.218041 337.908141
49.560000 334.552710 335.578056 336.677038 336.568505 337.511067 338.176931
49.685000 335.555085 336.599040 337.575728 337.460748 338.287082 338.791496
49.810000 336.789796 337.650005 338.383497 338.311710 338.976159 339.495440
49.885000 337.407569 338.132760 338.806158 338.738837 339.288009 339.898403
49.960000 337.941705 338.583054 339.188339 339.127849 339.605165 340.244549
50.010000 338.201650 338.851705 339.424725 339.360537 339.793830 340.593606
50.060000 338.462648 339.085885 339.626044 339.579594 340.002651 340.772058
50.110000 338.753507 339.345556 339.827232 339.794034 340.178154 340.943754
50.185000 339.120847 339.654826 340.101398 340.084575 340.445705 341.220268
50.260000 339.494251 339.966086 340.380589 340.370044 340.710166 341.453075
50.310000 339.729437 340.159957 340.557014 340.557668 340.889318 341.656295
50.410000 340.118180 340.509471 340.892635 340.893076 341.214955 342.005476
50.460000 340.295849 340.700258 341.061339 341.064817 341.372633 342.164314
50.560000 340.662496 341.035084 341.366185 341.380209 341.672986 342.499273
50.660000 341.004978 341.350585 341.662123 341.693312 341.980628 342.835630
50.710000 341.183795 341.524741 341.826856 341.856898 342.159215 343.000157
50.810000 341.530328 341.830837 342.110280 342.165047 342.440934 343.262909
50.860000 341.677287 341.997716 342.277590 342.328340 342.611955 343.422768
50.960000 342.023371 342.322394 342.590651 342.635923 342.895781 343.749369
51.010000 342.213402 342.482780 342.752180 342.796962 343.053026 343.909951
51.110000 342.518535 342.768970 343.041423 343.088761 343.342091 344.178374
51.160000 342.649371 342.925591 343.202936 343.249640 343.499583 344.358124
51.273333 342.980514 343.271610 343.522295 343.573167 343.839451 344.663017
51.386667 343.329307 343.587995 343.845934 343.902389 344.149783 345.006441
51.500000 343.674096 343.938210 344.183753 344.234142 344.469077 345.321879
51.575000 343.914532 344.170899 344.399623 344.462210 344.700143 345.549485
51.650000 344.144639 344.391612 344.626084 344.688449 344.930942 345.810911
51.700000 344.327196 344.549291 344.779687 344.846509 345.084675 345.972756
51.800000 344.648752 344.841527 345.079437 345.145037 345.371191 346.278997
51.850000 344.807746 345.016634 345.241257 345.311201 345.530655 346.450550
51.900000 344.963232 345.162666 345.420261 345.487079 345.705184 346.686367
51.950000 345.139518 345.350008 345.599305 345.668569 345.893921 346.882191
52.000000 345.335661 345.537461 345.774806 345.857558 346.099719 347.070189
52.050000 345.514317 345.715786 345.976198 346.055402 346.315511 347.304030
52.100000 345.683655 345.898483 346.176319 346.266362 346.586059 347.554266
52.150000 345.843770 346.085934 346.367842 346.480972 346.840772 347.775354
52.200000 346.033570 346.279187 346.575201 346.704395 347.149675 347.978072
52.250000 346.216911 346.479969 346.807603 346.936701 347.434646 348.186861
52.300000 346.409432 346.688616 347.029935 347.181569 347.769677 348.477112
52.350000 346.604749 346.901574 347.264293 347.422035 348.048496 348.812111
52.400000 346.812649 347.112937 347.527241 347.663966 348.326750 349.019868
52.500000 347.169702 347.503580 348.074128 348.156053 348.839309 349.530956
52.550000 347.367085 347.732985 348.354199 348.409437 349.113951 349.782940
52.600000 347.593258 347.958107 348.626158 348.670702 349.380586 350.168344
52.650000 347.805674 348.206168 348.883809 348.927276 349.622649 350.614748
52.700000 348.030974 348.443165 349.177254 349.206738 349.881596 350.926038
52.800000 348.498882 348.987715 349.749941 349.798647 350.520829 351.619231
52.850000 348.737586 349.285319 350.046100 350.090605 350.864725 351.862773
52.900000 348.971075 349.607851 350.390464 350.419798 351.183549 352.135698
53.000000 349.599047 350.278138 351.133284 351.159814 351.957840 352.944353
53.100000 350.216773 351.050818 351.880918 351.876991 352.689284 353.653978
53.200000 350.858317 351.649081 352.538043 352.533223 353.332802 354.302810
53.250000 351.192078 351.994672 352.832481 352.843015 353.630413 354.831302
53.325000 351.636521 352.467729 353.259536 353.292190 354.077083 355.274970
53.400000 352.079612 352.886401 353.658845 353.700867 354.491641 355.634892
53.450000 352.355173 353.180727 353.926872 353.970610 354.738290 355.896531
53.500000 352.676624 353.453272 354.200596 354.235807 354.964036 356.128881
53.550000 352.877194 353.745967 354.463580 354.500413 355.222237 356.383896
53.600000 353.168854 354.054710 354.719895 354.760441 355.426944 356.607154
53.650000 353.412637 354.311429 354.969790 355.018158 355.673342 356.810525
53.700000 353.849928 354.630682 355.246287 355.290638 355.917345 356.994046
53.800000 354.510311 355.229162 355.740201 355.805564 356.418895 357.351220
53.850000 354.766171 355.485230 356.019772 356.063526 356.693404 357.559989
53.900000 355.159177 355.738127 356.263878 356.323445 356.957020 357.779163
53.950000 355.483804 356.022478 356.493132 356.578936 357.240495 357.968751
54.000000 355.759252 356.266816 356.719780 356.822751 357.507886 358.169535
54.050000 356.041601 356.503746 356.961831 357.072669 357.782243 358.348522
54.100000 356.253718 356.755237 357.218311 357.322930 358.046268 358.597404
54.150000 356.496279 356.985767 357.500393 357.572478 358.288117 358.797362
54.200000 356.737863 357.182940 357.749092 357.812503 358.510946 359.023036
54.250000 357.023048 357.431644 358.014360 358.056977 358.710946 359.260751
54.300000 357.229290 357.645757 358.286064 358.301412 358.953304 359.495131
54.350000 357.435518 357.878884 358.539865 358.534712 359.169278 359.740614
54.450000 357.809226 358.306417 358.979895 358.960656 359.554956 360.143433
54.550000 358.167687 358.740136 359.428661 359.377694 359.957972 360.630773
54.650000 358.562207 359.142656 359.837432 359.794820 360.341125 361.188557
54.700000 358.786410 359.334485 360.071472 360.010748 360.530594 361.426838
54.750000 359.010360 359.597752 360.292355 360.234620 360.772916 361.624020
54.800000 359.216584 359.841755 360.507156 360.467454 360.993386 361.847848
54.850000 359.417390 360.065598 360.711888 360.690867 361.209633 362.093084
54.900000 359.655039 360.334353 360.929585 360.919606 361.436871 362.262216
55.000000 360.049287 360.786218 361.308635 361.333423 361.901333 362.728599
55.050000 360.266598 361.007147 361.530537 361.554029 362.141544 362.984042
55.150000 360.755127 361.460628 361.957631 361.993357 362.536951 363.336679
55.200000 360.999365 361.683016 362.182226 362.228958 362.814086 363.599298
55.250000 361.220578 361.898471 362.424069 362.472254 363.083503 363.878607
55.300000 361.446378 362.134593 362.671453 362.741480 363.382183 364.193968
55.375000 361.984470 362.526357 363.094996 363.186914 363.875796 364.748724
55.450000 362.408104 362.902298 363.593726 363.642188 364.378993 365.210881
55.500000 362.649782 363.199434 363.892421 363.954075 364.701131 365.565700
55.600000 363.230137 363.792640 364.488759 364.574905 365.397758 366.177930
55.650000 363.485235 364.109923 364.800407 364.869914 365.677601 366.566980
55.700000 363.806303 364.361809 365.067895 365.156998 366.007256 366.829053
55.750000 364.019536 364.618509 365.339543 365.434009 366.336069 367.070983
55.800000 364.339714 364.902668 365.646318 365.722589 366.636474 367.291068
55.850000 364.565638 365.155700 365.956772 366.006691 366.890831 367.515555
55.900000 364.820039 365.430182 366.234129 366.274269 367.166838 367.718079
56.000000 365.253569 365.931043 366.722392 366.744235 367.613185 368.070245
56.050000 365.539489 366.194760 367.048042 367.002718 367.879184 368.240823
56.150000 366.018484 366.674870 367.592100 367.496504 368.270409 368.708384
56.200000 366.264955 366.951859 367.841351 367.749768 368.490217 368.944067
56.250000 366.504557 367.184673 368.093132 367.993109 368.694347 369.241434
56.300000 366.778118 367.461345 368.326093 368.221192 368.876842 369.544785
56.350000 366.971289 367.695843 368.546324 368.440381 369.054864 369.683454
56.450000 367.349061 368.207427 368.936544 368.849705 369.403908 370.231499
56.550000 367.730409 368.638740 369.300170 369.234284 369.732068 370.888399
56.650000 368.143261 369.058305 369.640416 369.624261 370.067292 371.440952
56.725000 368.471697 369.389681 369.933319 369.917441 370.321834 371.816016
56.800000 368.858935 369.718799 370.200679 370.206657 370.567839 372.155262
56.850000 369.020867 369.941248 370.382645 370.406650 370.753300 372.320979
56.970000 369.394001 370.408110 370.783276 370.847561 371.170905 372.833594
57.020000 369.567108 370.600746 370.959594 371.045103 371.388827 373.008341
57.070000 369.780197 370.796152 371.150508 371.239629 371.595546 373.231899
57.120000 370.035444 370.978730 371.329812 371.435221 371.787451 373.385073
57.170000 370.254332 371.177595 371.515519 371.640138 372.041482 373.615406
57.220000 370.457855 371.373166 371.714642 371.852705 372.289948 373.820702
57.270000 370.741596 371.577854 371.916332 372.068357 372.559373 374.005981
57.370000 371.229636 371.926331 372.292681 372.493175 373.208931 374.418687
57.470000 371.726064 372.280983 372.685601 372.920815 373.786056 374.792794
57.520000 371.966834 372.454797 372.894607 373.148525 374.147546 375.007996
57.570000 372.220451 372.666496 373.125258 373.374076 374.482916 375.241333
57.620000 372.460867 372.866824 373.339072 373.601084 374.704307 375.433975
57.670000 372.699571 373.070904 373.586344 373.827680 374.914427 375.701364
57.720000 372.902262 373.292705 373.839629 374.064137 375.165693 375.939170
57.820000 373.322579 373.726338 374.303467 374.514276 375.540150 376.296845
57.870000 373.522606 373.957938 374.538097 374.746694 375.748736 376.559422
57.920000 373.756086 374.185289 374.778077 374.985598 375.988924 376.742845
57.970000 373.999641 374.422193 375.016342 375.227732 376.186928 377.047042
58.020000 374.215618 374.671873 375.287164 375.480787 376.413225 377.325418
58.070000 374.425671 374.923567 375.547664 375.728680 376.647660 377.522531
58.120000 374.696225 375.202999 375.840404 375.992317 376.875710 377.723217
58.220000 375.192333 375.710523 376.432523 376.509843 377.325835 378.394067
58.270000 375.438495 375.941921 376.693404 376.762682 377.554693 378.614677
58.320000 375.679004 376.203714 376.938078 377.014776 377.797782 378.983634
58.370000 375.961705 376.453420 377.239906 377.271774 378.066535 379.189991
58.420000 376.175692 376.725344 377.508434 377.538316 378.291189 379.468576
58.470000 376.453779 377.009068 377.793783 377.805364 378.544626 379.666576
58.520000 376.675379 377.241891 378.098274 378.070390 378.793292 379.892445
58.570000 376.915387 377.496118 378.367557 378.334768 379.024627 380.178133
58.620000 377.146093 377.736388 378.631991 378.583111 379.253015 380.455856
58.670000 377.359165 377.979152 378.891869 378.818015 379.467007 380.659473
58.720000 377.572366 378.205897 379.141973 379.072687 379.748256 380.940273
58.770000 377.808404 378.435565 379.379610 379.313103 380.002548 381.175671
58.870000 378.227849 378.911048 379.851257 379.797542 380.539635 381.681078
58.920000 378.379433 379.144684 380.089764 380.052432 380.830706 381.999276
58.970000 378.621926 379.342770 380.339180 380.307020 381.108307 382.293227
59.020000 378.817182 379.592431 380.607529 380.579581 381.439164 382.609298
59.070000 379.003500 379.817105 380.907023 380.869696 381.739327 382.903099
59.120000 379.221610 380.098407 381.168896 381.141526 381.996753 383.153947
59.170000 379.398733 380.318709 381.423830 381.411041 382.298074 383.523080
59.220000 379.573605 380.589175 381.696662 381.667994 382.608864 383.810268
59.270000 379.864150 380.833591 381.984912 381.942055 382.920475 384.077413
59.320000 380.101157 381.064274 382.290399 382.221019 383.198970 384.460868
59.420000 380.549293 381.641669 382.847967 382.813739 383.925814 385.123309
59.520000 380.965935 382.127345 383.367837 383.377768 384.575874 385.800722
59.570000 381.233147 382.398524 383.664112 383.661932 384.903563 386.028444
59.620000 381.485255 382.664620 383.964189 383.964288 385.205769 386.312909
59.720000 382.001069 383.227266 384.656189 384.577512 385.845505 386.880302
59.770000 382.263728 383.514901 384.957116 384.879588 386.164977 387.298097
59.820000 382.521606 383.765625 385.277214 385.170228 386.508466 387.520385
59.920000 383.179928 384.310627 385.905103 385.792221 387.117086 388.242621
60.020000 383.712101 384.830691 386.462552 386.359300 387.725642 388.845699
60.070000 384.041177 385.090483 386.667900 386.628206 387.975980 389.209672
60.120000 384.246065 385.329637 386.892299 386.888833 388.290648 389.504212
60.170000 384.439844 385.585507 387.127214 387.157921 388.615211 389.883033
60.270000 384.844809 386.118838 387.625468 387.677889 389.117741 390.449541
60.370000 385.314689 386.705893 388.179367 388.194483 389.667458 391.015734
60.470000 385.719898 387.279411 388.709604 388.709218 390.300610 391.472554
60.520000 385.972911 387.567373 388.988843 388.974319 390.529981 391.757548
60.620000 386.390820 388.209540 389.570470 389.533466 390.999341 392.258591
60.670000 386.573121 388.511462 389.817960 389.810054 391.292436 392.541437
60.720000 387.104577 388.789577 390.110577 390.116310 391.589222 392.750310
60.820000 387.722059 389.486952 390.886485 390.797259 392.204787 393.233775
60.920000 388.500542 390.295155 391.585828 391.532038 392.831464 393.854163
61.020000 389.625000 391.067360 392.430511 392.321779 393.509766 394.708457
61.120000 390.663687 391.968825 393.204574 393.167919 394.334798 395.706534
61.220000 391.736224 393.059751 394.234262 394.238797 395.502859 396.706400
61.320000 392.755165 394.112328 395.316476 395.307035 396.461847 397.671760
61.420000 394.320068 395.238900 396.348736 396.365795 397.461044 398.485102
61.520000 395.743687 396.577481 397.573757 397.616311 398.677478 399.656669
61.620000 397.557482 398.506744 399.323369 399.299192 400.115799 400.806588
61.670000 398.160165 399.002345 399.777520 399.734708 400.492585 401.129109
61.720000 398.515541 399.418403 400.215517 400.167872 400.912249 401.515245
61.770000 398.894913 399.827571 400.642372 400.557843 401.276486 401.923760
61.820000 399.265199 400.227764 400.998684 400.930962 401.654811 402.247431
61.920000 400.223908 400.960281 401.612185 401.621160 402.297136 403.038529
62.020000 400.912114 401.555282 402.167529 402.207450 402.891586 403.619608
62.120000 401.533223 402.051357 402.663132 402.715332 403.447991 404.144196
62.220000 401.967058 402.454297 403.123809 403.179572 403.914807 404.634017
62.270000 402.181004 402.640339 403.351438 403.399511 404.136472 404.866994
62.320000 402.347439 402.839154 403.587771 403.623142 404.390616 405.086783
62.370000 402.584601 403.045072 403.803859 403.850848 404.621943 405.442262
62.420000 402.794748 403.287534 404.012996 404.074865 404.845421 405.752180
62.470000 402.977760 403.533522 404.227328 404.295642 405.057928 406.013950
62.520000 403.188069 403.760597 404.443527 404.530935 405.290849 406.242056
62.595000 403.470841 404.101610 404.811202 404.871844 405.626971 406.618825
62.670000 403.740836 404.405852 405.162541 405.213090 405.992608 406.997474
62.770000 404.177757 404.802059 405.623793 405.685753 406.557751 407.574402
62.820000 404.400571 405.079338 405.922881 405.966807 406.859918 407.822467
62.920000 404.863808 405.646722 406.518465 406.647010 407.694311 408.975619
63.065000 405.683121 406.527621 407.818438 407.962043 409.382975 411.142305
63.210000 406.439629 407.625584 409.093797 409.343208 411.165907 413.070884
63.355000 407.205705 408.809881 410.572385 410.744027 412.749759 414.860824
63.500000 408.200233 409.999994 412.127315 412.168114 414.264025 416.446392
63.645000 409.467581 411.346455 413.610659 413.643828 416.004745 418.311165
63.790000 410.846356 412.814596 415.066222 415.119010 417.358929 419.830879
63.935000 412.390391 414.403780 416.651297 416.696531 418.957958 421.254994
64.080000 414.060002 415.933628 418.224301 418.190854 420.293508 422.796610
64.225000 415.834019 417.609986 419.668907 419.646689 421.668633 423.637258
64.370000 417.417018 419.182023 421.045738 421.037523 422.989141 424.478956
64.445000 418.094890 419.748183 421.625937 421.623506 423.550725 425.049689
64.520000 418.735460 420.305757 422.177048 422.187963 424.042712 425.513611
64.640000 419.715562 421.376382 423.175300 423.142622 424.896771 426.332834
64.760000 421.028179 422.493442 424.184281 424.117942 425.666981 426.977562
64.880000 422.087092 423.549930 425.186232 425.044739 426.412078 427.657075
65.000000 423.224025 424.725121 426.021131 425.942424 427.103031 428.252956
65.120000 424.671078 425.813173 426.798172 426.797257 427.812567 428.766491
65.195000 425.226295 426.320425 427.212395 427.225985 428.176781 429.111375
65.270000 425.757482 426.769794 427.647616 427.642408 428.584568 429.439779
65.395000 426.588779 427.404623 428.180032 428.218841 429.104289 429.935674
65.520000 427.349518 427.977838 428.727920 428.755427 429.594585 430.342703
65.620000 427.862611 428.372852 429.110363 429.147215 429.963974 430.687846
65.670000 428.118913 428.602887 429.304788 429.345471 430.162292 430.821966
65.745000 428.396172 428.917316 429.575612 429.624688 430.440303 431.051828
65.820000 428.684000 429.229455 429.861433 429.904505 430.718118 431.290027
65.870000 428.875375 429.427344 430.035562 430.090384 430.927026 431.438153
65.970000 429.292700 429.844262 430.357291 430.428368 431.215716 431.735012
