depth(m) lower_95(kyr) lower_68(kyr) median(kyr) mean(kyr) upper_68(kyr) upper_95(kyr)
12.030000 299.383918 300.275529 301.109372 301.089271 301.942873 302.734571
12.130000 300.903187 302.035280 303.109770 303.166398 304.205105 306.329704
12.230000 302.555366 303.798208 305.116996 305.300270 306.704826 309.602400
12.330000 304.616138 306.073652 307.949590 308.465807 311.022269 314.669147
12.430000 307.075363 308.987894 311.608065 311.902914 315.012895 318.338758
12.530000 309.570590 312.003001 315.047917 315.084792 318.319828 320.303580
12.630000 311.979384 315.336751 318.725822 318.199965 320.926002 322.194586
12.730000 315.686446 319.756605 322.351527 321.916027 323.991377 325.753546
12.830000 320.146792 322.713133 324.367614 324.381228 326.247632 328.093333
12.930000 323.334212 324.835393 326.424946 326.545790 328.362421 330.035719
13.030000 325.741757 327.194709 328.798954 328.836136 330.544021 332.036282
13.130000 327.744212 329.806188 331.674335 331.494559 333.064989 334.440688
13.220000 333.075349 334.292663 335.621163 335.682504 337.109152 338.738171
13.325000 335.591184 337.506955 339.782533 340.622960 344.586741 347.443789
13.430000 339.050749 340.665574 346.240094 345.034158 348.527217 350.399045
13.530000 342.146670 344.475162 348.848652 348.067217 350.837245 352.785565
13.630000 345.360448 349.507244 351.656227 351.325069 353.230191 354.854767
13.730000 348.595875 351.597082 353.640952 353.388022 355.244887 356.862001
13.830000 350.538265 353.525857 355.359429 355.215364 357.010679 358.696860
13.930000 352.666910 355.176326 356.948839 356.861450 358.647984 360.172170
14.030000 354.399445 356.913752 358.580117 358.508088 360.249797 361.600065
14.130000 356.563866 358.508342 360.228598 360.141109 361.900801 363.329213
14.230000 358.155024 360.107083 361.822603 361.751819 363.407682 364.926547
14.330000 359.870080 361.786117 363.402237 363.361888 364.935059 366.384413
14.430000 361.836200 363.535215 365.042335 365.025413 366.476262 367.840321
14.530000 363.879636 365.288499 366.737646 366.812700 368.390980 370.018885
14.630000 365.612870 366.883204 368.490873 368.637940 370.427512 372.578427
14.720000 367.035253 368.501887 370.175853 370.404662 372.319291 374.883646
14.830000 368.917347 370.500519 372.386650 372.602222 374.683848 377.503763
14.930000 370.785532 372.296137 374.466899 374.642515 376.996448 379.479373
15.030000 372.669217 374.351331 376.505527 376.707208 379.096112 381.585249
15.130000 374.558983 376.457000 378.937732 378.975598 381.578782 383.792475
15.230000 376.392166 378.442461 380.897943 380.991662 383.644042 385.757663
15.330000 378.740706 380.864331 383.317819 383.368596 385.876762 388.304325
15.430000 380.917809 383.215578 385.603733 385.663002 388.403189 390.499791
15.530000 383.208183 385.506342 387.805619 387.968834 390.729951 392.508449
15.630000 385.716183 388.123351 390.416649 390.470241 393.093505 394.522487
15.730000 388.254989 390.924383 393.247400 392.957772 394.947450 396.433206
15.830000 392.231912 394.487213 395.829190 395.743224 397.134033 398.587190
15.930000 395.583382 396.854728 398.096938 398.108556 399.429612 400.700255
16.030000 398.860406 400.485959 402.277852 402.378610 404.401897 406.478072
16.130000 401.540337 403.485015 405.423825 405.530113 407.758426 409.590003
16.220000 404.103079 406.253989 408.703780 408.606464 411.035666 412.504914
16.330000 409.091359 412.092853 414.207072 414.139272 416.203368 418.853990
16.430000 415.637936 417.042088 418.796026 418.817842 420.528780 422.062320
16.530000 419.151075 420.588304 421.992836 422.027308 423.500533 424.914696
16.630000 420.937549 422.491815 423.989477 423.962002 425.442640 426.905201
16.730000 423.069367 424.653923 426.254292 426.263236 427.846160 429.814180
16.830000 426.725399 428.783304 431.625572 431.743854 434.793078 437.240145
16.930000 429.364065 431.655871 435.219785 435.069048 438.296609 440.066361
17.030000 431.968250 434.718046 438.243292 437.872552 440.697333 442.271479
17.130000 435.241787 438.232852 440.900532 440.555576 442.602931 443.924011
17.230000 439.441037 441.815649 443.390298 443.211202 444.609786 445.814386
17.330000 442.718145 444.142945 445.416594 445.339372 446.577551 447.637108
17.430000 444.570650 445.805204 446.926354 446.954569 448.115477 449.317416
17.530000 446.130160 447.169183 448.330770 448.354119 449.549294 450.667091
17.630000 447.433074 448.532103 449.707481 449.691172 450.857643 451.971715
17.720000 448.562747 449.685468 450.847848 450.854930 452.009068 453.052207
17.820000 449.939995 450.970575 452.201538 452.165110 453.332318 454.326332
17.830000 450.103476 451.100239 452.328031 452.317953 453.483625 454.472848
17.920000 451.193192 452.277109 453.500792 453.442397 454.622998 455.820524
17.995000 452.167268 453.183701 454.374469 454.382797 455.511628 456.707457
18.070000 453.110209 454.094572 455.275735 455.319669 456.468413 457.786712
18.120000 453.745259 454.730375 455.962669 455.989491 457.202096 458.546198
18.250000 454.924398 456.226029 457.567067 457.534076 458.831253 460.290665
18.385000 456.485450 457.825656 459.158773 459.170159 460.505395 461.794857
18.520000 458.087055 459.407709 460.766892 460.795412 462.216195 463.636100
18.620000 459.364744 460.720685 462.047135 462.095776 463.561647 465.025571
18.720000 460.593018 461.897556 463.286917 463.364281 464.801742 466.333551
18.840000 462.010641 463.360388 464.771062 464.888708 466.428499 468.109970
18.930000 463.161763 464.551677 466.056381 466.130863 467.740449 469.512468
19.020000 464.281047 465.796203 467.324673 467.410593 469.028086 471.074453
19.120000 465.770462 467.250706 468.816549 468.954981 470.667155 472.896862
19.220000 467.315301 468.755747 470.325781 470.615140 472.667289 475.115788
19.320000 468.834270 470.191293 472.218275 472.435108 474.753092 477.123733
19.420000 470.399327 472.079761 474.646615 474.692256 477.295450 479.564084
19.500000 472.051548 473.878593 476.582523 476.618652 479.315550 481.534873
19.580000 473.689068 476.290883 478.975420 478.842668 481.336280 483.421632
19.695000 476.585470 479.895620 482.452611 482.357036 484.707930 487.438796
19.810000 481.608364 484.082571 485.939993 486.079994 488.041284 491.611147
19.920000 485.318680 487.063306 489.270898 489.385212 491.706062 494.800206
20.010000 487.210200 489.273637 491.743676 491.792589 494.098920 497.190646
20.110000 489.178530 491.789417 494.344442 494.339904 496.933338 499.375248
20.220000 491.747885 494.483966 497.194197 497.110646 499.569008 502.046132
20.320000 494.485867 497.469951 499.923904 499.819693 502.242045 504.565408
20.410000 497.655267 500.226506 502.686626 502.680067 505.101587 507.900710
20.510000 501.345856 503.785353 506.569299 506.998262 510.088118 515.188548
20.610000 503.768688 507.226608 511.700843 511.591896 515.824528 519.027309
20.710000 506.588653 512.037334 516.908981 515.939304 519.555102 521.717400
20.810000 511.115607 517.180336 519.932160 519.494519 522.175827 523.629741
20.910000 519.359696 521.313776 523.026760 522.842935 524.447129 525.457991
20.990000 522.170604 523.797867 525.030071 524.900758 526.124834 526.956503
21.070000 525.106336 525.926716 526.883910 526.882637 527.811226 528.654005
