depth(m) lower_95(kyr) lower_68(kyr) median(kyr) mean(kyr) upper_68(kyr) upper_95(kyr)
12.540000 300.237442 301.086485 302.006584 301.978715 302.795444 303.828255
12.640000 302.289846 303.545994 304.679967 304.943834 306.330018 309.336370
12.740000 304.554617 305.973030 307.500416 307.841550 309.833116 312.823223
12.840000 307.148919 308.606566 310.360334 310.804877 313.265986 315.966661
12.940000 309.564917 311.190077 313.431109 313.694538 316.388688 318.655631
13.040000 311.890320 313.965397 316.671154 316.616026 319.195781 321.148939
13.140000 314.506914 317.456273 320.174421 319.900489 322.065837 323.940308
13.240000 320.378224 322.934227 324.747472 324.753029 326.519682 329.043190
13.335000 323.681582 326.245832 328.137704 328.161966 330.174557 332.532383
13.430000 328.028398 329.811527 331.674100 331.620291 333.317349 335.361983
13.530000 333.158010 334.551452 335.912896 335.930020 337.408076 338.627794
13.630000 336.976205 338.361477 339.878028 339.860538 341.279439 342.812276
13.730000 339.490435 340.859404 342.313612 342.282366 343.692661 345.062549
13.830000 341.444721 342.858000 344.282387 344.306800 345.692277 347.316134
13.930000 343.430812 344.729762 346.214624 346.362470 347.932480 350.416829
14.030000 345.409682 346.710863 348.385914 348.705695 350.511367 354.905626
14.130000 347.241338 349.016937 350.883627 351.590444 354.747791 358.533200
14.230000 349.652117 351.629306 354.240370 354.786120 358.360328 361.426883
14.330000 352.089083 354.370820 357.922666 357.869354 361.214610 363.471190
14.430000 354.611248 357.720424 361.335227 360.959417 363.934102 365.743813
14.530000 357.782886 361.290360 364.169447 363.798633 366.142967 368.031949
14.630000 362.361095 364.764076 366.902066 366.736204 368.540952 370.818210
14.730000 365.652686 367.682357 369.477890 369.547166 371.418690 373.856061
14.830000 367.864440 369.975550 371.710539 371.847545 373.876402 376.145534
14.920000 369.627671 371.740913 373.685390 373.764234 375.792711 378.317911
15.020000 371.550800 373.776592 375.817155 375.886500 377.974618 380.785352
15.120000 373.653102 375.963199 378.054603 378.149492 380.356749 383.313939
15.220000 376.110118 378.090505 380.299353 380.438867 382.900770 385.550219
15.320000 378.646800 380.587655 382.804591 383.025877 385.622365 388.215172
15.420000 380.623214 382.739714 385.020096 385.316654 388.033181 390.798265
15.520000 382.704372 385.034024 387.423966 387.626855 390.131631 392.858742
15.620000 384.764432 387.409908 389.868776 390.010795 392.505609 395.409696
15.720000 387.169656 389.928344 392.602708 392.683115 395.218843 398.095683
15.855000 390.801830 394.172600 397.533550 398.395202 402.664037 410.530545
15.990000 395.308507 399.291037 404.269103 404.700445 410.178704 417.327650
16.125000 400.045577 405.784102 411.558205 411.252851 416.653256 421.435107
16.260000 412.316514 414.997318 418.000011 418.351451 422.034054 424.855793
16.360000 419.290417 422.166303 424.396763 424.256682 426.329618 427.953578
16.460000 424.807136 426.583298 428.131088 428.051006 429.557012 430.816671
16.560000 428.441728 429.710431 431.044558 431.075429 432.434412 433.826699
16.660000 430.896588 431.926354 433.211463 433.260974 434.579195 435.976507
16.760000 432.715743 433.868713 435.113234 435.187148 436.494111 438.060034
16.860000 434.654148 435.831402 437.089858 437.136095 438.527268 440.001862
16.960000 436.490627 437.712510 439.015437 439.121056 440.666842 442.085736
17.060000 438.407490 439.659377 441.138562 441.236289 442.847720 444.681020
17.160000 440.146922 441.600880 443.206622 443.335310 444.968411 447.370067
17.260000 441.931673 443.568925 445.200969 445.354799 447.139773 449.649025
17.360000 443.848091 445.378474 447.147866 447.348963 449.337356 451.997640
17.460000 445.472395 447.129194 449.072964 449.333994 451.524397 454.549694
17.560000 447.363495 448.936257 451.087404 451.386753 453.790234 456.802044
17.660000 449.039547 450.913919 453.261565 453.465949 456.123208 459.131896
17.760000 450.877059 452.948275 455.469524 455.688055 458.585742 461.584233
17.860000 453.109297 455.234217 457.976725 458.090288 461.019107 463.642986
17.960000 455.444604 457.875508 460.711698 460.711468 463.559907 465.799628
18.060000 458.184856 460.797002 463.751524 463.739535 466.556797 470.075629
18.160000 460.974057 464.334343 467.251515 467.381899 470.520473 474.872940
18.260000 465.800100 469.303147 472.337282 472.511710 476.060428 479.291622
18.360000 470.071931 473.245067 476.722383 476.674526 480.116791 482.553358
18.460000 472.477206 476.665696 480.827090 480.290214 483.692239 485.735767
18.560000 475.206402 479.813293 484.080721 483.444475 486.851012 488.934544
18.660000 477.543127 481.900555 486.273636 485.826443 489.460909 492.220970
18.760000 479.716290 484.323384 488.121296 487.871808 491.337894 494.695604
18.860000 484.397584 487.642704 490.230364 490.408850 493.371218 496.683002
18.960000 487.610905 490.088802 492.499996 492.700948 495.397293 498.741339
19.060000 490.241669 492.597580 495.161776 495.304167 498.160655 500.895209
19.160000 493.193924 495.403284 498.358667 498.295580 501.203609 503.000814
19.260000 495.984766 499.305592 502.127953 501.844080 504.270400 506.107077
19.360000 500.994533 503.701166 505.833767 505.633752 507.481927 509.134411
19.460000 505.532621 507.829724 509.825799 509.795235 511.836121 513.919209
19.510000 507.435979 509.528981 511.635274 511.573762 513.597215 515.379131
19.560000 508.843941 511.043753 513.149575 513.044357 515.031026 516.635526
19.610000 510.147598 512.351687 514.528538 514.380435 516.288463 517.954696
19.710000 512.589757 514.864457 516.782770 516.659835 518.526919 519.974039
19.810000 515.175011 517.116517 518.933497 518.854803 520.561352 522.598150
19.910000 517.400512 519.096397 520.884364 520.894237 522.730747 524.651635
20.010000 519.302844 521.043678 522.904773 522.895849 524.745276 526.734116
20.110000 521.380328 522.975921 524.863061 524.903605 526.915134 528.884736
20.210000 523.253759 525.038449 527.080011 527.109488 529.259111 530.934395
20.310000 525.380541 527.583991 529.583294 529.554376 531.699603 533.375950
20.410000 528.146444 530.366193 532.487076 532.355714 534.325757 535.886501
20.510000 532.397234 534.205926 535.990150 536.111888 538.044542 540.501716
20.610000 535.415036 536.951563 538.853755 539.120038 541.448938 543.870491
20.710000 537.625184 539.264318 541.431958 541.593888 543.956361 546.243157
20.810000 539.601366 541.504401 543.781025 543.914978 546.292842 548.619125
20.910000 541.538733 543.767080 546.114239 546.161835 548.581304 550.776134
21.010000 543.550186 545.936651 548.353203 548.315911 550.648612 552.846264
21.110000 545.875512 548.246905 550.585627 550.485823 552.660753 554.967683
21.210000 548.762413 550.835933 552.779691 552.840707 554.948489 556.839223
21.310000 551.573426 553.494623 555.160694 555.222936 557.039369 558.977779
21.410000 554.361690 555.937932 557.616186 557.781042 559.733224 561.795034
21.510000 556.822249 558.494582 560.398788 560.561815 562.705893 564.957392
21.610000 559.899639 561.681114 563.953655 563.926333 566.175932 568.409797
21.710000 562.555608 564.681846 567.060605 566.896921 568.978909 570.525394
21.810000 565.193737 567.854546 569.738209 569.516381 571.190874 572.559789
21.910000 568.653058 570.635150 572.002967 571.979777 573.365025 574.812622
22.010000 571.412880 572.774643 574.147469 574.188921 575.539600 577.297782
22.110000 573.499742 574.862484 576.365452 576.389943 577.818874 579.582992
22.210000 575.922226 577.300540 578.871141 578.932907 580.477833 582.368208
22.310000 579.802399 581.530901 583.292491 583.568262 585.788426 588.454517
22.410000 582.437327 584.587989 586.730280 586.885157 589.344876 591.625777
22.510000 584.970639 587.454792 589.996003 590.010170 592.510490 594.981587
22.610000 587.494822 590.317772 592.944749 592.837284 595.371408 597.733420
22.710000 590.125456 592.689132 595.607935 595.375033 597.951223 600.180541
22.810000 592.610657 595.024224 597.979837 597.751590 600.272700 602.197005
22.910000 595.083905 597.544735 600.409211 600.162305 602.595875 604.521134
23.010000 597.282340 600.189633 602.852180 602.583983 604.807047 606.973986
23.110000 599.880536 603.077517 605.272536 605.113949 607.174017 609.853457
23.210000 602.984560 605.741404 607.752089 607.894719 610.006858 613.722033
23.310000 607.271286 609.097622 611.482934 611.524636 614.008212 616.343143
23.320000 607.607548 609.425769 611.896044 611.907427 614.345082 616.592822
23.420000 611.171945 614.488013 616.817413 616.588972 618.587648 620.340079
23.520000 618.194083 619.911998 621.778972 621.765270 623.746318 625.205244
23.620000 622.821089 624.514587 626.310725 626.330138 628.170344 630.275503
23.720000 625.728955 627.326217 629.116624 629.169048 631.072429 632.825277
23.820000 627.998908 629.577657 631.421653 631.472951 633.382816 635.470264
23.920000 630.071127 631.648614 633.554187 633.651534 635.606985 637.777298
24.020000 632.120403 633.781662 635.768798 635.832143 637.810777 639.962488
24.120000 634.133470 636.004830 637.894624 637.985386 640.100825 642.328360
24.220000 636.170916 638.264956 640.013359 640.144967 642.148663 644.603683
24.320000 638.343536 640.404419 642.327493 642.441562 644.481952 647.120397
24.420000 640.437829 642.591682 644.626108 644.764083 647.047934 649.715116
24.520000 642.405290 644.742843 646.884995 647.077582 649.515101 652.553595
24.615000 644.358747 646.769071 649.058791 649.312488 651.992956 655.721754
24.710000 646.218480 648.733451 651.263797 651.560640 654.321418 658.240897
24.810000 648.571838 651.003472 653.876410 654.099224 657.194771 661.187221
24.910000 650.777182 653.393421 656.551535 656.647838 659.853017 663.906077
25.010000 653.286326 655.805128 659.166803 659.270077 662.701327 666.533456
25.110000 655.491096 658.333737 661.747597 661.982578 665.599469 669.153473
25.210000 658.287377 661.340913 664.784383 664.911490 668.576740 671.598700
25.310000 661.442850 664.250276 668.089105 667.988157 671.510784 674.390856
25.410000 664.678152 667.883059 671.384353 671.299566 674.550329 677.892093
25.510000 668.273143 671.711312 675.176487 675.030497 678.331067 681.411561
25.610000 674.044018 676.964182 680.041857 679.960010 682.750355 685.797501
25.710000 678.062158 681.351831 684.318049 684.081487 686.809092 688.811104
25.810000 682.594956 686.760535 689.401905 689.089449 691.454657 693.108188
25.910000 687.449492 690.257205 692.573061 692.283355 694.219559 695.518840
26.010000 691.701688 693.881523 695.377103 695.205580 696.578718 697.672603
26.110000 696.198894 697.059029 698.030373 698.055760 699.033695 700.031773
