depth(m) lower_95(kyr) lower_68(kyr) median(kyr) mean(kyr) upper_68(kyr) upper_95(kyr)
34.240000 311.654612 312.172141 313.208138 313.260630 314.363190 315.547096
34.270000 311.849403 312.360332 313.419689 313.475721 314.580683 315.924880
34.300000 312.061735 312.566242 313.623883 313.700808 314.876986 316.169553
34.330000 312.290356 312.757283 313.817274 313.923012 315.155863 316.409745
34.390000 312.709603 313.107351 314.222233 314.392716 315.697290 317.133574
34.420000 312.873422 313.336193 314.447928 314.628721 315.966238 317.364849
34.450000 313.040919 313.543968 314.687175 314.870474 316.240662 317.637042
34.555000 313.630166 314.346307 315.642087 315.780823 317.237062 318.524030
34.660000 314.177200 315.329808 316.686318 316.752222 318.266626 319.644803
34.780000 314.845673 316.255121 317.863953 317.843349 319.395432 320.976525
34.900000 315.696718 317.285927 319.026435 318.890293 320.454686 321.885288
34.990000 316.112675 318.045264 319.778448 319.622093 321.146386 322.412669
35.020000 316.281037 318.300174 320.007027 319.851814 321.439038 322.601758
35.110000 317.213565 318.984374 320.582597 320.501288 322.009547 323.064933
35.200000 317.785870 319.577982 321.186076 321.111118 322.549196 323.613401
35.210000 317.839867 319.646404 321.239264 321.174382 322.607797 323.682532
35.310000 318.344314 320.217908 321.771592 321.700415 323.090280 324.038115
35.410000 318.958342 320.882834 322.281876 322.196925 323.541871 324.457772
35.510000 319.462550 321.454824 322.750759 322.691029 323.976166 324.864659
35.610000 320.341438 322.058427 323.245785 323.163518 324.426189 325.224776
35.710000 320.774434 322.488291 323.687344 323.606673 324.842634 325.676025
35.810000 321.334247 322.923403 324.134328 324.043652 325.290046 326.084393
35.910000 321.647356 323.349855 324.559808 324.466835 325.698324 326.433984
36.054444 322.168124 323.864541 325.151659 325.031651 326.273041 327.124565
36.198889 322.674353 324.458421 325.706896 325.596691 326.798850 327.743468
36.343333 323.151402 325.009904 326.286212 326.170017 327.361363 328.366314
36.487778 323.864893 325.518871 326.846807 326.737055 327.917535 328.950728
36.632222 324.306000 326.132467 327.460007 327.316247 328.490339 329.457673
36.776667 324.934906 326.644332 327.985761 327.879342 329.047424 330.047859
36.921111 325.535028 327.236500 328.590185 328.463914 329.639212 330.660850
37.065556 325.989747 327.847490 329.200736 329.064006 330.206626 331.289162
37.210000 326.550917 328.385516 329.809210 329.682438 330.900724 331.893917
37.310000 327.068300 328.914527 330.243532 330.150173 331.348583 332.441928
37.410000 327.528384 329.423400 330.748226 330.663511 331.875055 333.058953
37.510000 328.202879 330.064862 331.304681 331.220823 332.457204 333.583419
37.640000 328.912733 330.800534 332.086755 332.017812 333.286114 334.694192
37.770000 329.683223 331.624805 332.887839 332.894824 334.189712 335.728318
37.898571 330.814809 332.513307 334.015122 334.065628 335.677825 337.402969
38.027143 332.076950 333.612054 335.325159 335.398475 337.173314 339.416877
38.155714 333.065644 334.816513 336.686303 336.774110 338.850727 341.186946
38.284286 334.316034 336.086625 338.101997 338.193902 340.365997 342.389352
38.412857 335.756367 337.639013 339.633075 339.631445 341.649848 343.429498
38.541429 337.361096 339.234435 340.989423 341.021296 342.964158 344.514393
38.670000 339.138772 340.778984 342.366999 342.386335 343.982306 345.669305
38.790000 340.605047 342.012145 343.419456 343.471318 344.876658 346.757909
38.910000 341.863357 343.259827 344.468108 344.536555 345.799992 347.753234
38.990000 342.703570 343.969959 345.173081 345.254797 346.629610 348.433473
39.070000 343.634026 344.684422 345.830947 345.991382 347.349901 348.974789
39.170000 344.544322 345.807360 346.938450 347.039438 348.377525 349.967316
39.270000 345.714874 346.900268 348.045071 348.138705 349.475573 350.921564
39.370000 346.671232 347.871896 349.153983 349.215958 350.547595 352.063895
39.470000 347.515231 348.963719 350.273082 350.247799 351.617592 353.031588
39.570000 348.428386 349.862533 351.160371 351.158929 352.529596 353.727833
39.670000 349.126701 350.542437 351.923861 351.930307 353.397823 354.652617
39.770000 349.753551 351.227091 352.649948 352.657596 354.166797 355.493525
39.870000 350.409139 351.960970 353.324115 353.376510 354.922101 356.309729
39.970000 350.934208 352.512532 354.061929 354.099845 355.715641 357.412056
40.070000 351.487504 353.166369 354.763331 354.818974 356.609841 358.156554
40.210000 352.014309 354.063531 355.810463 355.834656 357.663210 359.600087
40.290000 352.551265 354.484781 356.366562 356.397655 358.320175 360.297494
40.370000 353.191988 354.920970 357.013436 356.970201 358.918976 360.879825
40.483333 354.001667 355.582762 357.870042 357.743689 359.763120 361.662826
40.596667 354.677665 356.247514 358.694359 358.519059 360.591583 362.336307
40.710000 355.384734 356.928766 359.436983 359.312427 361.419821 363.148927
40.790000 355.792776 357.405695 359.994371 359.845284 361.958212 363.631839
40.870000 356.183815 357.897415 360.564195 360.389423 362.491260 364.211947
40.970000 356.814153 358.720642 361.235583 361.073024 363.182338 365.041517
41.070000 357.423011 359.368905 361.944086 361.766237 363.880381 365.798851
41.170000 358.011898 360.075006 362.603282 362.427204 364.473564 366.588039
41.270000 358.686845 360.722859 363.348743 363.098701 365.074026 367.609629
41.310000 358.863114 360.963600 363.604304 363.362815 365.356571 368.053351
41.440000 359.677051 361.940699 364.306350 364.139456 366.112580 368.890893
41.570000 360.419734 362.831149 365.024198 364.917024 366.786149 369.863271
41.710000 361.268254 363.716839 365.859434 365.828728 367.610496 371.430783
41.790000 361.948639 364.316743 366.370283 366.406171 368.265862 372.140157
41.870000 362.874440 365.027580 366.972237 367.052529 368.820003 372.939542
41.970000 364.088744 365.870698 367.829351 368.024246 370.043901 373.595389
42.070000 364.879845 366.933574 368.740107 369.008025 371.211443 374.280587
42.170000 366.169293 367.995765 369.700928 370.106667 372.417882 375.640315
42.270000 367.065888 368.959305 370.917441 371.264154 373.829196 376.629705
42.370000 368.025974 369.972435 372.156406 372.462539 375.137891 377.973028
42.490000 369.352472 371.455917 373.732765 374.057300 376.762332 379.383147
42.610000 370.886708 373.114865 375.750850 375.747655 378.451874 381.021497
42.730000 372.323177 374.716009 377.512927 377.455619 380.047770 382.724854
42.850000 373.970518 376.628450 379.167113 379.139158 381.612164 384.208175
42.970000 375.919475 378.549226 380.772561 380.763269 382.991158 385.710453
43.070000 377.082102 379.787460 381.823758 381.925551 384.273729 386.860908
43.210000 378.841521 381.353137 383.328353 383.451369 385.817015 388.472720
43.290000 379.564232 382.112303 384.047516 384.209444 386.603595 389.191050
43.370000 380.385335 382.801387 384.755575 384.937071 387.266435 389.901444
43.510000 382.114632 384.089246 386.088934 386.316868 388.709861 391.127960
43.590000 382.761024 384.930515 386.828025 387.084155 389.640394 391.791850
43.670000 383.726862 385.635412 387.633139 387.832509 390.452804 392.313551
43.765000 384.589307 386.565006 388.611351 388.735569 391.296002 392.816124
43.860000 385.337690 387.379801 389.496474 389.608981 392.007407 393.481609
43.970000 386.437458 388.350050 390.745983 390.598416 392.834211 394.095935
44.065000 387.414389 389.083624 391.677419 391.380439 393.478407 394.532167
44.160000 388.114352 389.797418 392.496979 392.142931 394.137223 395.090188
44.220000 388.540302 390.266302 393.022582 392.577429 394.475690 395.477361
44.320000 389.370816 391.048236 393.681929 393.269591 395.033935 396.029494
44.460000 390.587888 392.321598 394.470346 394.167533 395.739718 396.714289
44.593333 391.645649 393.481828 395.249809 395.036623 396.476973 397.473247
44.726667 392.853380 394.472624 395.990382 395.850421 397.273724 398.393715
44.860000 393.866440 395.278240 396.693143 396.641500 398.029160 399.093087
44.980000 394.532883 395.920622 397.347107 397.282800 398.646353 399.774432
45.100000 395.076175 396.540806 397.911974 397.893926 399.313746 400.405891
45.220000 395.685022 397.124975 398.438894 398.491842 399.944435 401.058736
45.362857 396.285587 397.773356 399.064453 399.154670 400.687247 401.829916
45.505714 397.143942 398.388653 399.684015 399.807534 401.374544 402.634332
45.648571 397.757633 399.062090 400.277004 400.454042 402.110297 403.367156
45.791429 398.438671 399.655915 400.848511 401.110107 402.799575 404.105526
45.934286 399.101035 400.238822 401.451246 401.737456 403.478845 404.747110
46.077143 399.770327 400.858568 402.037363 402.371993 404.164766 405.476731
46.220000 400.366808 401.462520 402.628195 403.013203 404.909543 406.234085
46.320000 400.902645 401.881224 403.084863 403.484908 405.410680 406.694575
46.420000 401.374131 402.339390 403.609208 403.964887 405.884161 407.145430
46.520000 401.953079 402.829747 404.063530 404.434659 406.400693 407.639480
46.620000 402.410681 403.306984 404.545387 404.920199 406.826092 408.058945
46.720000 402.936655 403.768958 405.052178 405.406614 407.367511 408.524000
46.820000 403.362977 404.268933 405.518728 405.884150 407.813163 408.972304
46.920000 403.861919 404.770626 406.009774 406.351695 408.275293 409.410417
47.053333 404.504242 405.421705 406.598241 406.959877 408.832306 409.892976
47.186667 405.152602 406.024568 407.167128 407.567461 409.434299 410.472696
47.320000 405.745350 406.619588 407.807551 408.178010 410.054115 411.092071
47.420000 406.229175 407.126305 408.292009 408.661620 410.567113 411.503331
47.520000 406.681838 407.616520 408.861474 409.144603 411.007005 411.844872
47.620000 407.291517 408.095773 409.323037 409.623019 411.453286 412.319259
47.720000 407.806668 408.545081 409.850978 410.098623 411.897033 412.742039
47.820000 408.257225 409.042777 410.309303 410.566720 412.347554 413.163758
47.953333 408.879829 409.684710 410.955990 411.172222 412.935165 413.777808
48.086667 409.536814 410.301625 411.551186 411.808128 413.531927 414.343168
48.220000 410.103354 410.948930 412.195190 412.433927 414.115586 414.981973
48.360000 410.853656 411.614736 412.909798 413.104030 414.712486 415.658092
48.440000 411.223468 412.024769 413.296020 413.516449 415.098708 416.087521
48.520000 411.692343 412.473141 413.730112 413.932052 415.526669 416.605855
48.653333 412.293433 413.156206 414.505647 414.630333 416.263178 417.248855
48.786667 412.990282 413.812194 415.185175 415.316137 416.887079 417.999787
48.920000 413.643844 414.455684 415.957019 416.015313 417.554325 418.842429
49.057778 414.275871 415.207524 416.704200 416.748968 418.278112 419.588553
49.195556 414.986418 415.911481 417.436219 417.474778 418.969728 420.282733
49.333333 415.656436 416.625494 418.212288 418.233090 419.703917 421.261877
49.471111 416.308933 417.299113 418.961147 418.986620 420.418115 422.232725
49.608889 416.974903 418.052605 419.745759 419.747762 421.242991 422.969856
49.746667 417.750395 418.844805 420.550729 420.564859 422.069933 423.734610
49.884444 418.550825 419.666549 421.412959 421.418680 423.002789 424.646848
50.022222 419.308420 420.660309 422.338914 422.341645 423.985006 425.757094
50.160000 420.273267 421.668420 423.300013 423.354595 425.040792 426.819472
50.220000 420.787766 422.208205 423.864606 423.905321 425.554042 427.228980
50.320000 421.938063 423.505965 425.246894 425.259443 427.025249 428.710576
50.420000 423.201363 425.056402 426.689260 426.689810 428.329922 429.950033
50.520000 425.253113 426.750483 428.280077 428.283498 429.664930 431.510109
50.615000 426.844758 428.282843 429.890421 430.051266 431.806129 434.070993
50.710000 428.713776 429.990909 431.419809 431.752337 433.576817 436.471893
50.760000 429.344437 430.590900 432.051943 432.395742 434.292014 437.144799
50.885000 430.589747 432.328695 434.228886 434.389241 436.537341 438.914893
51.010000 432.073872 434.270204 436.425782 436.406294 438.654818 440.652534
51.110000 432.889176 435.598985 437.873160 437.867155 440.215885 442.288689
51.210000 434.194860 436.849848 439.227377 439.272425 441.725723 443.882787
51.310000 435.295050 438.163428 440.700600 440.630199 443.139185 445.262596
51.410000 436.579526 439.182218 441.839782 441.794081 444.358170 446.973855
51.510000 437.498976 440.131795 442.892098 442.881843 445.499581 448.298759
51.610000 438.613183 441.306016 443.999854 443.984286 446.633836 449.793059
51.710000 439.498577 442.070492 444.822148 444.938336 447.961788 451.237554
51.810000 440.249751 442.850898 445.651794 445.815423 448.967539 452.271124
51.910000 441.119551 443.622286 446.405668 446.690138 450.053819 453.656683
52.038000 442.315976 444.697241 447.472035 447.903544 451.235773 454.682444
52.166000 443.194614 445.690414 448.733684 449.081000 452.534146 455.584025
52.294000 444.049395 446.640824 450.093533 450.297497 453.872561 457.204033
52.422000 444.995924 447.674224 451.604979 451.534391 455.301321 458.800728
52.550000 445.748113 448.865478 452.817252 452.750354 456.414259 459.854925
52.690000 447.151834 450.104322 454.230533 454.192490 458.120642 461.347854
52.830000 448.302273 451.671595 455.763185 455.655064 459.562967 462.766793
52.970000 448.982555 453.067348 457.396813 457.154561 460.978343 463.980719
53.110000 450.173968 454.667524 459.046273 458.610353 462.384703 465.387356
53.250000 452.032060 456.373816 460.565504 460.216959 463.881307 466.688951
53.370000 453.154115 457.791609 461.847862 461.498995 465.270151 467.905864
53.490000 454.510412 459.003259 462.935244 462.744434 466.509619 469.729731
53.610000 456.280520 460.523456 464.152831 463.973983 467.547321 470.997982
53.710000 457.285294 461.344953 465.099151 464.906101 468.310952 471.880462
53.810000 458.542279 462.388994 465.997027 465.841341 469.091899 472.726002
53.910000 459.514051 463.410552 466.808035 466.799331 470.099973 473.607129
54.010000 460.616483 464.305061 467.877176 467.786981 471.123280 474.598342
54.110000 461.377421 465.427662 468.886551 468.786875 472.271264 475.559351
54.210000 462.508283 466.609348 469.859482 469.853803 473.433154 476.669876
54.320000 463.889409 467.831482 471.145526 471.097606 474.534885 477.767632
54.430000 465.420501 468.984036 472.297291 472.280446 475.585891 478.514718
54.540000 467.098378 470.518475 473.608476 473.543958 476.702401 479.523919
54.650000 468.719795 471.895874 475.083921 474.896969 477.886140 480.467206
54.783333 470.420313 473.585395 476.815461 476.622419 479.408856 482.086505
54.916667 472.975805 475.453361 478.529197 478.357605 480.991059 483.654151
55.050000 474.297420 477.462547 480.144515 480.068520 482.657072 485.113951
55.150000 475.540313 478.781274 481.397827 481.360105 483.746490 486.724891
55.250000 476.897230 480.158151 482.653101 482.636489 485.133286 487.667071
55.350000 478.184435 481.444574 483.889037 483.878471 486.352289 488.916095
55.470000 479.892076 482.872809 485.330912 485.353151 487.923819 490.798450
55.590000 481.307035 484.211624 486.702033 486.750516 489.445538 492.151912
55.710000 482.635214 485.487628 488.183409 488.143384 490.918729 493.597101
55.830000 484.032683 486.703777 489.393077 489.438876 492.320389 495.176234
55.950000 485.036385 487.843050 490.533481 490.626853 493.464092 496.395968
56.070000 486.164116 488.830380 491.764742 491.806534 494.705204 497.404482
56.190000 487.361826 489.957215 492.976901 492.875666 495.716514 498.506892
56.310000 488.270111 491.234728 494.035474 493.975430 496.921394 499.420767
56.430000 489.577033 492.372467 495.016431 495.062707 498.037123 500.167376
56.550000 490.571887 493.379422 495.985405 496.096821 499.154453 501.007692
56.675000 491.709344 494.583158 497.015928 497.121832 500.071556 501.896465
56.800000 492.934319 495.530674 498.102888 498.099528 500.969838 502.485934
56.925000 494.050019 496.602163 499.012460 499.045075 501.822349 503.183944
57.050000 495.012968 497.516895 499.918903 499.965768 502.686193 504.008501
57.130000 495.664808 498.223392 500.460962 500.536065 503.164047 504.391705
57.210000 496.283801 498.827830 501.032282 501.094659 503.653971 504.813055
57.350000 497.350623 499.885203 502.018202 502.011818 504.416721 505.463405
57.430000 498.105783 500.540499 502.520494 502.518161 504.863027 505.882200
57.510000 498.908983 501.096507 503.040250 503.023937 505.263114 506.340509
57.630000 499.909438 501.906383 503.767729 503.762958 505.863631 506.931449
57.750000 500.637328 502.783007 504.459519 504.482249 506.448511 507.549455
57.870000 501.437272 503.647487 505.141044 505.190540 507.034092 508.111711
57.990000 502.539565 504.464815 505.855037 505.932678 507.659046 508.867409
58.110000 503.370525 505.216197 506.525730 506.646919 508.270651 509.731090
58.150000 503.750607 505.514106 506.764419 506.895130 508.462790 510.088923
58.280000 504.721826 506.342694 507.561511 507.683860 509.204587 511.097322
58.410000 505.468756 507.064337 508.313408 508.453737 509.868263 512.347967
58.550000 506.543198 507.851016 509.167437 509.334644 510.860698 513.286171
58.630000 507.201430 508.328269 509.661667 509.868242 511.434214 513.797803
58.710000 507.654399 508.795355 510.222770 510.384453 512.036706 514.223575
58.830000 508.389386 509.511192 510.968280 511.142618 512.841176 514.991793
58.950000 509.029455 510.223362 511.719161 511.923430 513.621280 516.135985
59.070000 509.651319 510.934634 512.494804 512.651317 514.377337 516.925100
59.190000 510.319124 511.608798 513.236084 513.400869 515.151633 517.584369
59.310000 511.005332 512.354072 514.039487 514.155367 515.934659 518.494336
59.416667 511.594656 512.990462 514.755782 514.848851 516.691905 519.226464
59.523333 512.097268 513.672668 515.499518 515.555898 517.376868 519.897966
59.630000 512.808266 514.279204 516.238506 516.299879 518.105988 520.737198
59.758571 513.578474 515.227127 517.086901 517.185747 519.172514 521.754792
59.887143 514.362273 516.039858 517.989098 518.092296 520.239820 522.639353
60.015714 515.011332 516.865380 518.846845 518.972164 521.137114 523.434038
60.144286 515.693461 517.600448 519.782893 519.867617 522.190945 524.394178
60.272857 516.433479 518.415051 520.635280 520.718533 523.086303 525.388331
60.401429 517.268290 519.229090 521.499028 521.614059 524.179996 526.319376
60.530000 518.214654 520.070604 522.355912 522.468885 525.080113 527.088428
60.658571 518.818591 521.030560 523.189397 523.350563 525.999805 527.919287
60.787143 519.704902 521.878271 524.024724 524.231005 526.814872 528.736951
60.915714 520.451341 522.738920 525.050096 525.159624 527.832984 529.593648
61.044286 521.291459 523.574801 526.013435 526.036618 528.663696 530.398511
61.172857 522.214540 524.500410 527.007971 526.960584 529.534296 531.156902
61.301429 523.444156 525.547480 527.986953 527.927747 530.398949 531.985311
61.430000 524.520733 526.628689 528.910670 528.886260 531.241991 532.807573
61.535000 525.307102 527.401188 529.771999 529.699853 531.995373 533.417401
61.640000 526.203161 528.297264 530.645310 530.533471 532.729353 533.968344
61.740000 527.065798 529.238646 531.483717 531.360634 533.403144 534.674820
61.840000 528.139655 530.207786 532.457646 532.213469 534.084283 535.496458
61.940000 529.119988 531.239757 533.322814 533.069660 534.848278 536.065779
62.030000 529.984713 532.127322 534.178381 533.875431 535.482515 536.785235
62.157500 531.284227 533.369607 535.255429 535.065552 536.598108 538.009777
62.285000 532.955023 534.839921 536.308227 536.269248 537.714938 539.329480
62.412500 534.521791 536.145097 537.424046 537.449007 538.756246 540.273748
62.540000 536.415534 537.371969 538.489963 538.587571 539.870632 541.144742
62.630000 536.925297 537.924256 539.075382 539.178942 540.512812 541.853034
62.735000 537.445056 538.455753 539.708870 539.799666 541.144121 542.393729
62.840000 538.088624 539.060889 540.285564 540.401851 541.876300 542.995341
62.980000 538.657081 539.777233 541.060860 541.159957 542.618901 543.765228
63.100000 539.227738 540.385251 541.681501 541.787394 543.233147 544.406618
63.220000 539.812137 540.933995 542.324621 542.418342 543.901977 545.116835
