depth(m) lower_95(kyr) lower_68(kyr) median(kyr) mean(kyr) upper_68(kyr) upper_95(kyr)
12.125000 300.523067 301.335219 302.102828 302.130370 302.935051 303.823701
12.248333 302.800920 303.912787 305.477898 306.195093 308.565052 313.849756
12.371667 305.046117 306.905503 309.832245 310.248876 313.949590 317.542697
12.495000 308.042839 310.568611 314.234255 314.212957 317.886781 320.011800
12.570000 309.691455 312.915218 316.539151 316.288051 319.634750 321.559877
12.645000 311.742292 315.150233 318.622531 318.228160 321.253643 322.914974
12.790000 315.736537 319.297659 321.872686 321.751879 324.313917 326.595372
12.935000 320.668149 323.043254 324.925343 325.039409 327.202677 329.704971
13.075000 324.082985 325.926941 327.966342 328.059936 330.261293 332.507203
13.195000 326.051291 328.244112 330.715107 330.726296 333.219735 335.289258
13.317500 328.205672 330.808181 333.626674 333.499977 336.143215 338.288324
13.440000 330.868945 333.792168 336.420247 336.272261 338.804967 340.934639
13.562500 333.779335 336.817614 339.227381 339.010930 341.243181 343.230223
13.685000 337.875541 339.862253 341.662077 341.673499 343.431967 345.643230
13.760000 339.335970 341.303514 343.058690 343.065294 344.696694 347.153091
13.835000 341.112008 342.674961 344.379734 344.432133 346.028189 348.589208
13.915000 342.406954 344.082664 345.704577 345.869499 347.553529 350.557968
13.995000 343.927139 345.544011 347.140285 347.401690 349.361568 352.254632
14.075000 345.315284 346.851291 348.771820 349.099362 351.316499 354.922638
14.155000 346.744968 348.338350 350.385035 350.758113 353.351127 356.785763
14.295000 349.076480 350.772646 353.328149 353.644343 356.481938 359.817258
14.435000 351.074375 353.624188 356.438431 356.577810 359.460507 362.540937
14.515000 352.812171 355.603438 358.410835 358.483909 361.468859 364.192960
14.595000 354.477298 357.641860 360.413069 360.439922 363.294659 366.130245
14.715000 357.631160 360.847728 363.775435 363.831199 366.732511 370.235365
14.815000 360.775173 364.641427 368.176486 368.134689 371.454306 375.580377
14.935000 363.663750 367.557527 371.136090 371.278008 375.287336 379.136431
15.055000 366.899890 370.426647 373.813580 374.198872 378.437027 381.864134
15.195000 369.955858 373.528633 376.994138 377.181902 381.304791 384.242091
15.325000 373.621481 376.710630 380.421791 380.336433 384.058154 386.320121
15.465000 378.770556 382.156633 385.362316 385.025605 387.881614 389.794627
15.540000 380.802699 384.266014 387.300836 386.945875 389.503069 391.758172
15.615000 382.819429 386.325336 388.946204 388.631666 390.877172 393.031023
15.735000 385.621111 388.835793 391.113041 390.887243 392.979920 394.512771
15.845000 388.042311 390.996727 393.020954 392.812312 394.668966 396.262601
15.955000 390.263864 393.040292 394.862775 394.668863 396.273052 397.731463
16.075000 392.752988 395.040767 396.706406 396.589937 398.140468 399.626641
16.215000 396.375421 397.919923 399.313923 399.352364 400.719064 402.438998
16.335000 398.448782 400.010740 401.425800 401.528014 403.093103 405.205433
16.455000 400.219192 401.859596 403.440446 403.590463 405.412641 407.801369
16.540000 401.668844 403.330048 404.911997 405.145654 407.091617 409.301652
16.625000 403.208759 404.883356 406.567615 406.728023 408.697643 410.662070
16.725000 405.042288 406.740878 408.430218 408.535512 410.474965 412.105029
16.825000 407.128447 408.610493 410.290464 410.375278 412.224868 414.054303
16.940000 409.194902 410.683999 412.323707 412.468443 414.282643 416.487630
17.055000 411.447863 412.849004 414.418280 414.625843 416.357301 418.807875
17.135000 412.848800 414.393905 416.137416 416.366616 418.255914 421.344123
17.215000 414.328636 416.026357 417.919714 418.220273 420.590285 423.915309
17.357500 416.664379 418.944986 421.503622 422.376450 425.992888 432.496947
17.500000 419.118531 421.861681 425.765698 426.684430 431.322576 440.168159
17.642500 421.712561 425.350115 430.543987 431.343187 437.375984 446.757295
17.785000 424.715394 428.749554 435.069455 436.057703 443.588192 450.850345
17.927500 427.612191 432.833072 440.226764 440.892925 448.928979 457.257511
18.070000 431.692050 437.218933 445.118466 445.656716 454.259026 462.951562
18.212500 435.207848 441.361073 449.870033 450.368035 459.072661 468.200511
18.355000 438.785721 445.499895 454.509708 454.936824 464.230642 474.132881
18.497500 442.343901 449.583011 459.020834 459.532653 469.670266 479.159266
18.640000 446.786885 453.331766 463.545275 464.110687 474.667007 484.710913
18.782500 450.597074 457.422807 468.335869 468.808447 480.184578 490.612948
18.925000 454.448418 461.253087 472.616450 473.354704 485.608702 494.575571
19.067500 458.507840 465.619210 477.268005 477.931544 490.507319 500.415666
19.210000 462.378637 469.690293 481.514214 482.522465 496.402875 504.915276
19.352500 466.277673 473.650084 486.021313 487.100284 501.767598 509.914366
19.495000 470.140983 477.934473 490.697696 491.672492 506.969758 513.826291
19.637500 474.712137 482.817141 495.179267 496.465135 511.746446 517.608276
19.780000 479.353007 487.317559 499.577386 501.184839 516.267587 520.951599
19.922500 485.772939 492.512198 506.545399 506.288223 520.361284 524.066447
20.065000 491.527818 497.615039 515.338336 511.271919 524.040923 527.244453
20.140000 494.393212 500.728253 518.306597 513.938395 526.114189 529.143655
20.215000 498.298954 503.952333 521.096794 516.634949 528.024151 531.156032
20.315000 503.710103 509.430447 524.488285 521.328419 530.725722 533.695792
20.415000 507.998125 516.998978 528.627797 526.021083 532.985431 536.054303
20.515000 512.304989 526.706172 532.501757 530.968417 535.650476 539.055886
20.590000 514.975812 531.187105 535.453694 534.264033 538.356664 542.267031
20.665000 517.849906 535.470552 538.165792 537.548782 541.191121 545.421556
20.765000 525.849840 537.606563 541.099544 540.659777 544.619814 547.961685
20.865000 533.199898 540.196542 543.845828 543.621119 547.606106 551.059797
20.965000 538.195298 542.649527 546.454025 546.387272 550.377170 553.491905
21.075000 541.869385 545.483009 549.300303 549.493888 553.368517 559.467834
21.185000 544.746470 548.625261 552.169034 552.619742 555.993709 565.888801
21.295000 548.179518 551.549224 555.230290 555.709227 558.715498 572.429525
21.405000 552.066248 554.848728 558.250881 558.940685 561.349301 583.017795
21.480000 554.961917 558.094584 560.922461 561.897843 564.643919 585.841951
21.555000 558.519531 561.201319 563.334319 564.706963 567.766330 588.262814
21.630000 560.672748 562.987121 565.095768 566.938882 571.183966 590.373905
21.705000 562.575448 564.510343 566.807275 569.117876 574.609075 592.785993
21.785000 564.042496 565.939366 568.340459 571.229178 577.910247 595.769085
21.865000 565.441744 567.365042 569.854047 573.326977 581.841250 599.798354
22.000000 567.712578 569.671568 572.453977 577.300295 590.685752 603.353636
22.135000 570.101032 572.022917 575.003383 581.049341 602.620006 608.332623
22.155000 570.630875 572.453431 575.459304 581.530918 603.155687 608.815153
22.297143 573.164932 575.338679 579.676978 584.914346 605.447633 611.571566
22.439286 575.492886 577.922428 583.473224 588.104762 607.540376 614.220295
22.581429 578.142391 580.833805 587.151520 591.258383 609.729926 616.317154
22.723571 580.476150 584.053487 590.619407 594.402078 612.142288 618.614406
22.865714 583.215800 586.952472 594.028040 597.453805 614.223982 620.582956
23.007857 585.509834 590.143078 597.509555 600.580329 616.384508 622.943533
23.150000 588.416958 593.341804 601.188666 603.716145 618.515052 625.176510
23.292143 591.219046 596.738134 604.563188 606.862402 620.762342 627.743124
23.434286 594.476739 600.018579 608.090603 609.996764 623.186976 629.515996
23.576429 597.139999 602.996068 611.869741 613.041681 625.334023 631.817932
23.718571 599.741687 606.346805 615.397184 616.143736 627.563246 634.020297
23.860714 602.474572 609.484862 618.994230 619.368042 630.110979 636.258097
24.002857 604.885834 613.045994 622.247444 622.450190 632.691192 638.294238
24.145000 607.988034 615.996221 625.859466 625.426857 635.142295 640.729341
24.287143 610.547860 619.338439 628.987868 628.505148 637.908312 643.538282
24.429286 613.388164 622.595099 632.284100 631.556258 640.502596 646.278337
24.571429 616.292205 626.065755 635.275286 634.588707 643.088885 648.725102
24.713571 619.082508 629.588073 638.630398 637.670764 645.747585 651.366063
24.855714 621.554019 632.850323 641.744298 640.748717 648.153365 654.084469
24.997857 624.520072 636.691379 644.572021 643.777721 650.739358 656.302560
25.140000 627.154943 640.590076 647.451273 646.724526 653.394375 658.428935
25.268333 631.352223 643.301857 650.002371 649.189428 655.516782 660.838382
25.396667 634.267958 645.870911 652.617777 651.686570 657.714197 663.199713
25.525000 638.194086 648.488994 654.677684 654.053825 659.880377 665.114025
25.653333 640.969992 650.805415 657.025645 656.348765 661.888530 666.529366
25.781667 644.646330 653.240265 659.108612 658.652097 664.166360 668.153379
25.910000 648.774662 655.878224 661.283191 660.863580 666.105177 669.983632
26.055000 652.170616 658.446448 663.731657 663.296069 668.242464 671.896434
26.200000 654.883252 661.159336 666.106669 665.663204 670.395704 673.770292
26.323333 657.247146 663.106771 667.925245 667.529325 672.096128 675.171278
26.446667 659.578970 665.030281 669.719823 669.358453 673.746029 676.929842
26.570000 661.861218 667.056083 671.479428 671.166588 675.548407 678.292449
26.693333 663.879592 668.917799 673.213127 672.893352 677.105109 679.849141
26.816667 665.802892 670.716496 674.817573 674.600633 678.886590 681.149940
26.940000 667.617517 672.618755 676.583985 676.322335 680.504759 682.683659
27.025000 668.875140 673.868613 677.639832 677.532848 681.611841 683.664790
27.110000 670.444902 675.181209 679.056013 678.772297 682.683913 684.859431
27.250000 673.170913 677.359634 681.177580 680.859715 684.430768 686.408423
27.360000 675.124546 679.271909 683.200337 682.672431 685.955841 687.910257
27.470000 677.301070 681.302482 684.942696 684.440636 687.458744 689.295795
27.580000 679.451870 683.643823 686.774471 686.272981 688.931755 690.658388
27.690000 681.616300 685.743190 688.538508 688.084795 690.364651 691.899879
27.802500 683.915850 687.710211 690.215071 689.812195 691.903200 693.289961
27.915000 686.550871 689.628358 691.741786 691.509564 693.476286 694.791531
28.027500 689.211936 691.732807 693.465983 693.247703 694.931240 696.066931
28.140000 691.861068 693.736232 695.127841 695.007570 696.270039 697.350917
28.215000 693.916902 695.199527 696.346286 696.260851 697.353398 698.246356
28.290000 695.714786 696.654074 697.633381 697.574819 698.471951 699.423773
