depth(m) lower_95(kyr) lower_68(kyr) median(kyr) mean(kyr) upper_68(kyr) upper_95(kyr)
17.300000 300.373921 301.152135 301.930662 301.977351 302.841409 303.763144
17.400000 301.439903 302.187841 303.045832 303.145631 304.084666 305.140045
17.500000 302.359084 303.202823 304.130089 304.225232 305.290053 306.381040
17.600000 303.252897 304.172618 305.191930 305.258575 306.374293 307.418513
17.700000 304.209355 305.150128 306.243907 306.257978 307.371026 308.484594
17.800000 304.967758 306.193524 307.255731 307.299330 308.467950 309.524384
17.900000 305.953723 307.177820 308.265513 308.270346 309.430894 310.534280
18.000000 306.812345 308.094226 309.198971 309.217086 310.357672 311.552273
18.100000 307.806682 309.037595 310.143422 310.177994 311.336335 312.486713
18.200000 308.794014 309.987098 311.132993 311.124565 312.283476 313.406412
18.300000 309.523652 310.879206 312.088692 312.086003 313.295047 314.436754
18.400000 310.517630 311.785528 313.058438 313.038646 314.222429 315.350794
18.500000 311.490129 312.726951 314.033911 313.971811 315.126011 316.304895
18.600000 312.325232 313.661524 315.007036 314.910100 316.088674 317.163720
18.700000 313.090674 314.572730 315.964765 315.870548 317.093843 318.181019
18.800000 313.951295 315.524610 316.930726 316.859329 318.077929 319.241084
18.900000 314.902419 316.514137 317.897785 317.813997 319.094779 320.330980
19.033333 316.138604 317.755657 319.095956 319.061907 320.436732 321.644228
19.166667 317.381532 318.923268 320.380256 320.332629 321.657473 323.161863
19.300000 318.761759 320.286741 321.698399 321.680598 323.039960 324.542908
19.420000 320.154722 321.574908 323.255549 323.177577 324.585951 326.359600
19.540000 321.408549 322.944980 324.792178 324.769017 326.444142 328.258254
19.660000 322.647929 324.587926 326.431559 326.420219 328.310392 330.439297
19.780000 323.944178 326.263230 328.145122 328.137610 330.026285 332.124621
19.900000 325.217941 328.051549 329.886162 329.818778 331.643798 333.897225
20.000000 327.119034 329.257804 331.033779 331.095871 332.925122 335.911497
20.120000 328.548627 330.736159 332.360382 332.959682 334.844863 342.048545
20.240000 330.149223 332.096055 333.641504 334.750185 337.292578 346.012171
20.360000 331.554045 333.418494 334.907304 336.536584 341.429464 349.260783
20.480000 333.190437 334.813484 336.266578 338.373433 346.013960 351.551088
20.600000 334.909745 336.204659 337.609191 340.228820 350.438313 353.954320
20.700000 336.028979 337.465172 338.755439 341.670931 352.219156 356.205419
20.800000 337.378118 338.742031 340.130653 343.151109 353.584072 357.856102
20.925000 339.290297 340.790204 343.359777 346.106214 355.208749 360.608590
21.050000 341.262397 343.464161 347.637891 349.428506 357.173853 363.074358
21.175000 343.828019 347.243613 351.559416 352.737141 359.152951 365.095100
21.300000 348.565980 351.394574 354.929653 356.093219 361.657901 367.229672
21.400000 350.859182 353.731514 357.363673 358.360665 363.477511 369.063155
21.500000 352.577493 355.916184 359.873772 360.509772 365.363457 371.459830
21.600000 354.665540 358.400532 362.050880 362.706024 367.465935 373.673439
21.700000 357.601037 361.065776 365.234459 365.744266 370.776316 376.293425
21.800000 359.938139 364.220862 368.207181 368.925991 374.166244 380.002750
21.925000 363.929832 368.249436 373.615811 374.163599 380.135418 386.233960
22.050000 368.015895 373.621153 379.298383 379.749556 385.699436 393.334911
22.175000 373.175136 378.953779 385.185879 385.233333 390.223535 403.326786
22.300000 380.840292 384.709373 391.414760 390.965989 394.098386 413.042037
22.400000 387.885861 393.496773 395.944227 396.663622 398.777040 414.738977
22.500000 392.013026 400.359561 404.579981 404.858205 409.953202 416.119296
22.600000 396.103565 410.827850 414.630399 413.002369 416.468447 418.272445
22.700000 400.589997 414.887761 416.898214 416.132821 418.292871 419.996197
22.800000 412.567746 417.227679 418.660377 418.312934 420.027093 421.551040
22.900000 416.478189 418.658876 420.047745 419.853493 421.298419 422.724351
23.000000 418.667622 419.977369 421.314355 421.257430 422.594724 424.112910
23.100000 420.103289 421.415544 422.700589 422.675345 424.001667 425.305122
23.200000 421.615597 422.884158 424.143684 424.129216 425.462966 426.688258
23.300000 423.104031 424.259067 425.644874 425.622177 426.968151 428.450503
23.400000 424.512005 425.608045 427.116401 427.106523 428.596178 430.068043
23.525000 426.063187 427.453844 429.093973 429.312733 431.160264 433.812817
23.650000 427.534721 429.182860 431.203063 431.490887 434.042228 437.066744
23.775000 429.279386 430.892576 433.424288 433.772998 436.845047 440.037121
23.900000 430.912407 432.596293 435.651079 435.968838 439.439641 442.234343
24.000000 432.510581 434.274982 437.554184 437.752607 441.223196 444.096782
24.133333 434.383720 436.905801 440.782354 440.632564 444.012402 447.021042
24.266667 437.045558 440.366034 443.860978 443.672200 446.757997 449.965355
24.400000 439.992804 443.799814 446.800353 446.700769 449.653159 452.681899
24.533333 442.716742 446.127677 448.780046 448.913875 451.733203 454.788636
24.666667 445.526707 448.402322 450.918159 451.033031 453.618645 456.768004
24.800000 447.920561 450.649461 452.867086 453.093437 455.571955 458.966249
24.900000 449.955125 452.225522 454.333173 454.582521 457.012801 460.435223
25.000000 451.530720 453.775622 455.869774 456.116695 458.509229 461.983601
25.100000 453.212223 455.364400 457.437513 457.698050 460.052893 463.447589
25.200000 454.910576 456.882790 459.001843 459.274310 461.559118 464.923336
25.300000 456.446994 458.469310 460.672491 460.843436 463.179117 466.337683
25.400000 457.993409 460.105491 462.228481 462.444120 464.921664 467.916077
25.500000 459.804033 461.690798 463.870029 464.133601 466.710185 469.881018
25.600000 461.455528 463.400902 465.663906 465.983657 468.626412 471.914366
25.700000 463.304986 465.212880 467.613080 467.943894 470.631212 474.736845
25.800000 465.195933 467.161498 469.758314 470.097184 473.170557 477.198925
25.900000 467.329638 469.532707 472.443307 472.834761 476.244408 479.391448
26.000000 469.199767 471.930346 475.805284 475.608620 479.259633 482.237548
26.100000 471.618142 474.608919 478.662781 478.498453 482.282029 485.508464
26.200000 473.904891 477.626234 481.660897 481.896547 486.266548 490.628807
26.300000 476.920183 480.739443 484.729372 485.296994 490.742488 494.185566
26.400000 480.286808 483.222544 486.889366 488.197334 494.623533 497.846254
26.500000 482.785960 485.974716 489.484047 490.965345 497.149079 500.159430
26.600000 486.552293 489.266826 492.838811 494.002734 499.714569 501.940535
26.700000 489.730778 492.269758 497.821151 497.258851 502.044259 504.012975
26.800000 493.704287 497.332875 502.378363 501.435582 504.508232 506.786127
26.900000 496.776327 501.752232 504.655910 504.111481 506.414264 508.651298
27.000000 500.627899 504.235226 506.356685 506.185125 508.054334 510.427907
27.100000 503.834384 506.384841 508.007959 508.083826 509.634356 512.289924
27.200000 506.591817 508.257262 509.717292 509.941990 511.390792 513.916268
27.300000 508.323669 509.774325 511.292909 511.581469 513.196500 516.384630
27.400000 509.714126 511.209368 512.783541 513.252616 514.950427 519.584642
27.500000 511.242881 512.537902 514.364560 515.099631 516.987407 526.563985
27.600000 512.559726 514.019162 515.956145 517.199557 520.223424 530.000151
27.700000 513.803046 515.425659 517.547273 519.566780 525.588993 532.644390
27.800000 515.339447 517.093149 519.671898 522.112206 529.355027 534.575832
27.900000 517.044250 518.883842 522.354412 524.782742 532.585226 537.480047
28.033333 519.687260 522.114758 527.470761 528.774955 536.319902 541.572730
28.166667 523.413122 526.854646 532.147842 533.083732 540.382259 545.186501
28.300000 529.013856 532.345576 536.126139 537.708141 544.788810 548.789249
28.400000 535.214889 537.621656 542.621344 542.880637 548.472431 551.375978
28.500000 538.169028 541.594907 547.236938 546.850372 551.634221 553.687172
28.600000 541.336377 546.444671 551.121409 550.319177 553.818270 555.291812
28.700000 545.843819 550.970942 554.131325 553.443509 555.872793 557.250089
28.800000 550.073514 553.945233 556.358720 555.963638 557.905227 559.391215
28.900000 554.710757 556.573385 558.506639 558.317909 560.000264 561.564613
29.000000 557.377831 559.146368 560.748616 560.766118 562.249225 564.523383
29.100000 559.441315 561.139534 562.564441 562.740887 564.289077 567.292285
29.200000 561.549395 562.980499 564.369291 564.656006 566.156848 570.282391
29.300000 563.387363 564.721010 566.073771 566.579765 567.953554 573.946616
29.400000 565.109488 566.508091 567.745898 568.418553 569.664347 577.858663
29.500000 566.909680 568.144534 569.399986 570.365061 571.113141 583.454994
29.600000 568.664010 569.917942 571.090051 572.198910 572.764717 589.322788
29.700000 570.446312 571.725648 572.978136 574.162639 574.565422 592.279424
29.800000 572.126552 573.419952 574.685895 576.050307 576.405441 594.518070
29.900000 573.820082 575.176234 576.545682 578.034319 578.470644 597.350807
30.000000 575.798446 577.019056 578.439659 580.417650 581.043685 600.048894
30.100000 577.929068 579.222866 580.944385 584.284723 593.683784 602.501323
30.200000 580.331978 582.531590 592.395602 591.722152 599.976086 604.704250
30.300000 583.996688 592.484823 598.889577 598.253233 604.213721 607.262789
30.400000 590.977667 599.037262 604.821363 603.528667 607.626004 609.570206
30.500000 601.398713 606.252927 608.790749 608.288915 610.577910 612.048786
30.600000 606.342782 609.185098 611.136447 610.944365 612.773229 614.208970
30.700000 609.402972 611.505628 613.331241 613.175489 614.891939 616.234259
30.800000 611.899926 613.939801 615.568593 615.467397 617.019952 618.457806
30.900000 615.327668 616.885772 618.301557 618.367832 619.844825 621.794153
31.000000 618.295897 619.729186 621.304918 621.629384 623.359822 626.189756
31.100000 620.449772 621.978284 624.118893 625.547714 627.608637 643.600391
31.200000 622.321385 624.383861 629.718564 631.728323 641.004012 648.098315
31.300000 624.563005 626.797330 637.851342 638.177699 648.741684 655.570737
31.400000 627.067543 630.671706 643.455890 642.880854 653.186209 660.194298
31.500000 629.846188 637.191958 648.505905 647.836740 657.531310 663.733328
31.600000 633.876401 643.892317 652.941046 652.377743 661.426741 666.873974
31.700000 638.341101 648.362274 656.361120 656.188370 664.840681 669.336068
31.800000 644.196209 653.539989 661.508200 660.777261 668.560318 671.985230
31.925000 651.462022 659.624405 667.156499 666.083295 672.452994 675.253149
32.050000 658.595957 665.578780 672.182682 671.005445 675.813073 678.630483
32.175000 666.065596 672.259659 676.308772 675.581248 678.971049 681.674171
32.300000 674.200413 677.382488 679.706980 679.592252 681.908334 684.400633
32.400000 677.839968 679.989815 681.972996 681.998598 683.950923 686.376794
32.500000 680.132622 682.153261 684.010133 684.049789 685.917178 688.376549
32.600000 682.096828 684.204030 685.879763 685.890265 687.648244 689.690149
32.733333 684.925453 686.652910 688.314432 688.298721 689.927142 691.859221
32.866667 687.800369 689.209481 690.687805 690.701263 692.142936 693.668019
33.000000 690.718176 691.845217 693.124196 693.128006 694.420112 695.821101
33.100000 692.814905 693.864906 694.986713 695.004929 696.174447 697.539877
33.200000 695.335679 696.213674 697.136968 697.181305 698.156503 699.035879
