depth(m) lower_95(kyr) lower_68(kyr) median(kyr) mean(kyr) upper_68(kyr) upper_95(kyr)
22.480000 297.390321 297.984626 298.512469 298.475379 298.960804 299.389639
22.500000 297.676655 298.230358 298.769976 298.736846 299.193408 299.638443
22.520000 297.924335 298.485102 299.042577 298.993402 299.445052 299.910273
22.540000 298.223810 298.745974 299.293216 299.247813 299.708001 300.196623
22.560000 298.465164 299.025522 299.521484 299.501387 299.971681 300.500617
22.580000 298.722963 299.259772 299.763476 299.753530 300.223041 300.795009
22.600000 299.009979 299.520346 300.020119 300.008157 300.465168 301.117859
22.620000 299.261295 299.760465 300.270163 300.269280 300.723125 301.365836
22.640000 299.580675 300.045909 300.533591 300.536330 301.000111 301.649891
22.660000 299.835861 300.292404 300.794232 300.809104 301.304910 301.905023
22.680000 300.100911 300.580213 301.063073 301.087059 301.601274 302.242550
22.700000 300.327039 300.872155 301.366411 301.396031 301.959487 302.576937
22.720000 300.559314 301.174956 301.673910 301.698270 302.308106 302.906632
22.740000 300.851660 301.435845 301.962871 301.998728 302.604768 303.256338
22.760000 301.135617 301.690118 302.248818 302.282749 302.896454 303.561731
22.780000 301.342836 301.948897 302.541804 302.566783 303.215191 303.859684
22.800000 301.615810 302.224294 302.857413 302.848604 303.475279 304.192454
22.820000 301.850760 302.470955 303.161592 303.132372 303.768038 304.437818
22.840000 302.056488 302.739529 303.446180 303.413757 304.033579 304.733279
22.860000 302.308128 303.009366 303.745133 303.688977 304.323661 305.022500
22.880000 302.600591 303.308767 304.029671 303.982913 304.628661 305.284570
22.900000 302.943144 303.605482 304.311630 304.274106 304.920070 305.580469
22.920000 303.235811 303.907395 304.604642 304.567354 305.184228 305.798960
22.940000 303.519464 304.209477 304.907815 304.867392 305.492021 306.132505
22.960000 303.786361 304.535722 305.209051 305.175689 305.821729 306.454302
22.980000 304.043790 304.827682 305.520919 305.480857 306.134793 306.803695
23.000000 304.317728 305.164870 305.815637 305.790932 306.412796 307.076909
23.020000 304.616794 305.474398 306.137946 306.101952 306.737895 307.353358
23.040000 305.013661 305.787485 306.454622 306.428439 307.085003 307.654990
23.060000 305.363882 306.160458 306.813010 306.785880 307.434122 307.987751
23.080000 305.795286 306.491931 307.169374 307.158624 307.812120 308.430166
23.100000 306.165585 306.843639 307.498763 307.511777 308.220275 308.887607
23.120000 306.531515 307.233281 307.866199 307.895004 308.590388 309.249802
23.140000 306.963322 307.590765 308.261380 308.283211 309.000635 309.606222
23.160000 307.305379 307.987169 308.650176 308.676348 309.401321 310.056650
23.180000 307.678691 308.334299 309.064864 309.068604 309.780136 310.505536
23.200000 308.028467 308.742720 309.468976 309.454995 310.153911 310.924399
23.220000 308.305235 309.128643 309.830096 309.846792 310.571155 311.284284
23.240000 308.616303 309.479425 310.206397 310.219213 310.999842 311.677170
23.260000 308.919522 309.837136 310.578226 310.597776 311.404997 312.120882
23.280000 309.255006 310.199541 310.919733 310.955323 311.779019 312.521356
23.320000 309.997989 310.787811 311.611730 311.610124 312.442630 313.154555
23.340000 310.375930 311.087896 311.941728 311.939888 312.826813 313.674479
23.360000 310.634153 311.441310 312.291256 312.275282 313.156344 313.971373
23.380000 310.903636 311.730437 312.631605 312.587254 313.439104 314.218624
23.400000 311.259939 312.003212 312.935896 312.902524 313.765085 314.497568
23.420000 311.577853 312.350426 313.254653 313.240757 314.086546 314.879221
23.440000 311.883457 312.644779 313.561744 313.557827 314.422760 315.306757
23.460000 312.158913 312.946089 313.860350 313.875081 314.759808 315.686609
23.480000 312.572637 313.309517 314.201752 314.198830 315.046840 316.006899
23.500000 312.834866 313.641513 314.529575 314.516983 315.345558 316.306533
23.520000 313.144809 313.965320 314.899751 314.852784 315.664476 316.613864
23.540000 313.487388 314.303179 315.228576 315.192173 316.004083 316.921673
23.560000 313.831752 314.625705 315.566382 315.527102 316.303457 317.432891
23.580000 314.162146 314.931839 315.909556 315.862109 316.636772 317.695364
23.600000 314.480052 315.265356 316.254336 316.192454 317.022833 317.928611
23.620000 314.779886 315.605900 316.591068 316.521819 317.380920 318.281332
23.640000 315.161225 315.947956 316.932842 316.860151 317.733800 318.626786
23.660000 315.533294 316.297451 317.215797 317.181701 318.033233 318.913025
23.680000 315.848063 316.660795 317.526084 317.508198 318.338653 319.215354
23.700000 316.122361 316.980526 317.840296 317.836313 318.658136 319.586436
23.720000 316.430785 317.329361 318.169544 318.172744 318.972461 319.888258
23.740000 316.903267 317.730527 318.514270 318.512281 319.260620 320.182396
23.760000 317.192690 318.112941 318.855243 318.847777 319.625776 320.373317
23.780000 317.556619 318.439171 319.209509 319.190170 319.924226 320.693326
23.800000 317.928783 318.797159 319.557720 319.543074 320.282856 321.002104
23.820000 318.348018 319.166014 319.920082 319.895195 320.644194 321.246380
23.840000 318.701799 319.507776 320.262574 320.224698 320.956488 321.523557
23.860000 319.149812 319.829539 320.577108 320.557924 321.294816 321.821335
23.880000 319.478308 320.200587 320.927117 320.901880 321.596236 322.126180
23.900000 319.915318 320.613066 321.296456 321.271117 321.931801 322.437391
23.920000 320.365167 321.021000 321.684309 321.647957 322.298701 322.738899
23.940000 320.720995 321.413279 322.044621 322.006270 322.634964 323.081318
23.960000 321.086538 321.767137 322.387465 322.337713 322.929928 323.394767
23.980000 321.495323 322.063439 322.715984 322.665609 323.223018 323.717124
24.000000 321.813351 322.419139 323.018992 322.978204 323.506212 324.031324
24.020000 322.218519 322.764436 323.354482 323.316439 323.847695 324.341667
24.040000 322.551982 323.086335 323.677196 323.642938 324.165042 324.686845
24.060000 322.872718 323.433932 323.978954 323.970172 324.493197 325.036043
24.080000 323.267050 323.771596 324.331329 324.324334 324.846123 325.362489
24.100000 323.604194 324.161918 324.711240 324.713403 325.266357 325.837697
24.120000 323.942599 324.536977 325.075180 325.073484 325.598163 326.238120
24.140000 324.281870 324.866162 325.416598 325.417625 325.926746 326.584858
24.160000 324.553098 325.183927 325.718927 325.728617 326.278359 326.916708
24.180000 324.862032 325.484117 326.024516 326.042018 326.635643 327.244161
24.200000 325.148074 325.783714 326.345773 326.354472 326.935155 327.520598
24.220000 325.451593 326.094472 326.670125 326.664093 327.272720 327.796993
24.240000 325.743832 326.397188 326.966018 326.984037 327.597821 328.143772
24.260000 326.138284 326.690408 327.286404 327.305972 327.921074 328.462760
24.280000 326.461112 327.015624 327.624685 327.627258 328.221138 328.821202
24.300000 326.718654 327.335571 327.958088 327.943916 328.517008 329.132252
24.320000 327.049391 327.680105 328.288310 328.264613 328.831263 329.460338
24.340000 327.355228 328.017357 328.632604 328.602793 329.167062 329.806650
24.360000 327.731862 328.358750 328.935336 328.936303 329.488043 330.204283
24.380000 328.021974 328.703004 329.239796 329.255591 329.793912 330.494478
24.400000 328.339951 329.047663 329.571883 329.582262 330.121972 330.862083
24.420000 328.675515 329.352763 329.879141 329.886335 330.458289 331.188818
24.440000 329.001936 329.612083 330.166857 330.178098 330.798099 331.476753
24.460000 329.360827 329.894937 330.444081 330.479254 331.065230 331.769524
24.480000 329.685904 330.211192 330.762410 330.784734 331.382685 332.046995
24.500000 329.962289 330.511433 331.065748 331.090868 331.693461 332.414209
24.520000 330.334200 330.839848 331.413101 331.441325 332.036377 332.805623
24.540000 330.665529 331.185073 331.784455 331.809422 332.443940 333.142895
24.560000 331.012274 331.593743 332.198104 332.227421 332.917857 333.649622
24.580000 331.415456 331.999376 332.666585 332.693830 333.386588 334.121273
24.600000 331.881704 332.481105 333.211702 333.231509 333.966435 334.756712
24.620000 332.341313 333.094221 333.868381 333.895674 334.674257 335.577644
24.640000 333.078731 333.915022 334.736296 334.760096 335.607083 336.367360
24.660000 334.027081 334.840783 335.696917 335.704944 336.586727 337.402991
24.680000 335.080990 335.954012 336.756117 336.764026 337.612193 338.461134
24.700000 335.870773 336.807633 337.666453 337.665245 338.575327 339.356388
24.720000 336.837558 337.690840 338.616491 338.609981 339.533269 340.237085
24.740000 337.509564 338.476265 339.418045 339.369588 340.227013 340.990448
24.760000 338.261549 339.158700 340.104596 340.026729 340.849407 341.512726
24.780000 338.891079 339.786111 340.640437 340.577170 341.364840 341.892304
24.800000 339.386362 340.340570 341.113127 341.048168 341.808393 342.283124
24.820000 339.853958 340.747949 341.492686 341.446972 342.151199 342.621731
24.860000 340.692042 341.477296 342.221858 342.135576 342.748789 343.176823
24.880000 341.023952 341.824232 342.562361 342.469074 343.066835 343.522242
24.900000 341.418170 342.160686 342.855006 342.772307 343.344511 343.784296
24.920000 341.739324 342.492587 343.155492 343.063384 343.620634 344.027598
24.940000 342.006684 342.777905 343.419977 343.345602 343.891992 344.282137
24.960000 342.306387 343.044675 343.700104 343.618640 344.154857 344.534798
24.980000 342.598583 343.321008 343.986063 343.899821 344.414635 344.820043
25.000000 342.821210 343.660712 344.271741 344.185386 344.685446 345.154783
25.020000 343.100568 343.920743 344.543338 344.452034 344.956230 345.428845
25.040000 343.360958 344.202655 344.797097 344.715535 345.227095 345.693643
25.060000 343.691403 344.455925 345.050260 344.983128 345.488056 345.973444
25.080000 344.062580 344.758222 345.306516 345.257835 345.762219 346.238760
25.100000 344.368939 345.037094 345.575666 345.545217 346.022647 346.545898
25.120000 344.633978 345.360698 345.847911 345.830458 346.298652 346.963262
25.140000 344.929409 345.605152 346.119147 346.108665 346.585784 347.276504
25.160000 345.241101 345.886519 346.371557 346.378143 346.879339 347.581571
25.180000 345.530128 346.138297 346.627426 346.648809 347.160820 347.903416
25.220000 346.113445 346.637675 347.123572 347.181385 347.753600 348.421689
25.240000 346.335278 346.932445 347.398686 347.470372 348.076737 348.797318
25.260000 346.596442 347.198712 347.679659 347.748771 348.342255 349.161846
25.280000 346.897883 347.461762 347.954973 348.032916 348.667462 349.426819
25.300000 347.174278 347.726500 348.252989 348.327402 348.986823 349.796927
25.320000 347.474705 348.000749 348.548939 348.630031 349.297134 350.087553
25.340000 347.706428 348.279302 348.872844 348.933185 349.643100 350.387142
25.360000 347.958285 348.554472 349.213018 349.261699 349.980855 350.691883
25.380000 348.234593 348.865845 349.553453 349.607498 350.365475 351.261423
25.400000 348.547842 349.190824 349.925671 349.986253 350.781318 351.714420
25.420000 348.905017 349.530352 350.321683 350.376916 351.194821 352.134372
25.440000 349.221852 349.942113 350.745715 350.818620 351.702304 352.705149
25.460000 349.655773 350.371323 351.234305 351.291066 352.195798 353.286441
25.480000 349.976509 350.806900 351.669538 351.735797 352.664881 353.811595
25.500000 350.291386 351.210364 352.086488 352.169617 353.189824 354.283385
25.520000 350.630252 351.590176 352.531240 352.595195 353.661474 354.847857
25.540000 350.905271 351.937585 352.992710 353.017072 354.088345 355.378022
25.560000 351.303683 352.260152 353.454252 353.448751 354.534465 355.897575
25.580000 351.659705 352.651973 353.811960 353.849228 354.958917 356.541752
25.620000 352.316934 353.454201 354.649860 354.700721 355.858864 357.808787
25.640000 352.624673 353.804606 355.058632 355.105109 356.317741 358.240998
25.660000 353.101869 354.234745 355.432818 355.495612 356.743674 358.599534
25.680000 353.473264 354.599905 355.777717 355.880605 357.156469 359.028681
25.720000 354.271055 355.310486 356.478548 356.648664 357.966000 359.772196
25.740000 354.650569 355.736187 356.855273 357.041974 358.375128 360.144206
25.760000 355.014906 356.110489 357.226957 357.444416 358.834255 360.636504
25.780000 355.310162 356.502648 357.663630 357.845106 359.354697 360.990649
25.820000 356.139944 357.300300 358.448975 358.633768 360.227725 361.716577
25.840000 356.544673 357.668787 358.805819 359.023365 360.702442 361.988998
25.860000 356.945807 358.053862 359.205563 359.409667 361.104224 362.218279
25.880000 357.312626 358.492704 359.614620 359.792097 361.390430 362.509796
25.900000 357.680721 358.839383 360.012374 360.153244 361.678555 362.849993
25.920000 358.215434 359.208716 360.425326 360.531310 361.992563 363.113753
25.940000 358.548506 359.603911 360.791505 360.908489 362.308126 363.338211
25.960000 358.934273 360.046321 361.228151 361.286196 362.595019 363.674602
25.980000 359.354787 360.443949 361.661333 361.683387 362.960503 363.955215
26.000000 359.828831 360.835620 362.090496 362.099092 363.308570 364.357649
26.020000 360.337884 361.323232 362.509558 362.506065 363.648703 364.719788
26.040000 360.783438 361.764705 362.943619 362.898598 363.948556 365.016432
26.060000 361.276318 362.166536 363.329395 363.294393 364.299093 365.389956
26.080000 361.618812 362.588300 363.763985 363.712243 364.735308 365.790158
26.100000 361.947674 363.060900 364.127951 364.101434 365.125023 366.158836
26.120000 362.372282 363.454400 364.497156 364.494666 365.528361 366.564243
26.140000 362.717912 363.888475 364.912132 364.902231 365.943279 366.907180
26.160000 363.153385 364.336977 365.343279 365.332146 366.357795 367.345363
26.180000 363.655124 364.782462 365.751329 365.764019 366.750453 367.902016
26.220000 364.777229 365.863232 366.770090 366.844738 367.845295 369.186566
26.240000 365.392152 366.390454 367.277674 367.367774 368.344099 369.813649
26.260000 365.951229 366.920123 367.875553 367.924281 368.862386 370.296396
26.280000 366.459428 367.511426 368.430050 368.512176 369.525117 370.925735
26.300000 366.997972 368.116742 369.012321 369.106845 370.155928 371.499974
26.320000 367.621949 368.568053 369.532511 369.655276 370.787745 372.143603
26.340000 368.097267 369.054787 370.054723 370.215242 371.459713 372.847122
26.360000 368.627805 369.541867 370.693658 370.798568 372.092107 373.352098
26.400000 369.609637 370.812162 372.194906 372.344408 373.945669 375.730386
26.440000 370.741075 372.027658 373.814264 373.863009 375.660298 377.396067
26.500000 373.983897 375.506241 376.919373 376.870214 378.341250 379.399893
26.520000 374.565550 376.113771 377.454743 377.403397 378.752692 379.860643
26.540000 375.175221 376.629804 377.928988 377.887199 379.179728 380.151593
26.560000 375.856297 377.199722 378.401107 378.359655 379.596315 380.638715
26.580000 376.255524 377.665755 378.837899 378.800843 380.004410 381.115060
26.600000 376.807340 378.097572 379.276646 379.243049 380.414216 381.465572
26.620000 377.467288 378.622161 379.761901 379.713464 380.829818 381.867541
26.640000 377.869050 379.151393 380.248798 380.219268 381.325153 382.229983
26.660000 378.261690 379.670471 380.765787 380.688679 381.765510 382.730305
26.680000 379.055126 380.140350 381.184646 381.157940 382.218054 383.228749
26.700000 379.363743 380.597240 381.606312 381.606911 382.631881 383.662483
26.720000 379.690597 381.007489 382.030880 382.006635 383.065141 384.149385
26.740000 380.083791 381.347776 382.427029 382.395351 383.437654 384.592425
26.780000 380.779880 382.123705 383.134541 383.151111 384.220803 385.270355
26.820000 381.621243 382.869065 383.944638 383.943505 385.049070 386.095938
26.840000 382.017598 383.267625 384.378124 384.377039 385.506547 386.648768
26.880000 382.936992 384.154658 385.259350 385.307739 386.497483 387.700243
26.920000 383.906701 385.076643 386.214972 386.268410 387.559321 388.689036
26.960000 384.846383 385.967589 387.190673 387.246820 388.524017 389.826731
26.980000 385.281582 386.403795 387.662417 387.691499 389.009796 390.260339
27.000000 385.713780 386.817269 388.096049 388.120014 389.431339 390.635803
27.020000 386.179852 387.275816 388.488481 388.537572 389.824400 391.078372
27.040000 386.573337 387.692452 388.875922 388.948714 390.224361 391.430185
27.060000 387.023366 388.117890 389.330929 389.380938 390.651883 391.760350
27.100000 388.011600 389.115395 390.351690 390.327162 391.572120 392.517641
27.140000 388.975466 390.074679 391.293182 391.238124 392.375162 393.173554
27.160000 389.403077 390.589712 391.796820 391.699387 392.754878 393.527299
27.200000 390.824574 391.866038 392.765047 392.698302 393.552317 394.112278
27.220000 391.324562 392.351463 393.228535 393.136802 393.932451 394.429001
27.240000 391.850674 392.876900 393.634514 393.565683 394.275810 394.735600
27.260000 392.478182 393.424746 394.020596 393.980035 394.618489 395.088042
27.280000 393.109717 393.888739 394.459260 394.403203 394.961794 395.397023
27.300000 393.631868 394.273953 394.845253 394.789311 395.317037 395.730104
27.320000 394.021007 394.612519 395.147677 395.121849 395.627564 396.046769
27.340000 394.408710 394.907417 395.426935 395.414568 395.898534 396.338411
27.360000 394.670570 395.191806 395.681385 395.678246 396.155982 396.607891
27.380000 394.951853 395.446926 395.946542 395.933696 396.415060 396.849541
27.420000 395.441711 395.919376 396.426079 396.416019 396.894672 397.327240
27.440000 395.737450 396.170563 396.668832 396.658626 397.122994 397.572152
27.460000 395.982272 396.433927 396.917662 396.901870 397.373787 397.782265
27.480000 396.213876 396.670485 397.142365 397.133415 397.625031 398.000727
27.520000 396.579726 397.126472 397.563564 397.557827 398.026574 398.405311
27.560000 397.050538 397.520310 397.974640 397.974000 398.435625 398.796963
27.620000 397.629980 398.157132 398.574514 398.570144 398.985277 399.352443
27.640000 397.863957 398.394394 398.801049 398.790855 399.193663 399.589447
27.680000 398.297265 398.806648 399.204944 399.196502 399.591128 399.960126
27.720000 398.701678 399.194624 399.607910 399.587080 399.973316 400.339779
27.760000 399.138966 399.630844 400.012523 399.997976 400.376504 400.744324
27.780000 399.364106 399.859177 400.238593 400.220614 400.605547 400.956936
27.840000 399.974215 400.472924 400.831861 400.814101 401.165919 401.542298
27.860000 400.245240 400.685250 401.049940 401.036748 401.385269 401.774086
27.880000 400.555292 400.930804 401.285295 401.272126 401.617424 401.996761
27.920000 400.994259 401.401624 401.706134 401.710026 402.035988 402.393588
27.940000 401.259524 401.634641 401.940794 401.948220 402.261304 402.611880
27.960000 401.493758 401.879232 402.165054 402.181871 402.509108 402.846360
27.980000 401.748413 402.094568 402.380270 402.403161 402.732493 403.069522
28.020000 402.160587 402.484023 402.796610 402.813875 403.157441 403.487204
28.040000 402.376880 402.699076 403.016089 403.035615 403.385886 403.769892
28.060000 402.628551 402.919842 403.259004 403.263068 403.603127 404.024216
28.080000 402.819534 403.149138 403.464897 403.486116 403.831015 404.249057
28.120000 403.201682 403.535145 403.862470 403.887460 404.243949 404.794568
28.140000 403.382346 403.742959 404.069029 404.104115 404.458295 404.983411
28.180000 403.784236 404.129535 404.471403 404.498805 404.858350 405.354573
28.220000 404.136536 404.534346 404.860788 404.898114 405.245688 405.855030
28.260000 404.508970 404.935615 405.273723 405.306330 405.647961 406.297772
28.280000 404.738645 405.152656 405.494356 405.523873 405.876178 406.495654
28.320000 405.159456 405.556614 405.887153 405.933289 406.315951 406.947505
28.340000 405.346185 405.766557 406.097439 406.146699 406.533767 407.233890
28.380000 405.759482 406.163089 406.506614 406.556317 406.961004 407.620294
28.420000 406.177646 406.561450 406.907826 406.962310 407.369786 408.032739
28.440000 406.405722 406.787233 407.126956 407.185867 407.596785 408.302330
28.460000 406.665585 407.008137 407.338545 407.411356 407.858447 408.528041
