depth(m) lower_95(kyr) lower_68(kyr) median(kyr) mean(kyr) upper_68(kyr) upper_95(kyr)
11.300000 300.673238 301.353210 302.048615 302.076740 302.827978 303.541012
11.330000 301.240202 301.949212 302.801637 302.892709 303.806516 305.163242
11.350000 301.612768 302.288748 303.256889 303.378605 304.545402 305.624994
11.380000 302.126613 302.773794 304.017478 304.129119 305.518450 306.605220
11.400000 302.424803 303.116422 304.587559 304.583891 305.993305 306.966130
11.430000 302.837009 303.638734 305.389915 305.219951 306.588416 307.542876
11.450000 303.117042 303.950310 305.825895 305.596985 307.003867 307.834796
11.480000 303.614344 304.430745 306.411518 306.120386 307.483041 308.228186
11.500000 303.931704 304.779315 306.748412 306.466723 307.798569 308.530251
11.530000 304.395803 305.294201 307.234420 306.938942 308.202946 308.947384
11.550000 304.678471 305.627362 307.498412 307.246884 308.492282 309.246681
11.580000 305.176419 306.189473 307.918463 307.694606 308.884631 309.580033
11.600000 305.551057 306.561386 308.219216 308.004006 309.160487 309.983244
11.630000 306.003470 307.036343 308.684661 308.468876 309.575042 310.492896
11.650000 306.304208 307.417519 309.006390 308.802082 309.900181 310.908430
11.680000 306.864392 307.993927 309.483230 309.309345 310.350220 311.628169
11.700000 307.209511 308.318806 309.836200 309.677878 310.737633 311.979349
11.730000 307.831414 308.981495 310.360813 310.260936 311.282270 312.673293
11.750000 308.186030 309.396196 310.716556 310.648820 311.675105 313.202292
11.780000 308.703040 309.952798 311.228049 311.247940 312.412775 314.198317
11.800000 309.054388 310.324965 311.598120 311.642816 312.922583 314.570360
11.830000 309.568144 310.889438 312.115282 312.251936 313.699441 315.499017
11.850000 309.887731 311.250776 312.550290 312.666767 314.084701 316.082144
11.880000 310.398564 311.787980 313.149884 313.325729 314.993401 317.079211
11.900000 310.725723 312.193751 313.577081 313.765332 315.493795 317.433896
11.930000 311.264332 312.764137 314.294649 314.529517 316.458093 318.444114
11.980000 312.082411 313.846952 315.713458 315.953726 318.253076 320.561400
12.010000 312.767805 314.452340 316.467600 316.722636 319.168418 321.726863
12.141429 315.449791 317.696176 321.392110 322.038325 326.704215 331.617710
12.272857 318.527900 321.910368 327.096878 327.623792 333.615884 339.382197
12.404286 322.521887 326.995383 333.573626 333.611759 340.101104 346.037108
12.535714 326.651316 332.140064 339.353866 339.150975 345.713820 351.610137
12.667143 332.335134 338.762239 345.218517 344.974828 350.940063 356.831700
12.798571 339.908490 345.507559 350.843957 350.679972 356.463113 360.361926
12.930000 348.659502 351.104680 355.341993 355.985648 361.040703 363.935987
12.950000 349.213460 351.680714 355.836267 356.467509 361.534062 364.340742
12.970000 349.583298 352.140587 356.175415 356.910048 362.005739 364.619457
12.990000 349.934626 352.417752 356.541174 357.299060 362.376955 364.880804
13.010000 350.466640 352.923278 356.917777 357.660633 362.757315 365.222977
13.030000 350.812800 353.202644 357.292559 358.019576 363.180855 365.642953
13.050000 351.104989 353.577415 357.582372 358.346317 363.483308 365.946573
13.090000 351.772227 354.268338 358.170805 358.969511 363.991820 366.350118
13.140000 352.469426 355.160062 358.970055 359.716634 364.674699 367.242761
13.268571 354.025427 357.238864 360.951996 361.521955 366.240880 368.608756
13.397143 355.761261 359.374751 363.009571 363.289042 367.550166 370.134913
13.525714 357.577215 361.382142 364.986100 365.006437 368.879211 371.371452
13.654286 359.695679 363.240454 366.872925 366.772886 370.391002 372.690458
13.782857 361.845866 365.299078 368.596566 368.493444 371.914759 373.927222
13.911429 364.845359 367.188860 370.220977 370.242850 373.328600 375.269963
14.040000 367.474275 369.339602 371.880322 372.012939 374.845144 376.790256
14.140000 368.986613 370.839263 373.121691 373.357726 376.130721 377.891581
14.200000 369.911159 371.762201 374.017162 374.182661 376.918551 378.578449
14.220000 370.232175 372.071365 374.324352 374.472788 377.217295 378.833155
14.260000 370.863924 372.707803 374.883762 375.038835 377.718088 379.344047
14.370000 372.386763 374.034406 376.313367 376.380669 378.917883 380.302562
14.480000 373.811062 375.416184 377.648957 377.677055 380.060695 381.315823
14.590000 375.216056 376.800906 379.066880 378.977162 381.127536 382.347469
14.700000 376.655927 378.260212 380.502571 380.314072 382.317073 383.384771
14.720000 376.907621 378.529323 380.819698 380.589962 382.570783 383.578190
14.740000 377.165352 378.767862 381.090575 380.867930 382.853107 383.809120
14.780000 377.701967 379.341990 381.628026 381.388438 383.313154 384.295179
14.820000 378.169161 379.892576 382.161627 381.903298 383.821174 384.693244
14.880000 378.879732 380.717141 382.881559 382.654576 384.557606 385.417803
15.025000 380.478756 382.339541 384.509512 384.224352 385.979312 386.934822
15.170000 381.846695 384.079634 386.041235 385.791780 387.453654 388.471736
15.180000 381.975166 384.181348 386.183995 385.931245 387.579243 388.651923
15.200000 382.222307 384.445547 386.464731 386.201821 387.813232 388.878486
15.280000 383.041230 385.577572 387.486218 387.164122 388.659110 389.850378
15.425000 384.336705 387.308622 389.153916 388.737255 390.159748 391.054051
15.570000 385.739232 389.222550 390.737259 390.326756 391.647759 392.348456
15.590000 386.046060 389.496639 391.010641 390.615121 391.934516 392.645468
15.600000 386.206921 389.640927 391.183788 390.772613 392.059969 392.757451
15.620000 386.562632 390.023687 391.515000 391.085222 392.369122 393.082042
15.630000 386.821930 390.179752 391.667398 391.243691 392.505035 393.235241
15.640000 387.029373 390.340314 391.809288 391.401352 392.633935 393.372583
15.720000 388.505492 391.662205 392.875602 392.533156 393.675296 394.499817
15.850000 391.060903 393.500890 394.489342 394.347594 395.309403 396.198536
15.980000 394.538808 395.341922 396.130100 396.127214 396.928892 397.686343
16.000000 394.859442 395.628246 396.419105 396.413797 397.189430 397.945692
16.020000 395.135232 395.920393 396.680519 396.697982 397.494123 398.284946
16.060000 395.626341 396.430846 397.177415 397.200334 398.004596 398.740171
16.100000 396.104210 396.871077 397.683997 397.679072 398.471557 399.272903
16.160000 396.732137 397.535374 398.376665 398.354057 399.140694 399.934203
16.280000 397.666507 398.723754 399.614791 399.593583 400.535991 401.246870
16.400000 398.868925 399.837090 400.833789 400.811407 401.793944 402.590181
16.520000 399.923790 400.969627 402.105112 402.063007 403.095568 403.931155
16.640000 401.044926 402.162251 403.320437 403.293287 404.354626 405.347584
16.753333 402.080944 403.410883 404.574128 404.502915 405.601754 406.502878
16.866667 403.266359 404.632191 405.781045 405.726120 406.877055 407.605555
16.980000 404.224501 405.964346 407.105851 406.997727 408.172289 408.667295
17.000000 404.456498 406.214741 407.389125 407.267556 408.432980 408.936333
17.020000 404.799653 406.477426 407.673977 407.542877 408.711096 409.170560
17.040000 405.048872 406.728475 407.991147 407.816459 408.960521 409.424245
17.100000 406.036933 407.485288 408.749193 408.568697 409.660213 410.069511
17.120000 406.339437 407.744381 409.027919 408.838178 409.895661 410.301061
17.130000 406.522111 407.904564 409.172161 408.984438 410.020160 410.438008
17.160000 407.143822 408.353873 409.610464 409.396982 410.363324 410.798966
17.180000 407.460237 408.641660 409.881426 409.680894 410.635505 411.056544
17.200000 407.788746 408.980304 410.158319 409.952532 410.877874 411.278958
17.220000 408.146033 409.318648 410.431128 410.236360 411.112287 411.546772
17.270000 409.265018 410.063082 411.072729 410.921366 411.696520 412.081268
17.300000 409.721023 410.565520 411.521657 411.357032 412.064105 412.499761
17.320000 410.137901 410.902559 411.847038 411.668928 412.333780 412.772266
17.340000 410.482374 411.268391 412.159389 412.015171 412.640896 413.065145
17.350000 410.696313 411.468052 412.338499 412.192521 412.817065 413.211113
17.370000 411.112194 411.820781 412.648508 412.533587 413.120014 413.518537
17.380000 411.364455 412.040228 412.807095 412.710244 413.287168 413.666594
17.390000 411.538265 412.243801 412.965363 412.878636 413.440845 413.827036
17.410000 411.886061 412.647040 413.271549 413.194711 413.719847 414.118545
17.430000 412.156675 412.961957 413.545866 413.476348 413.989056 414.370889
17.450000 412.453554 413.278200 413.817858 413.753493 414.247138 414.680593
17.460000 412.594561 413.428863 413.956167 413.897520 414.389543 414.839790
17.470000 412.785722 413.584765 414.096826 414.046819 414.525625 414.984513
17.480000 412.985342 413.736173 414.223542 414.189705 414.672198 415.140756
17.500000 413.278943 413.970708 414.471659 414.448846 414.936092 415.434967
17.520000 413.552684 414.225294 414.700718 414.698959 415.167970 415.720396
17.540000 413.836713 414.461276 414.931773 414.945643 415.411917 416.099899
17.560000 414.160915 414.695281 415.157320 415.189186 415.651517 416.421813
17.570000 414.296802 414.828362 415.279068 415.319292 415.805217 416.549604
17.580000 414.440605 414.945737 415.406910 415.449884 415.950942 416.684706
17.620000 415.009513 415.420799 415.812643 415.911859 416.433635 417.218388
17.640000 415.258081 415.650346 416.057233 416.163837 416.705336 417.525909
17.650000 415.445492 415.776458 416.171561 416.298123 416.869811 417.687873
17.660000 415.597481 415.915730 416.308098 416.441013 417.024482 417.809929
17.670000 415.722782 416.061319 416.442797 416.592671 417.206699 417.959671
17.680000 415.887291 416.197370 416.594222 416.745039 417.384778 418.126158
17.690000 416.018826 416.330946 416.741775 416.897363 417.583595 418.309127
17.720000 416.379551 416.702615 417.126168 417.323463 418.166102 418.889290
17.730000 416.518494 416.839876 417.281161 417.482974 418.350473 419.116122
17.740000 416.682558 416.980312 417.435951 417.652093 418.569886 419.271018
17.750000 416.835758 417.143037 417.615662 417.828948 418.787175 419.477908
17.760000 416.965917 417.288383 417.779827 418.001320 418.986310 419.656330
17.770000 417.147642 417.431950 417.948848 418.177136 419.187292 419.839351
17.780000 417.289600 417.598483 418.144842 418.359328 419.393238 420.004157
17.790000 417.475717 417.776979 418.323011 418.552002 419.606071 420.175642
17.800000 417.642706 417.962954 418.523727 418.758102 419.793759 420.379117
17.810000 417.817248 418.150092 418.702309 418.947472 420.022435 420.525055
17.820000 417.963863 418.338439 418.865039 419.138474 420.244723 420.729486
17.830000 418.117961 418.529594 419.076475 419.329091 420.435419 420.931365
17.840000 418.304059 418.743433 419.264499 419.530445 420.608295 421.248144
17.850000 418.519656 418.944082 419.481950 419.729955 420.777609 421.434422
17.870000 418.861252 419.291909 419.906739 420.117835 421.102053 421.865639
17.880000 419.047522 419.487612 420.123571 420.310153 421.270785 422.064246
17.890000 419.205313 419.681309 420.336881 420.508058 421.427960 422.279017
17.900000 419.438996 419.870962 420.533550 420.708472 421.622179 422.480449
17.920000 419.740082 420.262013 421.031125 421.129158 422.047377 422.964300
17.930000 419.934550 420.452952 421.245951 421.339218 422.264060 423.210249
17.940000 420.101049 420.658728 421.466161 421.541885 422.437610 423.414470
17.950000 420.277228 420.860608 421.711094 421.754801 422.657381 423.636950
17.960000 420.444145 421.067593 421.939755 421.973464 422.888132 423.842791
17.970000 420.619787 421.306972 422.164498 422.197007 423.141592 424.026740
17.990000 420.944085 421.797201 422.694415 422.739181 423.703262 424.623754
18.000000 421.217228 422.011796 422.942844 422.984767 423.993743 424.852267
18.010000 421.381790 422.258267 423.216431 423.228868 424.204850 425.115455
18.020000 421.608803 422.544153 423.505819 423.500203 424.456988 425.429457
18.030000 421.929657 422.844694 423.795260 423.807757 424.756004 425.768745
18.050000 422.769032 423.649542 424.629242 424.649655 425.707318 426.617636
18.060000 423.031074 423.917582 424.928388 424.968696 426.033446 426.934456
18.110000 428.488911 429.245456 430.223961 430.297807 431.367676 432.336140
18.180000 436.420106 437.163639 438.077012 438.196555 439.269362 440.264791
18.260000 445.439859 446.180030 447.021248 447.131197 448.190987 449.212664
18.270000 445.811710 446.559542 447.371678 447.503121 448.566738 449.671241
18.310000 449.876021 450.622450 451.408079 451.482656 452.321794 453.512604
18.320000 450.333346 451.029007 451.724659 451.827621 452.649009 453.764516
18.330000 450.726517 451.351617 452.001842 452.121678 452.922801 454.024346
18.340000 451.132120 451.703539 452.296138 452.430905 453.244356 454.331298
18.350000 451.367479 451.981605 452.587244 452.709740 453.487519 454.615616
18.360000 451.740295 452.262469 452.862784 452.994005 453.778846 454.856770
18.370000 452.047076 452.543551 453.134645 453.279194 454.070918 455.063961
18.380000 452.325144 452.821779 453.427097 453.555071 454.315053 455.349940
18.390000 452.591286 453.125769 453.699854 453.844490 454.606097 455.617184
18.400000 452.945434 453.449901 454.005007 454.136383 454.898225 455.967546
18.410000 453.210930 453.682217 454.273215 454.414519 455.173668 456.240954
18.420000 453.557867 453.995420 454.598284 454.717817 455.467277 456.498690
18.430000 453.814560 454.301189 454.905554 455.028067 455.759439 456.826012
18.440000 454.053821 454.616483 455.222420 455.335426 456.057286 457.145098
18.450000 454.383950 454.923728 455.543153 455.641231 456.330275 457.476884
18.460000 454.636315 455.235215 455.859194 455.961955 456.666660 457.810071
18.470000 454.969480 455.549301 456.200207 456.295374 457.088224 458.164184
18.480000 455.260749 455.836639 456.540681 456.639914 457.457190 458.579885
18.490000 455.525725 456.198873 456.881936 456.995732 457.854000 458.984947
18.500000 455.867233 456.570286 457.313272 457.391774 458.234103 459.308510
18.510000 456.277224 456.982653 457.709079 457.805056 458.694452 459.784769
18.520000 456.610192 457.371395 458.133941 458.222857 459.085761 460.308318
18.530000 457.009551 457.749028 458.603259 458.647447 459.512936 460.797404
18.540000 457.382913 458.197196 459.029400 459.095639 459.977470 461.154292
18.550000 457.840994 458.588927 459.493172 459.536032 460.444904 461.533828
18.560000 458.344366 459.093284 459.968718 460.000610 460.895589 461.962326
18.570000 458.728505 459.595914 460.435699 460.464966 461.387791 462.480058
18.580000 459.121334 459.979961 460.898005 460.925213 461.843505 463.055622
18.590000 459.617938 460.481416 461.395004 461.418664 462.316554 463.586633
18.600000 459.991638 460.895923 461.893617 461.922544 462.869880 464.218626
18.610000 460.529410 461.397486 462.419168 462.427384 463.474613 464.733512
18.620000 461.017526 461.838435 462.918206 462.939220 463.971537 465.288988
18.630000 461.400548 462.402304 463.447671 463.475618 464.544699 465.780111
18.640000 461.858528 462.886434 463.958325 464.019994 465.161009 466.305600
18.650000 462.304497 463.393777 464.516995 464.537392 465.658062 466.982711
18.660000 462.734188 463.909398 465.049211 465.053941 466.228339 467.517597
18.670000 463.318542 464.403230 465.572910 465.602746 466.764913 468.103837
18.680000 463.772376 464.980178 466.095265 466.119923 467.242106 468.578098
18.690000 464.270884 465.460858 466.568688 466.608010 467.834768 468.989444
18.700000 464.589758 465.941804 467.065117 467.093299 468.315210 469.535257
18.710000 465.099107 466.407297 467.522136 467.578367 468.845537 469.939173
18.720000 465.561049 466.856620 468.011549 468.054395 469.285752 470.374415
18.730000 466.175323 467.361109 468.489025 468.498151 469.677192 470.773977
18.740000 466.504099 467.756591 468.932667 468.908675 470.071885 471.100009
18.750000 466.916500 468.088689 469.255449 469.275886 470.423675 471.457926
18.760000 467.350650 468.427313 469.615949 469.610801 470.788501 471.720688
18.780000 468.648182 469.650676 470.760418 470.749731 471.862484 472.731664
18.790000 468.981520 469.964760 471.057934 471.089108 472.235438 473.006709
18.800000 469.249001 470.285052 471.380215 471.406940 472.553007 473.319065
18.810000 469.532271 470.539440 471.703406 471.710175 472.893311 473.573604
18.820000 469.842493 470.851994 471.961702 471.988011 473.195147 473.832274
18.830000 470.214943 471.074022 472.267819 472.257766 473.460941 474.065410
18.840000 470.429094 471.326318 472.547073 472.518159 473.769049 474.359064
18.850000 470.714562 471.607607 472.786670 472.783639 474.008522 474.605212
18.860000 470.908882 471.851559 473.088907 473.031965 474.311056 474.840975
18.870000 471.078560 472.041462 473.343929 473.276574 474.554342 475.134664
18.880000 471.302685 472.253565 473.569291 473.510809 474.793683 475.311539
18.890000 471.569494 472.490910 473.859055 473.751879 475.058057 475.534454
18.900000 471.806406 472.683849 474.145893 473.985034 475.284325 475.714706
18.910000 472.057292 472.915273 474.417613 474.203387 475.481167 475.866828
18.920000 472.326304 473.093079 474.693809 474.425265 475.667286 476.057079
18.930000 472.530882 473.301796 474.926306 474.632895 475.865600 476.192378
18.940000 472.662616 473.492320 475.176600 474.841917 476.040283 476.394507
18.950000 472.925102 473.683099 475.409618 475.043679 476.206592 476.586836
18.960000 473.121698 473.914778 475.605077 475.245232 476.392524 476.840564
18.970000 473.317649 474.137436 475.864063 475.457564 476.572330 477.042958
18.980000 473.454413 474.346721 476.078455 475.659388 476.762803 477.296992
18.990000 473.641305 474.562407 476.295571 475.854768 476.934500 477.516272
19.000000 473.848095 474.772915 476.508741 476.044647 477.068312 477.780340
19.010000 474.047406 474.985123 476.699956 476.242567 477.274635 477.959400
19.020000 474.213937 475.167174 476.918095 476.436408 477.451293 478.113200
19.030000 474.360312 475.349123 477.081796 476.622527 477.653896 478.336815
19.040000 474.509504 475.522299 477.236044 476.799496 477.822081 478.516711
19.050000 474.667240 475.696261 477.398304 476.978090 478.036306 478.623906
19.060000 474.814100 475.853616 477.546346 477.156897 478.212506 478.771354
19.080000 475.232761 476.195607 477.884666 477.533921 478.609340 479.099840
19.100000 475.577132 476.527996 478.220885 477.896779 478.973778 479.384753
19.120000 475.957930 476.902404 478.514294 478.228967 479.256795 479.638979
19.140000 476.365977 477.278657 478.831434 478.538529 479.518496 479.882158
19.160000 476.665967 477.652057 479.133049 478.839682 479.762250 480.160084
19.180000 477.023433 478.018340 479.421601 479.130205 480.027883 480.378873
19.200000 477.342315 478.322835 479.677756 479.399094 480.256058 480.607652
19.220000 477.647748 478.666979 479.899054 479.658754 480.477216 480.831074
19.260000 478.214802 479.150687 480.360704 480.114287 480.890178 481.231365
19.320000 479.098514 479.922346 480.960184 480.746233 481.441385 481.698928
19.350000 479.522311 480.297264 481.283856 481.070767 481.737278 481.980173
19.370000 479.793662 480.551514 481.527115 481.296925 481.946042 482.161894
19.380000 479.968257 480.654663 481.646370 481.415352 482.064348 482.270111
19.420000 480.429356 481.165451 482.061649 481.838564 482.435003 482.621694
19.430000 480.582739 481.287135 482.185238 481.959396 482.544618 482.731923
19.450000 480.810055 481.525815 482.435441 482.189282 482.762372 482.936373
19.460000 480.978701 481.656741 482.552804 482.313824 482.873878 483.066076
19.470000 481.164369 481.775442 482.680108 482.441257 482.988466 483.159597
19.480000 481.302259 481.913941 482.785987 482.565472 483.103535 483.281848
19.500000 481.614540 482.182118 483.027534 482.809340 483.324577 483.525324
19.510000 481.787560 482.313279 483.161216 482.946982 483.454861 483.682978
19.520000 481.942580 482.451578 483.304443 483.085465 483.585890 483.871606
19.530000 482.118528 482.589690 483.423608 483.221899 483.719397 484.020574
19.540000 482.275002 482.705211 483.555003 483.364352 483.868569 484.224836
19.550000 482.410443 482.845566 483.697108 483.511281 484.037227 484.375406
