depth(m) lower_95(kyr) lower_68(kyr) median(kyr) mean(kyr) upper_68(kyr) upper_95(kyr)
421.000000 300.721347 301.570961 302.571864 302.598184 303.659376 304.435437
421.144928 300.799745 301.685254 302.689506 302.708209 303.774846 304.522439
421.289855 300.903745 301.776107 302.819618 302.828838 303.903758 304.655964
421.434783 300.984306 301.908956 302.936255 302.953822 304.033410 304.824264
421.579710 301.120772 302.022597 303.091589 303.088649 304.162386 304.981456
421.724638 301.254765 302.161656 303.263081 303.233755 304.284190 305.154245
421.869565 301.342374 302.315260 303.395488 303.388167 304.491927 305.350493
422.014493 301.521939 302.504250 303.528948 303.537519 304.664637 305.493710
422.159420 301.644649 302.617322 303.673126 303.689898 304.839482 305.686454
422.304348 301.778813 302.731115 303.828436 303.843006 304.993353 305.880820
422.449275 301.911395 302.868692 303.993936 304.005988 305.175927 306.061740
422.594203 302.080386 303.035979 304.144063 304.166623 305.361398 306.317914
422.739130 302.250078 303.157487 304.302605 304.330644 305.536062 306.509166
422.884058 302.374235 303.285540 304.458523 304.500824 305.728147 306.811981
423.028986 302.474053 303.418931 304.646237 304.668293 305.931069 306.947962
423.173913 302.619935 303.541016 304.833171 304.840551 306.142037 307.179219
423.318841 302.708214 303.693702 305.014098 305.011323 306.339800 307.438666
423.463768 302.808687 303.812593 305.176859 305.180211 306.546848 307.695579
423.608696 302.959067 303.936961 305.329804 305.346139 306.764800 308.022757
423.753623 303.037052 304.054201 305.482294 305.510569 306.944374 308.315708
423.898551 303.172530 304.217007 305.645348 305.676006 307.141876 308.561634
424.043478 303.238473 304.340927 305.793763 305.835334 307.341497 308.771867
424.188406 303.345973 304.482896 305.942950 306.001936 307.553436 308.970853
424.333333 303.414421 304.601207 306.117613 306.170260 307.757928 309.287572
424.478261 303.541119 304.745765 306.281092 306.340448 307.958706 309.498341
424.623188 303.624735 304.840776 306.445974 306.506190 308.168461 309.730201
424.768116 303.711000 304.941566 306.596342 306.673376 308.391820 309.926314
424.913043 303.799549 305.074070 306.765350 306.839415 308.581613 310.242734
425.057971 303.874154 305.197301 306.949269 307.007231 308.832343 310.492408
425.202899 304.008345 305.306554 307.127639 307.180925 309.072296 310.742761
425.347826 304.049842 305.456763 307.266530 307.347636 309.344197 310.967807
425.492754 304.134112 305.549657 307.467890 307.517852 309.521211 311.281373
425.637681 304.340666 305.672117 307.631216 307.685878 309.729404 311.511318
425.782609 304.400365 305.756556 307.810482 307.843737 309.959769 311.872149
425.927536 304.463663 305.871451 307.969348 308.005821 310.165407 311.990626
426.072464 304.526509 305.996856 308.137709 308.172921 310.354529 312.246756
426.217391 304.604890 306.101304 308.326496 308.337826 310.550357 312.476369
426.362319 304.666896 306.210483 308.498027 308.500938 310.845042 312.737703
426.507246 304.803015 306.342106 308.669983 308.671469 311.056115 312.985127
426.652174 304.830256 306.452187 308.814296 308.835554 311.409254 313.316216
426.797101 304.863358 306.568906 309.006584 309.006132 311.559479 313.492798
426.942029 304.925254 306.724734 309.153661 309.179648 311.846297 313.726126
427.086957 304.977999 306.884094 309.353263 309.349655 312.062352 314.010666
427.231884 305.046965 306.980372 309.558887 309.516826 312.289946 314.219853
427.376812 305.109908 307.075736 309.724862 309.680561 312.552578 314.494890
427.521739 305.147093 307.147701 309.883598 309.842865 312.785123 314.687124
427.666667 305.207835 307.292229 310.075190 310.010611 313.084875 314.959798
427.811594 305.273464 307.385574 310.247460 310.174869 313.252649 315.291968
427.956522 305.413298 307.494108 310.424522 310.342478 313.485327 315.646799
428.101449 305.467575 307.573049 310.584896 310.509887 313.682730 315.828278
428.246377 305.498571 307.675262 310.777996 310.675692 313.852477 316.182493
428.391304 305.561698 307.796661 310.983722 310.838444 314.132373 316.461904
428.536232 305.656982 307.909477 311.113139 311.003289 314.338098 316.630421
428.681159 305.747295 308.002616 311.283525 311.164734 314.529229 316.876627
428.826087 305.816634 308.098612 311.436141 311.329315 314.914113 317.173346
428.971014 305.897218 308.240655 311.558709 311.498966 315.159733 317.362675
429.115942 305.978537 308.358447 311.791816 311.667257 315.410890 317.598232
429.260870 306.050056 308.463586 311.976515 311.836710 315.709183 317.807810
429.405797 306.136041 308.610302 312.177954 312.005148 315.813947 318.091916
429.550725 306.217999 308.727638 312.364438 312.169929 315.960092 318.337411
429.695652 306.298243 308.869567 312.544107 312.331361 316.215189 318.531620
429.840580 306.365203 308.972304 312.690196 312.492118 316.498321 318.867095
429.985507 306.434952 309.082896 312.863845 312.653247 316.685756 319.075828
430.130435 306.509390 309.169114 313.018021 312.816321 316.808194 319.308419
430.275362 306.570831 309.304012 313.213459 312.978507 317.101049 319.553747
430.420290 306.679864 309.372762 313.354651 313.137222 317.316652 319.853787
430.565217 306.749948 309.536679 313.527020 313.289097 317.550287 320.029817
430.710145 306.805422 309.653941 313.638429 313.436118 317.748007 320.314186
430.855072 306.949145 309.757460 313.776187 313.586106 317.934655 320.544241
431.000000 307.095389 309.874186 313.892822 313.721478 318.146663 320.671387
431.144928 307.270358 310.035112 314.026257 313.853222 318.335150 320.723299
431.289855 307.331735 310.150605 314.201359 313.980026 318.458858 320.849372
431.434783 307.382740 310.274023 314.298311 314.100991 318.575436 320.977662
431.579710 307.491438 310.401156 314.468888 314.217777 318.635965 321.076821
431.724638 307.617553 310.527956 314.587343 314.332606 318.709655 321.145028
431.869565 307.672387 310.637137 314.671238 314.444914 318.782245 321.207581
432.014493 307.931336 310.770983 314.779090 314.551357 318.868541 321.281468
432.159420 307.991005 310.919997 314.887411 314.656281 318.949223 321.334496
432.304348 308.053812 311.029094 314.997884 314.761958 319.037104 321.400099
432.449275 308.366227 311.141218 315.095391 314.866079 319.108463 321.465608
432.594203 308.462247 311.309235 315.201746 314.968350 319.162408 321.520394
432.739130 308.627909 311.468098 315.289480 315.073888 319.253048 321.570189
432.884058 308.728070 311.612826 315.364911 315.180696 319.302307 321.613496
433.028986 308.888300 311.766139 315.453472 315.283470 319.368012 321.672519
433.173913 309.043796 311.868874 315.543840 315.387377 319.425950 321.723745
433.318841 309.158544 311.993443 315.631974 315.488747 319.488998 321.798152
433.463768 309.231240 312.134642 315.704973 315.594978 319.536422 321.869357
433.608696 309.298886 312.287129 315.804728 315.699056 319.569453 321.956257
433.753623 309.373444 312.373820 315.917136 315.805313 319.601333 322.027820
433.898551 309.638795 312.588166 316.000849 315.910740 319.626955 322.095481
434.043478 309.725044 312.735298 316.080099 316.016849 319.686486 322.149967
434.188406 309.833317 312.896203 316.200208 316.123032 319.752939 322.199279
434.333333 309.985698 313.004233 316.276954 316.224391 319.799584 322.252512
434.478261 310.090795 313.150811 316.380624 316.330928 319.887308 322.299114
434.623188 310.176560 313.298409 316.452170 316.438002 319.933927 322.346289
434.768116 310.254164 313.414271 316.553306 316.546579 320.027970 322.386754
434.913043 310.328020 313.601431 316.654576 316.649331 320.062814 322.465152
435.057971 310.529004 313.697325 316.746530 316.752036 320.116246 322.524509
435.202899 310.627224 313.804005 316.820909 316.855522 320.231904 322.579547
435.347826 310.728515 313.969982 316.935193 316.959893 320.285926 322.644711
435.492754 310.811751 314.079019 317.040286 317.061467 320.330745 322.711902
435.637681 310.874203 314.222581 317.100131 317.168988 320.363882 322.792836
435.782609 311.060663 314.351497 317.189828 317.278245 320.444873 322.842565
435.927536 311.125295 314.505357 317.282645 317.383462 320.539760 322.902435
436.072464 311.297685 314.591704 317.412086 317.493264 320.603907 322.957612
436.217391 311.364111 314.712189 317.509722 317.596626 320.686990 323.039424
436.362319 311.454894 314.878251 317.627381 317.700958 320.741238 323.099616
436.507246 311.599656 315.060936 317.722627 317.806539 320.778238 323.181002
436.652174 311.648831 315.140751 317.830709 317.907166 320.865857 323.245081
436.797101 311.697329 315.216278 317.989298 318.009725 320.927238 323.324285
436.942029 311.772359 315.327283 318.110383 318.111260 321.040791 323.392406
437.086957 311.861589 315.478635 318.207088 318.216543 321.225250 323.469250
437.231884 311.946622 315.596650 318.295506 318.320661 321.338310 323.522524
437.376812 312.055538 315.706011 318.403553 318.425810 321.429709 323.604953
437.521739 312.124249 315.831823 318.568925 318.533164 321.490144 323.632484
437.666667 312.189350 315.961981 318.707284 318.636461 321.535436 323.682224
437.811594 312.268007 316.124973 318.810586 318.735785 321.619875 323.744203
437.956522 312.404257 316.258557 318.931754 318.838868 321.711757 323.796455
438.101449 312.483877 316.373451 319.036655 318.942552 321.754962 323.891993
438.246377 312.730571 316.477481 319.160121 319.046572 321.850463 323.966997
438.391304 312.814952 316.563100 319.255730 319.154887 321.938175 324.037447
438.536232 312.875332 316.676519 319.391625 319.263818 322.020175 324.109123
438.681159 312.938451 316.788327 319.495526 319.370410 322.109955 324.157902
438.826087 313.078736 316.898841 319.597996 319.475379 322.215552 324.242936
438.971014 313.184992 317.028404 319.696026 319.578422 322.311021 324.309364
439.115942 313.298881 317.104472 319.821968 319.684924 322.389390 324.379021
439.260870 313.390725 317.205156 319.926476 319.786394 322.468463 324.433798
439.405797 313.427342 317.320222 320.009920 319.888586 322.534491 324.521979
439.550725 313.503607 317.400683 320.111913 319.990669 322.616368 324.603581
439.695652 313.614031 317.473715 320.222155 320.093141 322.687708 324.684298
439.840580 313.798450 317.542441 320.346017 320.201656 322.754546 324.743833
439.985507 313.905114 317.714789 320.443160 320.304168 322.856023 324.811683
440.130435 314.013862 317.777611 320.543499 320.403834 322.944993 324.962791
440.275362 314.131789 317.892766 320.657059 320.505567 323.020312 325.058219
440.420290 314.215187 317.994928 320.766623 320.603910 323.096025 325.148174
440.565217 314.312175 318.051190 320.871943 320.702233 323.161925 325.192990
440.710145 314.388108 318.162446 320.962148 320.795449 323.248203 325.252051
440.855072 314.553530 318.264258 321.065509 320.893982 323.319772 325.317459
441.000000 314.678221 318.407321 321.159277 320.986171 323.388592 325.397557
441.144928 314.892047 318.544216 321.253843 321.073896 323.485027 325.463803
441.289855 315.055422 318.616400 321.349420 321.160184 323.557325 325.509823
441.434783 315.109489 318.687514 321.438367 321.245001 323.618793 325.544177
441.579710 315.273455 318.803243 321.507997 321.326680 323.688370 325.594134
441.724638 315.432480 318.907196 321.578688 321.410009 323.754291 325.703505
441.869565 315.563039 319.000949 321.673655 321.492756 323.827748 325.764256
442.014493 315.700093 319.092217 321.752120 321.574451 323.881396 325.803291
442.159420 315.881817 319.182495 321.819049 321.651496 323.931241 325.835282
442.304348 316.055768 319.291183 321.903763 321.731605 324.005250 325.869294
442.449275 316.144326 319.383471 321.969824 321.806783 324.051349 325.912697
442.594203 316.321627 319.485976 322.056081 321.887108 324.119986 325.954395
442.739130 316.475114 319.589727 322.127475 321.965636 324.184726 326.007932
442.884058 316.559577 319.686920 322.215779 322.041775 324.250252 326.050771
443.028986 316.708102 319.801212 322.292436 322.115460 324.303318 326.106394
443.173913 316.826480 319.908585 322.348353 322.192136 324.353089 326.170048
443.318841 317.018628 320.049957 322.423358 322.271914 324.418946 326.201838
443.463768 317.089924 320.139056 322.490822 322.349051 324.491176 326.263438
443.608696 317.339845 320.280060 322.548787 322.425834 324.550221 326.376339
443.753623 317.484692 320.361136 322.621693 322.505236 324.620832 326.407252
443.898551 317.622528 320.477118 322.696793 322.583994 324.680062 326.470584
444.043478 317.803930 320.564419 322.771337 322.662626 324.756602 326.527680
444.188406 317.865461 320.670933 322.849351 322.739619 324.836452 326.575993
444.333333 317.989654 320.752822 322.923877 322.816420 324.891373 326.628836
444.478261 318.151606 320.832040 322.993814 322.895107 324.967504 326.687976
444.623188 318.295051 320.914232 323.076278 322.972634 325.041566 326.729242
444.768116 318.400324 321.002875 323.142565 323.051359 325.120156 326.778681
444.913043 318.573823 321.096447 323.216653 323.129076 325.176159 326.835053
445.057971 318.677149 321.165576 323.285735 323.205390 325.229741 326.913034
445.202899 318.836878 321.326822 323.361581 323.281348 325.291135 326.983918
445.347826 318.958952 321.415344 323.424514 323.359376 325.364690 327.049566
445.492754 319.099255 321.523656 323.492543 323.436931 325.417616 327.146128
445.637681 319.223830 321.627587 323.561836 323.512512 325.482853 327.226114
445.782609 319.486325 321.736911 323.619786 323.591531 325.565341 327.275819
445.927536 319.562224 321.840240 323.705890 323.673401 325.599422 327.332738
446.072464 319.726711 321.942769 323.768444 323.749976 325.678993 327.405336
446.217391 319.807568 322.035430 323.860959 323.827025 325.732252 327.468631
446.362319 319.931680 322.099299 323.943336 323.902645 325.785327 327.601754
446.507246 320.091521 322.198242 324.030760 323.980247 325.847006 327.683748
446.652174 320.210801 322.274629 324.102624 324.059728 325.912790 327.791077
446.797101 320.323672 322.353345 324.171636 324.139562 325.982758 327.852633
446.942029 320.381124 322.449113 324.240642 324.217829 326.042718 327.915765
447.086957 320.479925 322.569593 324.305706 324.299972 326.112841 327.982205
447.231884 320.604471 322.645500 324.376631 324.377315 326.184157 328.012903
447.376812 320.662074 322.740763 324.433312 324.450866 326.252890 328.076215
447.521739 320.828664 322.846315 324.500730 324.526669 326.323168 328.141303
447.666667 321.042104 322.895403 324.556578 324.604410 326.386218 328.214096
447.811594 321.138981 322.978554 324.636235 324.680885 326.457099 328.251043
447.956522 321.216784 323.082637 324.713212 324.756720 326.512034 328.331735
448.101449 321.317140 323.164696 324.806341 324.834101 326.549799 328.380741
448.246377 321.406455 323.250403 324.879149 324.911870 326.609781 328.445344
448.391304 321.498050 323.309462 324.969520 324.988603 326.685058 328.511359
448.536232 321.600502 323.436460 325.051937 325.066665 326.740502 328.595734
448.681159 321.672282 323.543919 325.115429 325.144368 326.789907 328.685132
448.826087 321.802306 323.620888 325.191005 325.222262 326.861786 328.747742
448.971014 321.854894 323.705673 325.282076 325.299010 326.927904 328.824624
449.115942 321.954047 323.769897 325.359700 325.374136 326.997869 328.900950
449.260870 322.057897 323.838597 325.433248 325.452953 327.047998 328.968415
449.405797 322.114887 323.947551 325.529757 325.531133 327.123294 329.025854
449.550725 322.285069 324.030004 325.599339 325.610898 327.206663 329.166599
449.695652 322.352828 324.096080 325.673496 325.688180 327.268972 329.241570
449.840580 322.407832 324.196599 325.732251 325.767179 327.323611 329.315274
449.985507 322.472351 324.303117 325.794152 325.843566 327.378330 329.404719
450.130435 322.555273 324.385511 325.862354 325.919380 327.426185 329.457495
450.275362 322.642827 324.457158 325.919551 325.993375 327.525906 329.514451
450.420290 322.694345 324.609591 325.990664 326.067176 327.568340 329.564643
450.565217 322.773778 324.699979 326.068424 326.143568 327.643262 329.590738
450.710145 322.872947 324.751551 326.135954 326.215167 327.692693 329.638875
450.855072 322.965623 324.818521 326.200524 326.286566 327.781661 329.673083
451.000000 323.046868 324.913642 326.266735 326.356565 327.841382 329.713078
451.144928 323.124502 324.992594 326.351001 326.426256 327.898124 329.787431
451.289855 323.198763 325.064580 326.416622 326.496779 327.997171 329.846704
451.434783 323.279253 325.122227 326.478563 326.563202 328.064279 329.895027
451.579710 323.349055 325.200764 326.539138 326.630360 328.127155 329.946681
451.724638 323.423504 325.285415 326.610240 326.696514 328.195170 330.026574
451.869565 323.523603 325.356617 326.665750 326.764490 328.271680 330.088213
452.014493 323.609650 325.423967 326.735539 326.832095 328.337904 330.126897
452.159420 323.669344 325.477954 326.803983 326.899335 328.401903 330.177566
452.304348 323.743191 325.580347 326.862929 326.964974 328.446013 330.232442
452.449275 323.830535 325.618226 326.941936 327.031836 328.500747 330.302116
452.594203 323.901224 325.687542 327.002366 327.097581 328.560332 330.366702
452.739130 323.988285 325.750514 327.077516 327.163426 328.606219 330.426871
452.884058 324.072954 325.801160 327.133688 327.228420 328.667467 330.470159
453.028986 324.211042 325.857111 327.200089 327.294513 328.740975 330.514928
453.173913 324.281922 325.895295 327.272067 327.358792 328.804321 330.590055
453.318841 324.365925 325.963012 327.336564 327.423729 328.879888 330.652232
453.463768 324.421088 326.029026 327.405358 327.490235 328.948890 330.720937
453.608696 324.495981 326.067964 327.477298 327.556409 329.019446 330.771267
453.753623 324.571118 326.155239 327.550319 327.622671 329.097613 330.831838
453.898551 324.650077 326.229751 327.611247 327.688918 329.160535 330.872159
454.043478 324.735355 326.302756 327.675865 327.754987 329.204130 330.931809
454.188406 324.852742 326.381705 327.750862 327.819165 329.247930 330.972252
454.333333 324.923849 326.464323 327.825171 327.883569 329.316470 331.020578
454.478261 324.992960 326.532073 327.890879 327.947760 329.402213 331.120600
454.623188 325.081349 326.586172 327.961719 328.011922 329.463606 331.181060
454.768116 325.189191 326.645104 328.030932 328.078106 329.507506 331.281279
454.913043 325.263279 326.720284 328.097211 328.144715 329.601891 331.338850
455.057971 325.381223 326.791870 328.153824 328.211625 329.666198 331.403917
455.202899 325.462813 326.859762 328.207491 328.276759 329.715795 331.455629
455.347826 325.565691 326.937469 328.280968 328.342162 329.785359 331.520819
455.492754 325.694050 327.024792 328.347889 328.410344 329.834319 331.603735
455.637681 325.767131 327.102152 328.424161 328.475733 329.910930 331.679112
455.782609 325.841803 327.156194 328.494164 328.540067 329.994605 331.742371
455.927536 325.912735 327.227318 328.552950 328.604720 330.038325 331.810793
456.072464 325.982700 327.281648 328.603690 328.668811 330.091799 331.890334
456.217391 326.058105 327.361876 328.666132 328.735460 330.141496 331.961558
456.362319 326.118238 327.421545 328.723937 328.800659 330.198510 332.051734
456.507246 326.203668 327.477852 328.786288 328.865609 330.258339 332.142935
456.652174 326.293964 327.551319 328.860531 328.928722 330.333276 332.200226
456.797101 326.365514 327.622991 328.927550 328.993876 330.386361 332.281479
456.942029 326.433075 327.678962 328.992887 329.058916 330.460872 332.371490
457.086957 326.524052 327.734986 329.056284 329.125219 330.532695 332.449515
457.231884 326.591994 327.783359 329.131346 329.191917 330.590779 332.485805
457.376812 326.644728 327.844072 329.198195 329.256692 330.658543 332.553557
457.521739 326.706974 327.910038 329.265090 329.319856 330.740023 332.664608
457.666667 326.769022 327.961048 329.331913 329.384475 330.808730 332.736043
457.811594 326.833467 328.029877 329.397001 329.448894 330.877473 332.804687
457.956522 326.905939 328.076895 329.466493 329.512418 330.940921 332.874960
458.101449 326.978263 328.150755 329.535593 329.578446 331.016487 332.915034
458.246377 327.057977 328.215024 329.603418 329.644083 331.073048 332.981321
