depth(m) lower_95(kyr) lower_68(kyr) median(kyr) mean(kyr) upper_68(kyr) upper_95(kyr)
56.235000 302.896273 303.751751 304.707501 304.726137 305.671082 306.476766
56.360000 303.675373 304.662417 305.738876 305.810030 306.884775 308.554975
56.485000 304.390143 305.531595 306.780732 306.923952 308.287766 310.912386
56.610000 305.051798 306.423768 307.843482 308.015727 309.535692 312.209036
56.735000 306.126858 307.460678 309.009331 309.159828 310.782875 313.352200
56.860000 307.046741 308.417899 310.212423 310.385542 312.408731 315.224553
56.985000 307.740337 309.472601 311.412064 311.604205 313.837680 316.277863
57.110000 308.768834 310.651394 312.681774 312.880030 315.266757 317.602191
57.235000 309.787862 311.642770 313.870657 314.049559 316.471656 318.867901
57.372500 310.914192 312.865747 315.209787 315.316015 317.733550 319.563687
57.510000 312.192930 314.287128 316.643140 316.608530 318.924916 320.900945
57.647500 313.611444 315.828826 318.041274 317.925045 320.022857 321.774517
57.785000 315.212151 317.421811 319.379995 319.238127 321.124724 322.382330
57.885000 316.132082 318.508919 320.255791 320.116067 321.820707 323.032711
57.985000 317.739016 319.513695 321.150203 321.011669 322.475692 323.823506
58.085000 319.083204 320.807499 322.090043 322.043719 323.286326 324.793213
58.185000 320.506634 321.878504 323.074771 323.067751 324.291007 325.588509
58.285000 321.847482 323.076193 324.330165 324.331295 325.569402 326.898582
58.385000 323.072876 324.348784 325.546612 325.535823 326.710955 328.025368
58.485000 323.848833 325.201115 326.506763 326.451185 327.640928 328.889235
58.585000 324.995102 326.076246 327.356692 327.331524 328.521501 329.765282
58.685000 325.764433 326.816965 328.085706 328.097103 329.361649 330.475986
58.785000 326.515229 327.666325 328.850440 328.858189 330.085589 331.279178
58.885000 327.340539 328.413454 329.623268 329.637502 330.892634 331.973843
58.985000 327.954327 329.183769 330.526295 330.480338 331.767552 332.831403
59.085000 328.703567 329.939185 331.304960 331.267204 332.577707 333.561693
59.185000 329.625970 330.963367 332.251748 332.213693 333.461929 334.583273
59.285000 330.701432 331.922352 333.188304 333.177392 334.377210 335.613066
59.385000 331.758136 332.925038 334.198376 334.179394 335.461215 336.669409
59.485000 332.714356 333.800952 335.143403 335.142403 336.447141 337.494055
59.618333 333.802122 335.051560 336.283242 336.285025 337.579774 338.704852
59.751667 334.973696 336.257058 337.474801 337.462982 338.669651 339.619194
59.885000 336.335133 337.359811 338.600618 338.550063 339.651257 340.575601
59.985000 337.080248 338.154307 339.389694 339.283687 340.324234 341.263723
60.085000 337.726245 338.930988 339.989322 339.971085 340.973447 341.905188
60.185000 338.476729 339.583310 340.591074 340.561341 341.541001 342.443670
60.285000 339.065445 340.155409 341.129495 341.117391 342.105222 342.946768
60.410000 339.817205 340.861569 341.759436 341.769465 342.696378 343.545763
60.535000 340.509008 341.533770 342.368052 342.404692 343.347005 344.123429
60.635000 340.955979 342.014248 342.882289 342.898676 343.805235 344.576498
60.735000 341.598038 342.506146 343.367166 343.397403 344.298847 345.053277
60.835000 342.122424 343.046093 343.867920 343.898987 344.779715 345.636781
60.935000 342.652636 343.557428 344.410248 344.413950 345.264937 346.169029
61.035000 343.184788 344.077436 344.966816 344.958305 345.821967 346.894184
61.135000 343.564444 344.615826 345.490746 345.515646 346.425912 347.506693
61.235000 344.092699 345.160312 346.061883 346.091933 347.026532 348.289785
61.335000 344.578153 345.687760 346.638748 346.689920 347.704189 349.256019
61.460000 345.278770 346.349578 347.312382 347.420414 348.481813 350.256944
61.585000 345.920963 346.994853 348.003945 348.151947 349.243811 351.129098
61.710000 346.716867 347.715023 348.729159 348.879771 350.055161 351.989521
61.835000 347.501361 348.406007 349.472291 349.627756 350.864283 352.788274
61.935000 348.084059 348.981487 350.109117 350.269338 351.544513 353.593164
62.035000 348.599478 349.550010 350.750947 350.920673 352.228242 354.241027
62.135000 349.138206 350.139126 351.420770 351.549037 352.959995 354.697970
62.235000 349.767986 350.718333 352.037775 352.203279 353.664739 355.367368
62.335000 350.268087 351.359164 352.739881 352.836976 354.311332 356.071145
62.435000 350.884603 352.062265 353.378619 353.466701 354.952139 356.657511
62.535000 351.339093 352.598391 353.946906 354.039364 355.572754 357.132506
62.635000 351.868641 353.179663 354.577670 354.618055 356.174570 357.587373
62.735000 352.289791 353.731807 355.176657 355.200420 356.700151 358.086098
62.835000 352.782052 354.288111 355.787344 355.759874 357.284558 358.624047
62.935000 353.267495 354.912826 356.331730 356.326602 357.857097 359.102506
63.035000 353.722162 355.504530 356.893219 356.893568 358.420118 359.592665
63.135000 354.315724 356.087843 357.485598 357.459315 359.012842 360.122312
63.235000 354.727557 356.655246 358.019599 358.003734 359.542009 360.607317
63.335000 355.354247 357.163574 358.591514 358.529186 360.019967 361.046147
63.435000 355.999101 357.715641 359.137933 359.056009 360.517252 361.533184
63.535000 356.540056 358.215237 359.675833 359.576713 361.031660 361.970915
63.635000 356.959010 358.731634 360.173742 360.075185 361.508059 362.451395
63.735000 357.473896 359.264745 360.682280 360.562986 361.942691 362.945921
63.835000 358.147988 359.787590 361.220321 361.067398 362.427085 363.352593
63.935000 358.838183 360.269483 361.701817 361.572512 362.902727 363.767218
64.035000 359.283063 360.795428 362.226574 362.092127 363.349233 364.251709
64.135000 359.817640 361.288763 362.745723 362.617470 363.894946 364.712012
64.235000 360.258384 361.805221 363.243757 363.125331 364.369863 365.208569
64.335000 360.918227 362.306101 363.792145 363.639987 364.923411 365.737486
64.435000 361.689778 362.849610 364.306291 364.172410 365.422577 366.397902
64.535000 362.265804 363.438365 364.839320 364.732890 365.940357 366.990239
64.635000 362.779350 364.028637 365.383826 365.306567 366.487995 367.670742
64.735000 363.303794 364.631712 365.978697 365.904911 367.078444 368.239541
64.835000 363.855856 365.209738 366.605880 366.531379 367.810240 368.850409
64.935000 364.491795 365.926388 367.181701 367.163555 368.495249 369.623450
65.035000 365.019157 366.508116 367.779447 367.795321 369.147583 370.508901
65.135000 365.561925 367.051611 368.400742 368.419645 369.774976 371.166909
65.235000 366.085676 367.646390 369.022823 369.051465 370.512275 371.859582
65.335000 366.457113 368.212262 369.678445 369.674879 371.245822 372.590827
65.435000 366.910283 368.779972 370.315685 370.312903 371.954779 373.391400
65.535000 367.385455 369.325604 370.978989 370.950085 372.601152 374.090429
65.635000 367.987950 369.850533 371.577815 371.568674 373.265809 374.736976
65.735000 368.759359 370.508027 372.290956 372.219216 373.900609 375.400537
65.835000 369.239006 371.114065 372.931683 372.838153 374.494673 376.114992
65.935000 369.841315 371.704749 373.598079 373.485460 375.165207 376.803757
66.035000 370.382462 372.449543 374.217237 374.128607 375.775051 377.787551
66.135000 370.934600 373.099260 374.865726 374.773087 376.402638 378.383730
66.235000 371.520173 373.739875 375.498043 375.411597 377.056375 379.257805
66.335000 372.042694 374.362833 376.068965 376.010312 377.546621 379.704271
66.460000 372.628915 375.143600 376.796618 376.767149 378.392777 380.450492
66.585000 373.472529 375.956879 377.507958 377.540135 379.262452 381.249140
66.685000 374.289935 376.505175 378.091979 378.144719 379.887370 381.847500
66.785000 374.862382 377.042497 378.680590 378.744765 380.547391 382.397195
66.885000 375.380300 377.646999 379.210963 379.341085 381.272018 383.073961
66.985000 376.099018 378.161936 379.779718 379.944872 381.997980 383.725403
67.085000 376.731534 378.807863 380.449094 380.588753 382.693146 384.323663
67.185000 377.360444 379.469987 381.065963 381.250847 383.399646 384.931521
67.285000 377.967913 380.141698 381.750673 381.920908 384.047643 385.549846
67.385000 379.047445 380.792941 382.426316 382.621973 384.706024 386.342159
67.485000 379.690850 381.505918 383.173704 383.346657 385.388188 386.958763
67.585000 380.530015 382.336321 383.977217 384.121028 386.145052 387.805895
67.685000 381.145524 383.090449 384.797374 384.899443 386.852678 388.481959
67.810000 382.171332 384.092938 385.935188 385.954526 387.814477 389.668997
67.935000 383.417798 385.148878 387.164515 387.080715 388.875301 390.472911
68.060000 384.616291 386.352014 388.305561 388.214300 390.030750 391.607064
68.185000 386.120194 387.597871 389.444561 389.370417 391.069615 392.779006
68.285000 386.960001 388.606540 390.295988 390.287889 391.978736 393.614136
68.385000 388.093776 389.650979 391.192796 391.204659 392.766835 394.391713
68.485000 389.134392 390.656946 392.107246 392.115905 393.604888 395.245329
68.585000 390.472230 391.771419 393.113861 393.154501 394.548005 396.224002
68.685000 391.578637 393.035291 394.560581 394.576727 396.069951 397.856366
68.785000 393.306129 394.638198 396.094615 396.100719 397.544158 399.164587
68.918333 394.821366 396.280840 398.066164 398.129168 399.938395 401.619980
69.051667 396.753459 398.355496 400.240437 400.186253 401.907468 403.625128
69.185000 399.015933 400.770388 402.253619 402.199041 403.598085 405.312364
69.285000 400.096781 401.860960 403.258067 403.218848 404.601322 406.245213
69.385000 401.530799 402.880239 404.139077 404.203139 405.637725 407.110161
69.485000 402.379578 403.624053 405.028356 405.120269 406.635475 408.411294
69.585000 403.065081 404.440511 405.940655 406.041411 407.645780 409.566890
69.715000 404.223040 405.628315 407.239063 407.377349 409.262857 411.063319
69.845000 405.353010 406.863387 408.587472 408.769587 410.718936 412.757718
69.975000 406.544161 408.203807 410.078971 410.156853 412.040891 414.165794
70.105000 407.899587 409.701125 411.485628 411.549845 413.474394 415.601053
70.235000 409.740986 411.261030 412.811879 412.957787 414.645074 416.911399
70.335000 410.948833 412.632605 414.195291 414.291308 415.869287 418.000770
70.435000 412.606226 414.134239 415.597739 415.698947 417.243861 419.309016
70.535000 413.929015 415.284247 416.758140 416.930814 418.637806 420.566414
70.635000 415.168434 416.493641 417.994798 418.138730 419.831119 421.703826
70.735000 416.494611 417.928651 419.442790 419.469331 421.060345 422.636622
70.835000 417.961398 419.253162 420.706400 420.719693 422.115980 423.792560
70.935000 418.810596 420.301431 421.678704 421.692701 423.101080 424.588852
71.035000 419.819021 421.105135 422.590357 422.559446 424.007130 425.331555
71.135000 420.664541 421.891076 423.312718 423.344204 424.811404 425.981611
71.235000 421.328142 422.619514 424.064227 424.098590 425.569486 426.666818
71.335000 422.031357 423.421468 424.815822 424.799233 426.253169 427.339695
71.435000 422.771516 424.114117 425.540347 425.487108 426.888118 428.064358
71.535000 423.387233 424.769754 426.208155 426.177161 427.591405 428.636659
71.668333 424.616285 425.864089 427.409530 427.311117 428.734302 429.580914
71.801667 425.742839 427.121281 428.607627 428.456674 429.778531 430.399000
71.935000 426.914339 428.418699 429.805971 429.593702 430.663097 431.243767
72.035000 427.790630 429.071897 430.594938 430.294316 431.201630 431.814116
72.135000 428.722529 429.875834 431.226665 430.962008 431.741270 432.411631
72.235000 429.353925 430.678186 431.844172 431.569870 432.216812 433.315434
72.335000 429.901445 431.492011 432.378812 432.134733 432.662235 433.968313
72.435000 430.387619 432.339447 432.884226 432.698152 433.084710 434.565235
72.535000 430.915353 433.379814 433.396412 433.249428 433.408314 434.948418
72.535500 430.918315 433.383010 433.398939 433.252293 433.411397 434.954531
72.635250 431.286008 433.596799 433.824683 433.692150 433.985913 435.445656
72.735000 431.683858 433.936791 434.212885 434.117382 434.485681 435.814160
72.835000 432.140475 434.290189 434.623314 434.548186 434.979368 436.185552
72.935000 432.596862 434.652471 435.032031 434.975322 435.441939 436.631632
73.035000 433.104133 435.032884 435.448929 435.403852 435.930264 437.088444
73.177857 433.712094 435.495912 436.013707 435.980869 436.595899 437.629675
73.320714 434.266350 435.986282 436.590981 436.551156 437.194872 438.311592
73.463571 434.900312 436.515360 437.139892 437.131039 437.806595 438.956123
73.606429 435.611457 437.012878 437.693128 437.690286 438.442114 439.497598
73.749286 436.281773 437.544548 438.249598 438.267368 439.094575 440.133021
73.892143 436.833350 438.042697 438.806632 438.843299 439.728968 440.741555
74.035000 437.372692 438.563402 439.390989 439.413292 440.313736 441.345259
74.168333 437.995630 439.072794 439.944785 439.964810 440.891928 441.984052
74.301667 438.549204 439.619043 440.446816 440.530440 441.502177 442.689772
74.435000 439.074983 440.198639 441.037818 441.104194 442.064968 443.374130
74.510000 439.527563 440.534369 441.410958 441.473268 442.464804 443.890256
74.585000 439.920431 440.887936 441.807001 441.855469 442.864614 444.304552
74.705000 440.433669 441.436027 442.383112 442.465550 443.468730 445.103034
74.825000 440.941334 441.999477 442.956760 443.080984 444.210198 445.987732
74.945000 441.524351 442.566269 443.508909 443.702721 444.893100 447.044989
75.065000 442.124392 443.132674 444.078101 444.323340 445.675221 447.861749
75.185000 442.619230 443.763534 444.708861 444.979427 446.388521 448.770848
75.285000 443.351403 444.221268 445.248425 445.557925 447.041622 449.344153
75.385000 443.755685 444.744926 445.831236 446.145197 447.768207 450.010105
75.485000 444.308916 445.253473 446.390402 446.755715 448.376474 450.976969
75.585000 444.846478 445.705372 447.010909 447.361834 449.091713 451.559925
75.685000 445.432528 446.272779 447.654105 447.991383 449.797165 452.207613
75.785000 445.967348 446.812029 448.378415 448.679751 450.564144 452.780400
75.885000 446.507318 447.389135 449.121413 449.353005 451.256677 453.592567
75.985000 446.966315 448.024351 449.774411 450.024441 452.113929 454.371591
76.085000 447.441103 448.595654 450.505211 450.714796 452.913160 454.843999
76.218333 448.161883 449.441979 451.597801 451.654543 453.906694 455.670012
76.351667 448.834727 450.398508 452.590045 452.551713 454.763035 456.491729
76.485000 449.373953 451.217417 453.540401 453.450002 455.657695 457.216847
76.618333 449.954624 452.012758 454.509832 454.336852 456.398762 457.922803
76.751667 450.596065 452.889318 455.478689 455.218373 457.166494 458.860292
76.885000 451.393776 453.921514 456.429351 456.129090 458.005530 459.625783
76.985000 452.014898 454.648287 457.094600 456.798082 458.647719 460.120540
77.085000 452.549163 455.377252 457.726235 457.413574 459.203987 460.780423
77.185000 453.110724 456.120848 458.409601 458.056815 459.733288 461.361684
77.285000 453.701646 456.784427 459.053323 458.678850 460.271873 462.030240
77.385000 454.523982 457.388154 459.577296 459.279716 460.876640 462.546497
77.518333 455.245723 458.183890 460.324840 460.073966 461.754398 463.678276
77.651667 455.941544 459.031648 461.097967 460.849749 462.474159 464.560413
77.785000 456.729985 459.929664 461.794390 461.610334 463.233532 465.434462
77.885000 457.542687 460.514513 462.351085 462.218886 463.910882 465.947898
77.985000 458.065038 461.311389 462.900193 462.834887 464.553788 466.628365
78.085000 458.739852 461.931481 463.469505 463.434682 465.135695 467.242548
78.185000 459.606178 462.697231 464.042518 464.046852 465.728681 467.838823
78.285000 460.354605 463.247369 464.626504 464.642969 466.328059 468.295732
78.385000 460.953550 463.852979 465.205386 465.230030 466.888757 468.876037
78.485000 461.718737 464.325392 465.751484 465.794885 467.445642 469.481833
78.585000 462.222578 464.833624 466.352658 466.361161 468.049733 469.954759
78.685000 462.864153 465.404202 466.909464 466.929812 468.681153 470.558591
78.785000 463.601764 465.994669 467.450605 467.524743 469.292004 471.257466
78.885000 464.062929 466.552676 468.042058 468.122009 469.977932 471.767327
78.985000 464.621354 467.099127 468.716546 468.735672 470.646834 472.283381
79.085000 465.359932 467.691058 469.305724 469.361188 471.260531 473.027699
79.185000 466.099418 468.303649 469.983548 470.040361 471.978535 473.651941
79.285000 466.809395 468.943067 470.618933 470.699736 472.686643 474.392983
79.385000 467.452171 469.595891 471.301347 471.402109 473.388692 475.017406
79.485000 467.981085 470.252792 472.059279 472.128216 474.192778 475.784437
79.585000 468.813607 470.868220 472.905007 472.879421 474.915429 476.571692
79.685000 469.563991 471.663216 473.786590 473.693226 475.726946 477.455134
79.760000 470.267194 472.275819 474.506336 474.334755 476.308222 478.080663
79.835000 470.776698 473.026583 475.179502 475.028481 477.040575 478.702458
79.925000 471.785000 473.937309 476.156365 475.959765 477.891013 479.591052
80.015000 472.643039 474.965049 477.116715 476.937840 478.749438 480.562810
80.121667 474.052842 476.334108 478.351549 478.317948 480.258142 482.144932
80.228333 475.488412 477.867033 479.835424 479.778994 481.727224 483.621728
80.335000 476.934761 479.285002 481.223187 481.143096 483.057011 484.677026
80.435000 478.140262 480.505669 482.497176 482.359733 484.259227 485.785394
80.535000 479.742490 481.740587 483.641917 483.553141 485.374264 486.760012
80.635000 481.059345 483.092729 484.856234 484.767997 486.451845 487.851428
80.735000 482.246767 484.348429 486.105722 485.963879 487.538323 488.918178
80.835000 483.710593 485.467014 487.156518 486.971801 488.454824 489.748671
80.935000 484.769194 486.414652 487.971748 487.852502 489.275820 490.604177
81.035000 485.614884 487.255132 488.690152 488.623457 489.940454 491.352225
81.135000 486.372088 488.105897 489.354769 489.345309 490.601159 492.130477
81.235000 487.183539 488.800502 490.000935 490.005514 491.283431 492.850926
81.335000 488.001374 489.422175 490.625922 490.646120 491.876959 493.443216
81.435000 488.674387 489.982688 491.236348 491.269673 492.504124 494.146222
81.535000 489.201897 490.572696 491.838050 491.891476 493.188024 494.850671
81.635000 489.850928 491.189721 492.458308 492.550109 493.923625 495.821743
81.735000 490.520281 491.830066 493.098797 493.267488 494.871628 496.722410
81.835000 491.262559 492.456093 493.835880 493.997837 495.796870 497.528283
81.935000 491.976882 493.181241 494.580256 494.775558 496.556703 498.497745
82.035000 492.550973 493.803334 495.361464 495.568022 497.382469 499.431747
82.135000 493.092894 494.482789 496.112047 496.308146 498.216554 500.275411
82.235000 493.791612 495.210354 496.878135 497.065873 498.942782 501.078389
82.335000 494.431586 495.925888 497.792940 497.832690 499.730867 501.759623
82.435000 495.280725 496.579737 498.657566 498.605700 500.555454 502.439015
82.535000 495.922866 497.291600 499.434431 499.374501 501.276493 503.075086
82.635000 496.664487 498.018468 500.201863 500.151493 502.057803 503.918997
82.735000 497.306130 498.840553 501.032142 500.998828 502.938648 504.839552
82.835000 498.174326 499.767272 501.903534 501.824682 503.690871 505.686089
82.935000 498.894768 500.676420 502.717325 502.667675 504.579716 506.278345
83.035000 499.710757 501.701799 503.598779 503.533574 505.367883 506.979308
83.135000 500.444756 502.626943 504.479770 504.402982 506.264213 507.907127
83.235000 501.633858 503.660140 505.260006 505.308726 507.163405 508.781348
83.335000 502.680000 504.540043 506.166806 506.209173 507.931981 509.619176
83.435000 503.603464 505.412839 507.000282 507.087303 508.857157 510.400853
83.535000 504.402034 506.305727 507.885847 507.952575 509.718390 511.155150
83.635000 505.309532 507.224724 508.898728 508.896103 510.616863 512.057055
83.735000 506.506167 508.122318 509.831385 509.764300 511.391461 512.948260
83.868333 507.349173 509.084567 510.900897 510.785367 512.385584 514.044725
84.001667 508.224265 510.070680 511.882373 511.799015 513.436865 514.892178
84.135000 509.229738 511.118019 512.932227 512.804671 514.412680 515.814239
