depth(m) lower_95(kyr) lower_68(kyr) median(kyr) mean(kyr) upper_68(kyr) upper_95(kyr)
5.420000 298.793667 299.653423 300.508679 300.531805 301.429198 302.310465
5.470000 301.135861 302.156272 303.880855 304.130523 305.996483 309.047263
5.500000 302.630358 304.021056 306.376762 306.599592 309.008389 312.731275
5.630000 311.644523 315.534075 320.067540 319.261023 322.305833 323.707154
5.670000 315.638582 320.192131 323.234987 322.508717 324.754903 326.389902
5.730000 321.889550 323.730363 325.757659 325.683874 327.653567 329.290306
5.770000 323.893571 325.776677 327.679917 327.620554 329.510901 330.982001
5.830000 326.806673 328.731379 330.468206 330.358365 331.966788 333.236882
5.870000 329.206518 330.675312 332.262748 332.145200 333.566367 334.665352
5.970000 332.715155 334.042951 335.282526 335.246657 336.400779 337.612397
6.030000 334.863625 336.040562 337.207321 337.202303 338.296894 339.449497
6.080000 336.846672 337.937830 339.130579 339.118359 340.218245 341.319497
6.130000 339.050120 340.308155 341.790174 341.916316 343.590550 345.709724
6.170000 340.727102 341.980983 343.772222 344.108641 346.263951 349.008063
6.230000 343.404608 344.728858 346.591057 347.094029 349.514903 353.624176
6.270000 345.258756 346.728264 348.898089 349.382208 352.004450 357.451269
6.330000 348.118932 350.139907 352.764965 353.341509 356.896755 361.029912
6.370000 350.044286 352.279918 355.326233 355.742080 359.495794 363.057420
6.430000 352.804592 355.524771 359.177429 359.131178 362.802754 365.494675
6.470000 355.086909 358.200978 361.806637 361.515585 364.681476 367.259275
6.530000 358.590894 362.478655 365.178499 364.915063 367.370580 369.851101
6.570000 361.693739 364.943741 367.480619 367.266426 369.553065 372.155014
6.630000 365.303862 368.218316 370.556872 370.502778 372.872050 375.607634
6.670000 367.368017 369.943917 372.429070 372.329240 374.778524 377.457041
6.730000 369.712481 372.492932 375.030150 374.980715 377.486794 380.023885
6.770000 371.446825 374.414164 377.048109 376.965954 379.550349 382.021934
6.830000 374.586363 377.293030 379.823349 379.911732 382.671462 385.302803
6.870000 376.341844 379.027220 381.848290 381.848932 384.784442 387.132700
6.930000 379.156960 381.743764 384.873884 384.829220 387.887745 390.225194
6.970000 381.070300 383.742870 387.316184 387.074167 390.261013 391.994469
7.010000 383.300675 385.908943 389.743651 389.255754 392.368448 393.633330
7.070000 387.218967 389.815312 393.349985 392.800047 395.234667 396.961773
7.160000 393.076662 395.300470 397.258098 397.536739 399.234600 404.419847
7.210000 395.364293 397.724240 399.621185 400.137429 402.003088 411.625212
7.260000 400.624739 402.557901 405.159007 405.680652 408.693538 414.938090
7.310000 405.207834 409.238661 412.367689 412.104143 414.665382 418.048545
7.360000 412.645832 414.883435 416.809327 417.014316 419.367130 421.728632
7.410000 417.777534 419.629403 421.280061 421.233226 422.879418 424.296417
7.460000 421.201035 422.833808 424.048981 424.006017 425.190896 426.356374
7.510000 423.710671 424.901157 425.986258 425.952029 427.011662 427.998615
7.560000 425.573912 426.602996 427.654566 427.619219 428.614555 429.552999
7.610000 427.143144 428.230782 429.191721 429.179244 430.132154 431.155129
7.660000 428.838614 429.843852 430.782583 430.820620 431.816071 432.920164
7.710000 430.424020 431.338780 432.362261 432.382620 433.387517 434.492520
7.760000 431.745796 432.795305 433.795790 433.843967 434.928032 436.134392
7.860000 433.939818 435.128460 436.339592 436.398972 437.596068 439.004126
7.960000 436.612219 437.939274 439.191014 439.245357 440.576860 442.081506
8.010000 438.088280 439.320068 440.663863 440.703757 442.058270 443.543319
8.110000 440.809854 442.171013 443.494993 443.616617 445.102739 446.902176
8.160000 442.344046 443.666894 445.194777 445.358668 447.006731 449.178624
8.210000 444.026641 445.357011 447.031868 447.215533 448.957545 451.947007
8.260000 445.463396 447.057804 448.934861 449.156989 451.267327 454.314471
8.310000 446.985267 448.819109 451.056535 451.263774 453.678096 456.532117
8.360000 448.679171 450.841285 453.427622 453.520346 456.127870 458.653938
8.410000 450.632741 452.813670 455.860645 455.833817 458.687267 461.281289
8.460000 452.497496 455.059566 458.213148 458.111113 461.011616 463.266030
8.510000 454.807465 457.437367 460.625815 460.333489 463.192801 465.464112
8.560000 457.042939 459.704857 462.678185 462.517371 465.144380 467.585678
8.610000 460.023947 462.146319 464.814695 464.861191 467.411135 470.350699
8.660000 462.357863 464.680925 467.169186 467.300814 469.872299 473.166227
8.710000 465.023984 467.238592 469.682315 469.933643 472.854514 476.016242
8.760000 468.479599 470.289183 472.725534 473.021458 475.907793 479.175994
8.810000 471.043591 472.928683 475.724632 475.901029 478.756905 481.711368
8.860000 473.278637 475.908086 478.706534 478.767844 481.530147 484.338551
8.910000 476.002772 479.580524 482.815277 482.663743 485.511043 488.926535
9.010000 480.669688 486.490301 490.713156 490.608301 494.172747 500.639920
9.060000 483.210637 488.971162 495.242337 495.087924 500.785553 506.110633
9.110000 488.178446 492.494953 499.563504 498.926785 504.180409 508.594695
9.210000 504.905803 507.580665 510.034635 509.973094 512.535209 514.736829
9.260000 508.536804 510.595708 513.183066 513.072922 515.307749 517.353535
9.310000 511.229119 513.486461 515.881856 515.816031 517.914228 520.370863
9.360000 514.431233 516.998487 518.957381 518.978270 521.046426 523.284212
9.410000 517.491772 519.686522 521.402357 521.587606 523.617532 526.383097
9.460000 520.253264 522.114013 523.969232 524.118556 526.089762 528.686178
9.560000 524.349871 526.487670 528.616781 528.982791 531.797842 534.715286
9.610000 527.086106 528.797092 531.148284 532.088993 535.627576 541.941457
9.660000 529.243387 531.216746 533.607023 534.973636 539.196967 548.911033
9.710000 531.841889 534.072776 537.343585 539.455285 546.953804 553.312531
9.760000 534.428667 537.380292 546.066924 545.672956 553.244919 556.031757
9.810000 536.643018 543.757169 553.520196 551.214449 556.423054 558.441143
9.860000 539.409241 552.127267 556.718176 555.281842 559.064182 560.859782
9.910000 544.353935 556.014277 559.136856 558.253075 561.433803 563.365302
9.990000 552.516280 560.485523 563.118999 562.638271 565.413350 567.265577
10.070000 562.318662 564.928560 567.078287 566.938019 568.989311 570.493283
10.120000 565.265016 567.545083 569.595832 569.369790 571.187081 572.387805
10.170000 568.201834 570.123233 571.795474 571.645055 573.186137 574.477003
10.220000 570.996537 572.633923 574.151413 574.047764 575.486120 576.713518
10.270000 573.472787 574.984783 576.379110 576.320580 577.630826 579.216075
10.320000 575.731782 577.336071 578.705586 578.735003 580.097945 582.293879
10.370000 578.314063 579.781656 581.075553 581.629898 583.168143 588.354621
10.420000 581.222417 582.985663 585.861652 586.320913 589.546414 593.723323
10.470000 583.515210 586.580018 591.227505 590.857693 594.514722 598.008488
10.520000 587.108844 590.834863 594.358788 594.340399 597.920379 601.195297
10.570000 590.896825 593.981283 597.222544 597.311757 600.931253 603.887058
10.620000 593.868312 596.742164 600.008618 600.006234 603.496303 605.855255
10.670000 597.361928 599.758119 602.440214 602.512883 605.545821 607.439721
10.720000 600.828898 603.301980 605.429978 605.449948 607.729399 609.456612
10.770000 604.570954 606.260912 608.301461 608.260751 610.221196 612.078168
10.820000 607.331146 608.808106 610.718898 610.728863 612.616359 614.425696
10.870000 609.820539 611.436263 613.229669 613.245518 614.983501 616.735539
10.920000 612.294223 614.217626 616.102234 616.046031 617.843401 619.617702
10.970000 615.330704 617.440680 619.460285 619.512545 621.692043 623.630776
11.020000 621.211887 623.614473 625.820116 625.965249 628.342408 631.640921
11.070000 624.515904 626.891130 629.173386 629.329007 631.839026 634.532635
11.120000 626.864229 629.198298 631.882532 631.942922 634.544485 637.261167
11.170000 629.537970 631.606000 634.111626 634.312474 637.101951 639.881272
11.220000 631.756515 633.947335 636.496420 636.662507 639.415247 642.315864
11.270000 633.489223 636.097272 638.715149 638.833761 641.458222 644.537401
11.370000 637.580094 640.261911 642.624695 642.810697 645.427890 648.948563
11.420000 640.063555 642.580959 644.843317 645.113191 647.642312 651.405785
11.470000 642.415341 644.815361 647.179577 647.497075 650.250810 653.919141
11.510000 644.640786 646.696397 649.140158 649.434873 652.150670 655.769579
11.610000 648.514050 651.037580 653.649477 654.042615 657.134073 661.218487
11.660000 650.796793 653.372452 656.309598 656.717239 660.262171 664.706744
11.710000 653.300552 656.085989 659.152897 659.579197 663.232386 667.942006
11.760000 655.558740 658.573509 662.106165 662.328955 666.101301 670.921339
11.835000 658.702648 662.054356 665.850767 666.106251 670.377061 674.759102
11.910000 662.823150 665.849173 669.942453 670.218992 674.703011 678.859917
11.960000 665.618234 668.973819 673.213116 673.543227 678.014187 683.329236
12.010000 669.795343 673.464069 678.343117 678.559890 684.076583 687.413944
12.060000 680.525246 686.227373 689.613094 688.980641 691.791086 694.130623
12.110000 688.705286 691.763291 693.544584 693.437239 695.062289 697.042357
12.210000 697.540469 698.534401 699.493223 699.477420 700.400315 701.372162
