depth(m) lower_95(kyr) lower_68(kyr) median(kyr) mean(kyr) upper_68(kyr) upper_95(kyr)
88.017000 299.387804 300.535051 301.381295 301.350137 302.152797 302.999164
88.146667 299.745668 300.849904 301.746551 301.713069 302.525027 303.432748
88.276333 300.077963 301.146399 302.085306 302.060219 302.874579 303.898867
88.406000 300.306719 301.504985 302.451521 302.403089 303.206512 304.375819
88.542364 300.579185 301.859160 302.782787 302.752772 303.557588 304.823008
88.678727 300.869432 302.218140 303.124590 303.105166 303.925744 305.333341
88.815091 301.144448 302.519552 303.453917 303.446655 304.303586 305.781666
88.951455 301.422391 302.822397 303.791184 303.793898 304.666766 306.240833
89.087818 301.717783 303.152463 304.096294 304.128636 305.024025 306.712967
89.224182 301.954939 303.448407 304.431007 304.466334 305.415013 307.168154
89.360545 302.244428 303.704621 304.756473 304.803378 305.900948 307.507647
89.496909 302.605379 304.033199 305.073173 305.143685 306.352847 307.863301
89.633273 302.876078 304.322582 305.366732 305.470291 306.744465 308.479909
89.769636 303.154543 304.596933 305.690357 305.803637 307.094866 308.866062
89.906000 303.399585 304.838207 305.997824 306.129973 307.478316 309.261022
90.033714 303.665343 305.117069 306.290529 306.428168 307.797760 309.618732
90.161429 303.997939 305.413869 306.554365 306.718530 308.126347 309.987331
90.289143 304.306362 305.706803 306.827112 307.011687 308.477332 310.514181
90.416857 304.565485 305.980153 307.099158 307.310728 308.760864 310.837573
90.544571 304.857841 306.321848 307.348082 307.592171 309.098192 311.175553
90.672286 305.151782 306.599577 307.632636 307.891286 309.456920 311.357289
90.800000 305.451362 306.880144 307.946263 308.190440 309.777157 311.700537
90.940250 305.746096 307.179889 308.292443 308.518699 310.143675 312.039887
91.080500 306.018119 307.447032 308.626082 308.839889 310.468835 312.474211
91.220750 306.172196 307.750513 308.959084 309.163827 310.865322 312.801277
91.361000 306.502591 308.044606 309.285105 309.490655 311.227812 313.100374
91.501250 306.817009 308.309856 309.639642 309.809020 311.567867 313.359353
91.641500 307.078069 308.549826 309.987669 310.129841 311.883818 313.632621
91.781750 307.297052 308.785854 310.325886 310.444884 312.217058 313.969491
91.922000 307.500826 309.022290 310.669868 310.766135 312.563153 314.271656
92.062250 307.772289 309.297367 311.048297 311.082214 312.886585 314.525994
92.202500 307.947929 309.570479 311.360507 311.396938 313.230614 314.825115
92.342750 308.175320 309.905060 311.708537 311.712998 313.565826 315.275272
92.483000 308.464337 310.171267 312.060485 312.040834 313.928768 315.692392
92.623250 308.738502 310.386001 312.429153 312.360815 314.280244 315.929504
92.763500 308.959971 310.631577 312.786274 312.702005 314.672464 316.352122
92.903750 309.147799 310.885868 313.183411 313.040670 315.074154 316.699170
93.044000 309.455856 311.166979 313.551635 313.371970 315.408653 317.065404
93.184250 309.807208 311.395345 313.893049 313.717395 315.767343 317.409994
93.324500 310.072858 311.717860 314.287802 314.058221 316.074414 317.766388
93.464750 310.350454 312.019215 314.596305 314.417187 316.435188 318.120838
93.605000 310.669294 312.384456 314.972988 314.785017 316.814119 318.482170
93.697500 310.874174 312.646328 315.242142 315.049705 317.113048 318.780148
93.790000 311.167301 312.863569 315.513327 315.335788 317.419131 319.037736
93.922000 311.455266 313.300414 315.990404 315.780987 317.864247 319.562103
94.054000 311.914513 313.807885 316.444749 316.226664 318.293337 319.897353
94.186000 312.374958 314.367226 317.013682 316.704482 318.717233 320.202703
94.317286 312.764980 314.967635 317.474618 317.191869 319.175100 320.667743
94.448571 313.195365 315.597321 318.025525 317.692278 319.651785 321.087033
94.579857 313.715450 316.242268 318.517978 318.208571 320.200005 321.528503
94.711143 314.165755 316.840203 319.016197 318.732637 320.653888 321.931664
94.842429 314.480746 317.382377 319.518905 319.262562 321.131663 322.314503
94.973714 314.949463 317.925862 320.026428 319.795952 321.640241 322.901200
95.105000 315.440869 318.469431 320.609381 320.352014 322.204744 323.316664
95.207000 315.825554 318.886712 321.091728 320.802480 322.634344 323.662320
95.309000 316.352204 319.489152 321.583428 321.258562 323.131027 324.201595
95.411000 316.824395 319.956679 322.053048 321.720952 323.621308 324.701688
95.545200 317.521347 320.476707 322.598094 322.325199 324.292675 325.961210
95.679400 318.082488 320.938496 323.216850 322.976226 325.054541 326.897148
95.813600 318.663417 321.474843 323.853177 323.653117 325.801760 327.696677
95.947800 319.543037 322.047128 324.419295 324.346883 326.698253 328.591531
96.082000 320.345543 322.552131 325.072120 325.012066 327.524541 329.537898
96.216200 321.087108 323.189421 325.675540 325.694970 328.313999 330.384387
96.350400 321.749658 323.850901 326.379335 326.403709 329.047347 331.224073
96.484600 322.407836 324.655410 327.057586 327.151024 329.771079 331.960084
96.618800 323.471954 325.384083 327.821458 327.933614 330.591767 332.776365
96.753000 324.141309 326.085410 328.580403 328.734762 331.540571 333.611240
96.890667 325.018631 327.150162 329.582700 329.630426 332.254349 334.474970
97.028333 325.891087 328.077753 330.528353 330.522763 333.010497 335.214906
97.166000 326.837824 329.166832 331.345490 331.428428 333.840503 335.889394
97.303667 327.823926 330.111417 332.440686 332.392430 334.570055 336.680494
97.441333 328.608639 331.057972 333.321778 333.271205 335.394439 337.479558
97.579000 330.076630 331.956885 334.226341 334.158371 336.200466 338.064581
97.716667 331.164539 333.069808 335.101935 335.067631 337.009152 338.775390
97.854333 332.276525 334.003912 336.037963 335.984654 337.839714 339.634077
97.992000 333.353573 334.999824 337.011361 336.933642 338.650781 340.380027
98.129667 334.293335 336.183028 337.889606 337.851935 339.479266 340.886551
98.267333 335.774796 337.335119 338.833847 338.795222 340.222815 341.736750
98.405000 336.771484 338.347276 339.712926 339.671466 340.918167 342.478492
98.519333 337.607935 338.992650 340.376147 340.354589 341.596061 343.231811
98.633667 338.246837 339.577526 341.028202 340.992409 342.231832 343.724147
98.748000 338.808852 340.331148 341.612951 341.617681 342.862958 344.276418
98.870600 339.417678 340.995134 342.182583 342.246058 343.598692 344.969343
98.993200 339.975334 341.527105 342.826700 342.839157 344.167154 345.642858
99.115800 340.295343 342.067296 343.299492 343.375900 344.815058 346.297863
99.238400 340.781094 342.540925 343.791487 343.901710 345.333941 346.949694
99.361000 341.187591 342.986042 344.368980 344.429431 345.842056 347.479236
99.478250 341.570764 343.431182 344.868244 344.917968 346.396069 348.107814
99.595500 341.911494 343.841708 345.355344 345.391219 346.973824 348.738094
99.712750 342.239680 344.226444 345.796850 345.852530 347.521211 349.252021
99.830000 342.722056 344.630113 346.273191 346.315602 348.071150 349.911913
99.967273 343.021561 345.050137 346.783474 346.868873 348.799369 350.749086
100.104545 343.464952 345.501050 347.336592 347.435518 349.508342 351.544785
100.241818 343.953073 346.016394 347.874996 347.990784 350.076453 352.151382
100.379091 344.364583 346.485126 348.421459 348.553124 350.750510 352.893959
100.516364 344.636993 346.915471 349.057763 349.105819 351.335287 353.594735
100.653636 345.059914 347.390053 349.651883 349.641311 352.018484 354.293474
100.790909 345.523203 347.839483 350.212938 350.168278 352.533349 354.800684
100.928182 345.819312 348.357847 350.872936 350.719159 353.191622 355.457246
101.065455 346.129512 348.813387 351.430751 351.239772 353.797223 356.049965
101.202727 346.408787 349.315745 351.923657 351.750805 354.366597 356.577614
101.340000 346.704028 349.714356 352.485347 352.253998 354.877055 357.082101
101.484000 347.049724 350.138217 353.076875 352.788849 355.557547 357.523514
101.628000 347.267784 350.625474 353.620143 353.313020 356.082758 357.922685
101.772000 347.587122 351.155926 354.148761 353.832160 356.617219 358.293340
101.916000 347.843262 351.748926 354.713910 354.356245 357.192092 358.611858
102.060000 348.125448 352.284199 355.239863 354.884081 357.770706 358.932604
102.204000 348.396957 352.831115 355.849696 355.415515 358.263145 359.328511
102.348000 348.676077 353.369060 356.478034 355.942454 358.782493 359.633410
102.492000 348.963023 353.884385 357.140744 356.480860 359.241859 359.976955
102.636000 349.288224 354.396348 357.802009 356.998953 359.628057 360.320825
102.780000 349.543524 354.865279 358.407737 357.502959 360.070189 360.635617
102.890500 349.795470 355.410038 358.866829 357.871907 360.350941 360.883290
103.001000 350.031346 355.942009 359.268808 358.228116 360.622396 361.124509
103.111000 350.285666 356.378480 359.734401 358.569804 360.866812 361.418578
103.220667 350.579002 356.713756 360.141638 358.910533 361.146800 361.736207
103.330333 350.874047 357.038813 360.534956 359.245167 361.400824 362.084993
103.440000 351.194808 357.345277 360.873274 359.573317 361.672804 362.311498
103.545333 351.531744 357.697574 361.155607 359.890893 361.931369 362.625982
103.650667 352.147849 357.949546 361.406974 360.188740 362.144960 362.892494
103.756000 352.656547 358.283544 361.693434 360.494189 362.411045 363.176866
103.889545 353.094420 358.649192 361.973216 360.856976 362.725674 363.530641
104.023091 353.570426 358.968940 362.292986 361.210794 363.027488 363.915001
104.156636 354.030638 359.304433 362.548412 361.567115 363.321576 364.429301
104.290182 354.590916 359.674690 362.843931 361.920229 363.597577 364.853378
104.423727 354.930502 360.043702 363.110144 362.266233 363.903596 365.230735
104.557273 355.387607 360.527725 363.404676 362.615312 364.199432 365.643862
104.690818 355.942940 361.051927 363.671821 362.963912 364.491639 366.068209
104.824364 356.424451 361.460960 363.959123 363.310390 364.806908 366.462582
104.957909 356.798787 361.966363 364.274350 363.660065 365.116434 366.895652
105.091455 357.297747 362.357537 364.572301 364.003773 365.410825 367.245578
105.225000 357.584502 362.634015 364.874459 364.348790 365.748403 367.624494
105.256000 357.637870 362.733950 364.941650 364.435211 365.822052 367.727310
105.398000 358.503854 363.182907 365.241337 364.803228 366.166763 368.037780
105.540000 359.005915 363.766950 365.538358 365.168290 366.524876 368.371573
105.682000 359.508098 364.182849 365.824596 365.527915 366.885520 368.746409
105.824000 360.510886 364.646365 366.143226 365.895306 367.262201 369.179488
105.966000 360.970456 365.110553 366.474004 366.250023 367.651519 369.575761
106.108000 361.829384 365.463754 366.796134 366.614490 368.090259 369.845423
106.250000 362.456495 365.772198 367.127919 366.976468 368.539026 370.199720
106.392000 362.813347 366.073125 367.445426 367.322844 368.888119 370.682466
106.534000 363.044422 366.396924 367.771678 367.667006 369.240529 371.116338
106.676000 363.404550 366.749130 368.068281 368.015725 369.653924 371.425742
106.820833 363.642535 367.050522 368.370635 368.357478 370.067268 371.830446
106.965667 363.933416 367.391276 368.685866 368.688615 370.452216 372.240332
107.110500 364.350311 367.670102 368.990030 369.014872 370.829377 372.635355
107.255333 364.739022 367.910745 369.314093 369.335403 371.199649 373.042480
107.400167 365.012961 368.218959 369.612797 369.664752 371.567518 373.462903
107.545000 365.419989 368.485117 369.938660 369.995314 371.915623 373.929283
107.689833 365.773744 368.742138 370.266334 370.316962 372.264481 374.185557
107.834667 366.003598 369.014005 370.587227 370.634105 372.585862 374.630672
107.979500 366.315825 369.289457 370.880720 370.947067 372.874156 374.911046
108.124333 366.818267 369.561753 371.215870 371.263750 373.224211 375.221223
108.269167 367.201073 369.836335 371.543137 371.572778 373.557206 375.522475
108.414000 367.434423 370.080059 371.824698 371.887026 373.863940 376.050208
108.558833 367.713644 370.354939 372.128092 372.200408 374.223515 376.670109
108.703667 368.012325 370.646431 372.430949 372.512111 374.517040 377.029113
108.848500 368.242947 370.878584 372.758146 372.812129 374.863754 377.303903
108.993333 368.520582 371.196787 373.074339 373.121293 375.229424 377.618810
109.138167 368.861463 371.447461 373.364908 373.427943 375.502930 378.005045
109.283000 369.118553 371.741474 373.690050 373.730021 375.764491 378.338082
109.424421 369.276458 371.992468 374.013185 374.027169 376.079984 378.570606
109.565842 369.679548 372.222037 374.307274 374.320692 376.365706 378.899264
109.707263 369.975152 372.592109 374.630106 374.624045 376.635127 379.192934
109.848684 370.267140 372.848287 374.967955 374.919650 376.949504 379.477781
109.990105 370.492187 373.132498 375.231160 375.214037 377.255889 379.772788
110.131526 370.752168 373.395093 375.536929 375.517368 377.560123 380.182862
110.272947 370.948374 373.750875 375.817658 375.814774 377.849340 380.504460
110.414368 371.220793 373.992093 376.160030 376.117053 378.176584 380.781140
110.555789 371.516839 374.285093 376.460061 376.409723 378.498302 381.008516
110.697211 372.020893 374.557557 376.746856 376.703982 378.804399 381.348965
110.838632 372.542747 374.827781 377.052485 377.008233 379.095159 381.606696
110.980053 372.807815 375.122785 377.342557 377.312294 379.400852 381.971235
111.121474 373.001726 375.361134 377.629635 377.617545 379.786383 382.226462
111.262895 373.294600 375.649832 377.913846 377.918684 380.127803 382.471534
111.404316 373.577985 375.955056 378.212207 378.228110 380.396076 382.825797
111.545737 373.797639 376.254731 378.487403 378.535303 380.744995 383.156436
111.687158 374.026360 376.530082 378.809555 378.846011 381.004784 383.815673
111.828579 374.212823 376.899888 379.151289 379.153162 381.318956 384.181794
111.970000 374.522177 377.185836 379.478871 379.462990 381.594206 384.513770
112.115111 374.790933 377.465927 379.804546 379.781148 381.968886 384.882100
112.260222 375.140822 377.829042 380.187937 380.109718 382.286589 385.229225
112.405333 375.436270 378.199872 380.533943 380.446112 382.601539 385.524751
112.550444 375.815313 378.562767 380.866985 380.768945 383.006854 385.854585
112.695556 376.138727 378.905750 381.182068 381.097469 383.327840 386.186906
112.840667 376.400725 379.260102 381.541336 381.448761 383.658793 386.551552
112.985778 376.751043 379.581351 381.891379 381.804751 384.048666 387.028003
113.130889 377.167707 379.918556 382.253925 382.150340 384.436608 387.441928
113.276000 377.430526 380.230519 382.604940 382.506388 384.817573 387.785636
113.412364 377.761061 380.574934 382.931401 382.860991 385.241621 388.107160
113.548727 378.156429 380.838376 383.248127 383.218513 385.642642 388.407214
113.685091 378.428617 381.191199 383.588418 383.598079 386.070587 388.695097
113.821455 378.809907 381.517608 383.972037 383.965395 386.446559 388.997909
113.957818 379.054534 381.833952 384.369059 384.343917 386.846190 389.391696
114.094182 379.440590 382.146940 384.729131 384.735452 387.293335 389.757836
114.230545 379.754188 382.468859 385.092849 385.126842 387.785437 390.024055
114.366909 380.246010 382.860202 385.430475 385.522068 388.231030 390.341978
114.503273 380.824396 383.242201 385.804431 385.913141 388.642513 390.676189
114.639636 381.153075 383.607014 386.182707 386.321552 389.065694 391.093417
114.776000 381.656817 383.941872 386.508592 386.725166 389.674202 391.465267
114.918400 382.043119 384.300167 386.882306 387.152279 390.207181 391.880857
115.060800 382.480239 384.633363 387.248883 387.561773 390.663465 392.301071
115.203200 383.011456 385.084955 387.637904 387.993596 391.167925 392.662909
115.345600 383.481288 385.522825 388.056781 388.435819 391.657427 392.992275
115.488000 383.972324 385.931980 388.429891 388.890981 392.210296 393.472607
115.597333 384.230083 386.419669 388.764233 389.244966 392.620998 393.728689
115.706667 384.563365 386.912169 389.111543 389.622613 392.943925 394.069649
115.816000 384.864745 387.280754 389.543966 389.981491 393.227889 394.377973
115.932500 385.196272 387.672379 389.916832 390.362000 393.602259 394.768336
116.049000 385.546922 388.096395 390.334724 390.753338 393.942831 395.383293
116.165500 385.987903 388.520872 390.722658 391.156073 394.247928 395.777547
116.282000 386.373169 388.987217 391.176401 391.587863 394.561900 396.293247
116.417818 386.790756 389.525457 391.728403 392.115065 394.936937 397.102950
116.553636 387.447882 390.051160 392.288093 392.637521 395.334323 398.206248
116.689455 387.991746 390.568441 392.862714 393.162424 395.754854 399.159538
116.825273 388.731775 391.113387 393.381380 393.693961 396.124659 400.313318
116.961091 389.292177 391.643986 393.933669 394.239339 396.525418 401.511167
117.096909 389.876154 392.244234 394.583452 394.820277 397.008077 402.509101
117.232727 390.544174 392.823736 395.102662 395.399544 397.437951 403.451379
117.368545 390.988849 393.413761 395.768258 396.007175 398.049805 405.153205
117.504364 391.716439 394.104899 396.329261 396.636619 398.537196 406.014028
117.640182 392.606705 394.699649 396.874310 397.268346 399.145031 407.199118
117.776000 393.442210 395.384242 397.516621 397.950716 399.796616 407.605294
117.912364 393.989887 396.036425 398.387150 398.810424 400.961575 408.767660
118.048727 394.539623 396.804712 399.165101 399.691902 402.084428 409.337016
118.185091 395.025301 397.381212 400.167264 400.635628 403.355840 409.809045
118.321455 395.683786 398.059601 401.304594 401.574839 404.609533 411.557517
118.457818 396.233459 398.708813 402.447766 402.525783 405.792277 412.030688
118.594182 397.110885 399.288419 403.529524 403.488049 406.969898 412.814981
118.730545 397.691822 399.987618 404.824934 404.510990 408.063977 414.482510
118.866909 398.567038 400.693030 406.066594 405.615613 409.386557 415.080669
119.003273 399.493195 401.744269 407.434142 406.773378 410.586820 415.848779
119.139636 400.300270 402.747549 408.811015 407.944240 411.659333 417.078441
119.276000 401.229300 403.982688 410.122896 409.137378 412.839941 417.940729
119.356000 401.829529 404.443195 410.667009 409.686436 413.346851 418.452278
119.487111 403.310224 406.016199 411.833468 411.029571 414.726587 419.290326
119.618222 404.969978 407.871100 413.082312 412.414411 415.877238 419.965872
119.749333 406.789318 409.492957 414.374869 413.835957 417.232193 420.629225
119.880444 408.504318 411.359005 415.677997 415.258610 418.573815 421.916965
120.011556 410.641120 413.050639 417.038256 416.685068 419.804769 423.083477
120.142667 412.594483 414.865866 418.265945 418.111135 421.032193 423.863688
120.273778 414.309331 416.651367 419.564062 419.512499 422.194755 424.906358
120.404889 416.301204 418.484056 421.048319 420.955022 423.368492 425.615281
120.536000 418.287118 420.132851 422.325176 422.290759 424.402938 426.411852
120.659500 419.486352 421.368434 423.374108 423.340596 425.202715 427.175677
120.783000 420.823062 422.534422 424.440386 424.405899 426.285845 427.904207
120.906500 421.963961 423.640090 425.474871 425.391638 427.089783 428.594884
121.030000 422.937146 424.673780 426.430296 426.358595 428.023321 429.293043
121.164250 424.170446 425.715848 427.360092 427.351023 429.002906 430.406623
121.298500 425.047502 426.673691 428.265099 428.269844 429.905274 431.437799
121.432750 425.868467 427.483892 429.138604 429.131218 430.766110 432.215853
121.567000 426.725106 428.388677 429.928701 429.965576 431.603610 433.226666
121.704500 427.417992 428.983037 430.639716 430.634266 432.297740 433.980666
121.842000 428.032519 429.545301 431.280475 431.261302 433.025424 434.563924
121.981737 428.444191 430.016545 431.758299 431.810130 433.660317 435.329292
122.121474 428.921472 430.438892 432.260333 432.332442 434.184446 436.164383
122.261211 429.169946 430.860359 432.761234 432.826928 434.808628 437.115713
122.400947 429.541655 431.250939 433.241341 433.326071 435.386153 437.838069
122.540684 429.814904 431.648395 433.702814 433.805535 435.907277 438.532153
