depth(m) lower_95(kyr) lower_68(kyr) median(kyr) mean(kyr) upper_68(kyr) upper_95(kyr)
552.000000 101.498647 103.724583 105.259673 105.276271 107.041787 108.976002
552.142857 101.522501 103.755702 105.295657 105.307597 107.063175 109.012986
552.285714 101.573743 103.789768 105.319787 105.337787 107.111251 109.025332
552.428571 101.597668 103.817967 105.343743 105.366629 107.137353 109.046896
552.571429 101.625429 103.857796 105.379873 105.395979 107.162217 109.067234
552.714286 101.671693 103.906252 105.398739 105.424793 107.188353 109.085468
552.857143 101.705341 103.923798 105.418472 105.452690 107.211627 109.116824
553.000000 101.755416 103.958803 105.437703 105.480763 107.229779 109.134887
553.142857 101.811225 103.987949 105.460635 105.510045 107.254083 109.160259
553.285714 101.853760 104.015804 105.482217 105.538290 107.277350 109.214763
553.428571 101.917653 104.044018 105.500132 105.566932 107.310753 109.248219
553.571429 102.025825 104.075089 105.528143 105.596419 107.323228 109.265263
553.714286 102.061995 104.092743 105.569530 105.624685 107.333942 109.275661
553.857143 102.097472 104.120198 105.607618 105.652333 107.348601 109.299487
554.000000 102.141118 104.159326 105.622446 105.678877 107.382179 109.324039
554.142857 102.214771 104.181229 105.645035 105.706025 107.412226 109.337458
554.285714 102.261169 104.215864 105.671906 105.733725 107.444016 109.350875
554.428571 102.310089 104.244934 105.698042 105.761166 107.473769 109.381665
554.571429 102.367976 104.265454 105.723659 105.789135 107.501208 109.401812
554.714286 102.395422 104.300104 105.743257 105.815900 107.522922 109.421957
554.857143 102.482453 104.326465 105.769543 105.843194 107.555231 109.440985
555.000000 102.535394 104.351028 105.792244 105.869865 107.577952 109.462160
555.142857 102.555756 104.379389 105.812972 105.897217 107.598467 109.478275
555.285714 102.597572 104.402164 105.831731 105.924115 107.618644 109.491911
555.428571 102.617853 104.422984 105.853751 105.950548 107.636735 109.507878
555.571429 102.658846 104.439848 105.876234 105.977666 107.670502 109.523479
555.714286 102.679748 104.473856 105.897882 106.004192 107.702843 109.538382
555.857143 102.699886 104.495863 105.931149 106.032051 107.725227 109.553148
556.000000 102.719631 104.525860 105.958362 106.059894 107.746690 109.569382
556.142857 102.744564 104.544662 105.988811 106.086710 107.767064 109.634312
556.285714 102.805078 104.578408 106.009649 106.113562 107.795919 109.670178
556.428571 102.823585 104.597474 106.038616 106.141489 107.828821 109.693305
556.571429 102.852092 104.626534 106.057125 106.169616 107.853213 109.711943
556.714286 102.885757 104.662274 106.071626 106.197500 107.866121 109.732095
556.857143 102.911992 104.685105 106.086337 106.224162 107.889386 109.750238
557.000000 102.936986 104.699711 106.114297 106.250927 107.914678 109.783690
557.142857 102.992881 104.728138 106.128884 106.278510 107.937463 109.794005
557.285714 103.033343 104.739653 106.150334 106.304478 107.977249 109.814438
557.428571 103.065331 104.755943 106.161748 106.331423 108.008057 109.833248
557.571429 103.088964 104.781542 106.187840 106.357767 108.038691 109.852038
557.714286 103.106524 104.802935 106.213081 106.385172 108.076633 109.872850
557.857143 103.268124 104.825730 106.248175 106.413198 108.098138 109.894618
558.000000 103.317537 104.884697 106.268569 106.440604 108.124928 109.907826
558.142857 103.343582 104.904141 106.294364 106.468992 108.139880 109.926572
558.285714 103.373155 104.927538 106.320019 106.495303 108.160497 109.945468
558.428571 103.378182 104.945983 106.346454 106.523178 108.180354 109.964913
558.571429 103.399412 104.985146 106.366247 106.550144 108.214057 109.977984
558.714286 103.422264 105.011210 106.388781 106.576623 108.241653 109.997234
558.857143 103.470823 105.048560 106.409192 106.603245 108.272428 110.015999
559.000000 103.485954 105.078681 106.427521 106.630922 108.298138 110.034018
559.142857 103.527302 105.105075 106.450313 106.658991 108.326212 110.055164
559.285714 103.546488 105.136529 106.471789 106.684887 108.353022 110.079580
559.428571 103.602070 105.149205 106.492769 106.711582 108.384963 110.104404
559.571429 103.638499 105.183443 106.511152 106.737279 108.418770 110.142556
559.714286 103.678788 105.216551 106.534069 106.763667 108.440844 110.164735
559.857143 103.726734 105.252445 106.564771 106.790200 108.464973 110.190983
560.000000 103.827284 105.287280 106.596245 106.816864 108.488181 110.220029
560.142857 103.910025 105.317363 106.612520 106.843919 108.509861 110.230086
560.285714 103.962817 105.376294 106.643606 106.871003 108.522329 110.246720
560.428571 104.017900 105.403514 106.665698 106.898544 108.558077 110.262271
560.571429 104.037124 105.438350 106.691563 106.926365 108.581779 110.282375
560.714286 104.062795 105.484580 106.710812 106.954139 108.608270 110.304922
560.857143 104.087647 105.515177 106.731064 106.981023 108.640036 110.328996
561.000000 104.115320 105.567472 106.751560 107.008451 108.660126 110.348611
561.142857 104.134895 105.599789 106.790437 107.035967 108.684058 110.370114
561.285714 104.158839 105.640631 106.823038 107.062625 108.710827 110.411019
561.428571 104.261123 105.697695 106.838474 107.090061 108.741428 110.434549
561.571429 104.287376 105.744420 106.881485 107.116198 108.766756 110.455141
561.714286 104.314267 105.772134 106.908755 107.143274 108.791069 110.477719
561.857143 104.340066 105.785973 106.948071 107.169350 108.806725 110.501043
562.000000 104.366357 105.820314 106.975827 107.197192 108.830549 110.519122
562.142857 104.389851 105.846465 106.997194 107.224741 108.860592 110.537589
562.285714 104.406729 105.876771 107.020737 107.250624 108.879560 110.552904
562.428571 104.425316 105.906015 107.041539 107.276727 108.901094 110.577010
562.571429 104.447466 105.934714 107.074795 107.304635 108.919232 110.597995
562.714286 104.478715 105.946577 107.103659 107.331648 108.942074 110.615966
562.857143 104.505563 105.970753 107.143340 107.358363 108.966735 110.625796
563.000000 104.522341 105.999592 107.166740 107.384697 108.986569 110.657154
563.142857 104.545814 106.026569 107.188772 107.411898 109.012806 110.682525
563.285714 104.570517 106.058364 107.220051 107.438826 109.037520 110.696299
563.428571 104.600455 106.082367 107.252063 107.465532 109.055056 110.731760
563.571429 104.639244 106.111205 107.280026 107.492545 109.071564 110.765688
563.714286 104.678494 106.131165 107.306151 107.518445 109.090735 110.789156
563.857143 104.715167 106.155700 107.331107 107.544601 109.116506 110.813772
564.000000 104.733863 106.183829 107.374610 107.571895 109.138408 110.831706
564.142857 104.760005 106.225331 107.394157 107.597361 109.151829 110.846353
564.285714 104.807410 106.257487 107.418391 107.623256 109.170874 110.874705
564.428571 104.826482 106.282806 107.428956 107.649200 109.206896 110.900430
564.571429 104.858623 106.318357 107.452367 107.675184 109.222346 110.929363
564.714286 104.884591 106.344196 107.475787 107.699908 109.243481 110.950977
564.857143 104.909390 106.384653 107.499100 107.726247 109.275768 110.973400
565.000000 104.955233 106.408643 107.523878 107.751933 109.293748 110.987824
565.142857 104.967714 106.440034 107.556028 107.778257 109.315095 111.007255
565.285714 105.013634 106.458634 107.586463 107.804468 109.333659 111.031984
565.428571 105.043963 106.484173 107.619516 107.830110 109.360483 111.060034
565.571429 105.107778 106.517002 107.661113 107.856846 109.376327 111.068971
565.714286 105.157776 106.547283 107.697016 107.883401 109.391388 111.083861
565.857143 105.204659 106.582041 107.733572 107.909355 109.409402 111.101558
566.000000 105.265781 106.601413 107.770382 107.934499 109.429273 111.135976
566.142857 105.342249 106.632607 107.836772 107.959863 109.449206 111.158042
566.285714 105.371497 106.661665 107.865312 107.985591 109.474644 111.173302
566.428571 105.407527 106.692491 107.886523 108.012017 109.495610 111.190395
566.571429 105.469175 106.719560 107.929860 108.038999 109.515230 111.211064
566.714286 105.521719 106.739158 107.983317 108.064946 109.537620 111.231591
566.857143 105.541674 106.757404 108.008946 108.091300 109.567505 111.251769
567.000000 105.564479 106.786102 108.040322 108.118027 109.596322 111.271105
567.142857 105.606388 106.816355 108.102349 108.145326 109.618290 111.284712
567.285714 105.643530 106.857811 108.119191 108.171361 109.636760 111.308015
567.428571 105.660853 106.888567 108.149565 108.197580 109.654340 111.335640
567.571429 105.715395 106.909022 108.194021 108.223999 109.673149 111.352569
567.714286 105.763470 106.940162 108.237950 108.249278 109.695180 111.366317
567.857143 105.845820 106.965435 108.257099 108.274699 109.724289 111.378935
568.000000 105.871578 106.991941 108.277957 108.299867 109.748338 111.393519
568.142857 105.917451 107.015576 108.295492 108.326577 109.768320 111.413816
568.285714 105.953958 107.043024 108.315968 108.353132 109.792411 111.442436
568.428571 105.989063 107.070487 108.362247 108.378875 109.806442 111.462343
568.571429 106.017244 107.099848 108.387818 108.405645 109.825133 111.483114
568.714286 106.046697 107.141919 108.403816 108.432540 109.863451 111.496678
568.857143 106.072621 107.178283 108.445357 108.459658 109.888001 111.514170
569.000000 106.124527 107.214472 108.470199 108.485533 109.905638 111.532963
569.142857 106.149386 107.241763 108.494587 108.511048 109.943974 111.553828
569.285714 106.206547 107.279622 108.511710 108.536700 109.977435 111.573828
569.428571 106.229324 107.305474 108.534050 108.561558 110.006298 111.595802
569.571429 106.261464 107.329420 108.562083 108.587637 110.030221 111.628314
569.714286 106.287378 107.349179 108.593949 108.613658 110.045913 111.662743
569.857143 106.328153 107.374239 108.613490 108.639836 110.078750 111.682504
570.000000 106.364142 107.404012 108.645609 108.666987 110.089950 111.704443
570.142857 106.398888 107.427660 108.668549 108.694286 110.120672 111.730110
570.285714 106.444166 107.456581 108.681633 108.721108 110.138753 111.755233
570.428571 106.497716 107.492296 108.701970 108.748658 110.156650 111.776934
570.571429 106.538079 107.524142 108.718768 108.775804 110.181966 111.787317
570.714286 106.556834 107.542010 108.736216 108.802270 110.206912 111.807989
570.857143 106.590032 107.568194 108.751247 108.828655 110.232599 111.833204
571.000000 106.631076 107.591495 108.767420 108.855210 110.261616 111.869370
571.142857 106.662039 107.623572 108.781590 108.880651 110.291467 111.900024
571.285714 106.731790 107.651388 108.800493 108.906991 110.318279 111.921439
571.428571 106.765450 107.683413 108.825590 108.933541 110.351397 111.951443
571.571429 106.803092 107.705210 108.844223 108.960990 110.373418 111.976309
571.714286 106.817497 107.733901 108.857991 108.987943 110.392278 111.997486
571.857143 106.844827 107.766194 108.887600 109.015436 110.412139 112.017279
572.000000 106.878564 107.795054 108.906882 109.043252 110.427761 112.037674
572.142857 106.951069 107.825088 108.931482 109.070793 110.456375 112.054880
572.285714 106.978383 107.856611 108.950522 109.097600 110.473467 112.072267
572.428571 107.004600 107.881557 108.966722 109.124480 110.509184 112.104573
572.571429 107.026229 107.911656 108.979580 109.150410 110.540785 112.122900
572.714286 107.059992 107.936891 109.008019 109.177472 110.564904 112.138088
572.857143 107.079876 107.966343 109.029171 109.204109 110.586356 112.160873
573.000000 107.097825 107.995473 109.050878 109.232332 110.608511 112.188774
573.142857 107.115085 108.019283 109.074149 109.259851 110.654058 112.197690
573.285714 107.138355 108.050146 109.091545 109.286513 110.681391 112.209845
573.428571 107.160104 108.088501 109.118921 109.313247 110.727032 112.226442
573.571429 107.185887 108.110231 109.137278 109.339939 110.745413 112.252407
573.714286 107.224132 108.140396 109.153742 109.366598 110.766626 112.272169
573.857143 107.250191 108.159332 109.184201 109.393557 110.807752 112.281483
574.000000 107.272071 108.182186 109.201879 109.420709 110.858838 112.304875
574.142857 107.309989 108.204674 109.230089 109.448417 110.918724 112.328585
574.285714 107.331967 108.229586 109.248633 109.475153 110.943759 112.350813
574.428571 107.357390 108.255605 109.280458 109.503292 110.985862 112.384451
574.571429 107.413940 108.285522 109.302274 109.530347 111.030911 112.401192
574.714286 107.437574 108.310435 109.322263 109.557119 111.090014 112.436714
574.857143 107.473792 108.342756 109.368184 109.585326 111.116222 112.447122
575.000000 107.523661 108.369763 109.383964 109.612014 111.132549 112.467334
575.142857 107.548957 108.397143 109.405514 109.637472 111.176852 112.495326
575.285714 107.581535 108.424999 109.435976 109.664257 111.197563 112.513522
575.428571 107.644362 108.446690 109.452761 109.690387 111.233827 112.529206
575.571429 107.671855 108.475216 109.474031 109.717853 111.257030 112.550652
575.714286 107.710557 108.507254 109.500869 109.744296 111.292945 112.563576
575.857143 107.730496 108.538545 109.532124 109.771500 111.332351 112.576186
576.000000 107.760915 108.556137 109.551402 109.797772 111.361632 112.592067
576.142857 107.781130 108.577512 109.587804 109.826033 111.393125 112.607211
576.285714 107.813841 108.611208 109.613987 109.854762 111.412023 112.622213
576.428571 107.866945 108.638227 109.642218 109.884336 111.443061 112.645804
576.571429 107.887616 108.662069 109.668763 109.913062 111.479532 112.667613
576.714286 107.916968 108.689476 109.688809 109.942145 111.503332 112.685550
576.857143 107.956864 108.720565 109.718620 109.971433 111.516836 112.734605
577.000000 108.002841 108.766067 109.745611 110.001304 111.547484 112.756651
577.142857 108.064333 108.818130 109.775532 110.032570 111.579565 112.782823
577.285714 108.089443 108.864015 109.796796 110.064157 111.610031 112.800509
577.428571 108.137035 108.895769 109.826105 110.096395 111.628839 112.823409
577.571429 108.155369 108.926279 109.867072 110.128307 111.666092 112.843958
577.714286 108.183816 108.949629 109.892717 110.159798 111.687643 112.860169
577.857143 108.209577 108.991478 109.926200 110.191927 111.711663 112.879305
578.000000 108.248151 109.025688 109.959058 110.226491 111.740950 112.892447
578.142857 108.289549 109.062939 109.988749 110.261256 111.782392 112.904439
578.285714 108.331051 109.100610 110.007111 110.294645 111.806332 112.915649
578.428571 108.360297 109.133639 110.040423 110.329104 111.831461 112.940778
578.571429 108.395452 109.157208 110.075382 110.364075 111.856623 112.967069
578.714286 108.440537 109.178503 110.099891 110.397639 111.885510 112.985390
578.857143 108.460905 109.202005 110.141240 110.433404 111.911288 113.029459
579.000000 108.494892 109.234480 110.177024 110.467754 111.938457 113.055982
579.142857 108.515337 109.264218 110.233770 110.502811 111.983330 113.086503
579.285714 108.544206 109.288753 110.261986 110.538930 112.024131 113.109908
579.428571 108.572373 109.326422 110.294102 110.573022 112.068642 113.133714
579.571429 108.595987 109.354567 110.338111 110.610070 112.093262 113.175504
579.714286 108.613719 109.400848 110.378465 110.644240 112.127420 113.229082
579.857143 108.641812 109.425364 110.413462 110.679845 112.153879 113.254910
580.000000 108.683976 109.444995 110.453695 110.714326 112.189987 113.290836
580.142857 108.703670 109.470529 110.483942 110.746873 112.227530 113.344943
580.285714 108.722251 109.495148 110.528906 110.780320 112.271968 113.367201
580.428571 108.748403 109.523246 110.576822 110.814724 112.306006 113.424653
580.571429 108.763086 109.563123 110.624250 110.850117 112.327150 113.456142
580.714286 108.780239 109.590137 110.692258 110.885914 112.342326 113.490574
580.857143 108.796460 109.623081 110.732504 110.921670 112.387444 113.508622
581.000000 108.836573 109.650409 110.765551 110.956061 112.419071 113.546328
581.142857 108.855860 109.676709 110.805743 110.992225 112.450228 113.578098
581.285714 108.872867 109.712200 110.855579 111.027259 112.469235 113.630860
581.428571 108.894790 109.739795 110.899942 111.061281 112.490421 113.678647
581.571429 108.913186 109.766323 110.936766 111.096242 112.547356 113.699139
581.714286 108.942170 109.795135 110.968280 111.131465 112.579693 113.726085
581.857143 108.966178 109.821357 111.029656 111.165458 112.612967 113.775126
582.000000 108.979805 109.841242 111.057732 111.199402 112.652714 113.802596
582.142857 109.004081 109.865774 111.086629 111.231999 112.673633 113.823629
582.285714 109.016328 109.898570 111.132046 111.266528 112.706471 113.854412
582.428571 109.046126 109.920148 111.165989 111.301264 112.749879 113.900698
582.571429 109.059948 109.947550 111.208804 111.334639 112.785583 113.932662
582.714286 109.077342 109.972971 111.240436 111.370162 112.836788 113.969549
582.857143 109.089240 110.007386 111.270709 111.405244 112.886955 114.012350
583.000000 109.100620 110.040726 111.297844 111.441258 112.912292 114.066516
583.142857 109.116840 110.087879 111.330539 111.476392 112.963820 114.151716
583.285714 109.136121 110.113376 111.378252 111.511318 113.010905 114.219634
583.428571 109.157068 110.148432 111.414590 111.546815 113.040912 114.272375
583.571429 109.173831 110.172838 111.452413 111.581819 113.085530 114.325415
583.714286 109.195086 110.202131 111.495783 111.616481 113.119048 114.418098
583.857143 109.227859 110.219890 111.519264 111.650356 113.147515 114.491041
584.000000 109.247472 110.258806 111.555920 111.685438 113.192395 114.535443
584.142857 109.288263 110.285589 111.592897 111.719581 113.214154 114.590711
584.285714 109.307109 110.309734 111.625926 111.755196 113.257797 114.624916
584.428571 109.323447 110.344715 111.651630 111.789389 113.303057 114.686670
584.571429 109.352839 110.393158 111.686744 111.825176 113.338680 114.759726
584.714286 109.380540 110.426651 111.729916 111.861076 113.378554 114.788141
584.857143 109.415372 110.481715 111.757131 111.897639 113.420700 114.805440
585.000000 109.466370 110.512255 111.820970 111.933815 113.457400 114.858707
585.144444 109.489143 110.545505 111.854907 111.971260 113.496293 114.901115
585.288889 109.511828 110.574524 111.889769 112.007991 113.522206 114.969010
585.433333 109.539191 110.608310 111.921889 112.045959 113.562046 115.032560
585.577778 109.599906 110.644858 111.963585 112.085883 113.588407 115.082270
585.722222 109.659225 110.683484 111.992932 112.125595 113.636618 115.102286
585.866667 109.716203 110.714779 112.014716 112.164419 113.676893 115.128605
586.011111 109.804232 110.751633 112.043924 112.203949 113.714827 115.151462
586.155556 109.857586 110.777717 112.084113 112.243589 113.758304 115.166906
586.300000 109.906141 110.827240 112.114854 112.282682 113.790916 115.212133
586.444444 109.961306 110.857712 112.155569 112.322650 113.824411 115.252955
586.588889 110.003777 110.901688 112.223590 112.362569 113.862027 115.300537
586.733333 110.041441 110.952865 112.270490 112.403009 113.890997 115.365641
586.877778 110.074056 111.018851 112.309301 112.444428 113.921205 115.386957
587.022222 110.110475 111.062784 112.340094 112.484506 113.973414 115.414134
587.166667 110.158455 111.101884 112.377194 112.523341 114.002140 115.433324
587.311111 110.190311 111.142864 112.431028 112.561836 114.036087 115.496859
587.455556 110.221065 111.172872 112.457156 112.599731 114.085495 115.509363
587.600000 110.247239 111.207746 112.498795 112.638793 114.116885 115.537265
587.744444 110.280414 111.246480 112.534981 112.677241 114.156597 115.591824
587.888889 110.305180 111.294657 112.565326 112.715703 114.188845 115.618612
588.033333 110.338082 111.336146 112.599783 112.754118 114.231883 115.650027
588.177778 110.358693 111.366417 112.626500 112.793468 114.254178 115.676242
588.322222 110.385339 111.415014 112.661507 112.834179 114.304526 115.698736
588.466667 110.425193 111.452600 112.723889 112.874749 114.340295 115.735998
588.611111 110.448126 111.488027 112.758500 112.915138 114.379112 115.798246
588.755556 110.472804 111.539667 112.796069 112.953944 114.418775 115.822712
