depth(m) lower_95(kyr) lower_68(kyr) median(kyr) mean(kyr) upper_68(kyr) upper_95(kyr)
28.550000 701.048160 702.084419 703.149851 703.086359 704.032343 704.834291
28.630000 702.623198 703.908247 705.156758 705.297068 706.798800 708.757238
28.715000 704.345621 705.957797 707.947560 708.063581 710.283717 712.055383
28.800000 706.713262 708.720530 711.183341 710.812243 712.644426 713.754859
28.930000 711.459007 713.322514 714.431496 714.363767 715.470690 716.557763
29.005000 713.489702 714.805866 715.763916 715.757379 716.814931 717.983269
29.080000 715.013884 715.991163 716.940975 716.994252 718.038142 719.207939
29.155000 715.980676 717.111582 718.142774 718.152962 719.210936 720.358523
29.230000 717.162648 718.214873 719.249964 719.277643 720.356528 721.643628
29.305000 718.221841 719.350546 720.372183 720.427808 721.498884 722.857010
29.380000 719.490018 720.460005 721.542550 721.584433 722.695920 724.223513
29.455000 720.592219 721.553613 722.675878 722.795931 723.957305 725.672322
29.530000 721.794785 722.810294 723.864809 724.090812 725.405278 727.375147
29.605000 723.086405 724.105753 725.360533 725.608428 727.152538 729.312184
29.680000 724.383849 725.505976 726.978412 727.193482 728.925196 731.140947
29.755000 725.791368 726.904857 728.591875 728.825641 730.682927 733.019013
29.830000 726.914137 728.309720 730.276282 730.379600 732.443613 734.665309
29.940000 728.773241 730.322345 732.431165 732.568380 734.875065 737.163446
30.050000 730.707553 732.548462 734.805027 734.874770 737.151535 739.385895
30.130000 732.144527 734.214557 736.695636 736.626090 739.083491 740.662593
30.215000 733.862949 736.115992 738.610834 738.384570 740.705012 742.130410
30.300000 735.575063 738.051551 740.384858 740.138227 742.237834 743.388012
30.430000 738.581171 741.210053 743.176526 742.904426 744.492864 745.872522
30.505000 740.229984 742.868836 744.528111 744.345799 745.863239 747.135008
30.580000 742.130449 744.338000 745.765412 745.701479 747.185751 748.586107
30.655000 743.669168 745.575052 747.049683 746.976428 748.434307 749.825324
30.730000 745.082552 746.830597 748.258605 748.212641 749.678459 751.016490
30.805000 746.510837 748.013691 749.476883 749.441986 750.920478 752.360476
30.880000 747.866826 749.233991 750.674460 750.659138 752.085202 753.518825
30.955000 749.151756 750.477577 751.921564 751.888003 753.297330 754.722371
31.030000 750.353754 751.780870 753.108418 753.162915 754.595369 756.104533
31.105000 751.662575 753.079870 754.356893 754.506593 756.028362 757.818625
31.180000 753.249569 754.295573 755.818362 755.958316 757.553077 760.083764
31.260000 754.520341 755.891170 757.574122 757.841828 759.730422 762.893240
31.360000 756.352051 757.911179 760.330146 760.646900 763.181585 767.285883
31.460000 758.449124 760.757165 763.746955 763.892765 766.918005 770.598294
31.560000 761.021817 764.015217 767.433102 767.278580 770.147282 773.568090
31.640000 763.187990 767.589551 770.566548 770.749001 774.080240 778.423132
31.720000 765.171543 771.238943 774.306987 774.463315 778.248587 782.445304
31.820000 769.486310 774.881511 779.201865 779.009422 783.561145 786.786767
31.920000 772.650731 779.292099 784.213145 783.387666 787.419726 789.298987
32.020000 775.322032 785.492880 788.774682 787.658554 790.137498 791.423055
32.160000 790.046758 791.340336 792.458985 792.447462 793.512230 794.734227
32.240000 791.846188 793.167835 794.223024 794.285696 795.542227 796.731718
32.320000 793.597419 794.686542 795.853854 795.916085 797.188721 798.614194
32.420000 795.260436 796.311341 797.567349 797.666952 799.017342 800.732687
32.520000 796.770205 797.974508 799.226332 799.367170 800.829226 802.555917
32.620000 798.494675 799.666094 801.036284 801.103729 802.554663 804.332501
32.680000 799.527563 800.790949 802.114333 802.211460 803.716222 805.392896
32.770000 800.890761 802.278352 803.723046 803.817268 805.433089 807.241842
32.880000 802.947642 804.341661 805.828889 805.981497 807.638713 809.570966
32.990000 805.471352 806.514884 808.145424 808.371662 810.130879 812.683241
33.070000 807.098059 808.363047 810.071690 810.374957 812.383041 815.175204
33.155000 809.141398 810.863460 813.033717 813.525018 815.949836 820.971343
33.240000 811.821534 813.945565 816.326844 816.935089 820.100149 825.442305
33.315000 813.553276 815.913520 818.793514 819.583023 823.083935 829.647587
33.390000 815.697313 818.287091 821.570424 822.318280 826.392110 832.922086
33.520000 818.693085 822.278924 827.140645 827.619847 833.365417 837.129337
33.650000 823.079866 827.725497 833.316825 832.995911 837.899507 842.440565
33.735000 825.884257 831.247840 836.520864 836.105350 840.538697 845.947173
33.820000 828.830965 834.952207 839.510376 839.232092 842.963316 850.801276
33.895000 831.499382 838.023452 842.233999 842.204914 846.498509 852.830909
33.970000 834.723976 840.870424 844.962396 845.116889 850.043564 854.944696
34.045000 838.195392 843.565763 847.948917 848.074910 853.370949 856.678369
34.120000 842.067528 845.533471 851.064615 850.927289 855.947913 859.260979
34.195000 844.301207 847.599692 854.903947 853.783514 858.628133 861.329304
34.270000 846.647718 849.824816 857.734262 856.412905 860.961462 862.714132
34.380000 849.345494 855.351259 861.363982 860.027060 863.685292 865.393354
34.490000 851.986503 861.113473 864.712649 863.578390 866.404515 867.690424
34.570000 853.836208 864.097109 866.532431 865.806891 868.276775 870.068733
34.655000 857.060336 865.938166 868.178071 867.676717 869.983240 871.917520
34.740000 862.980838 867.740413 869.707605 869.525648 871.615989 874.051619
34.870000 869.144781 871.211890 873.309863 873.546730 875.882699 879.123304
34.970000 871.161581 873.516340 876.118620 876.370828 879.252568 883.335793
35.070000 873.704186 876.225456 878.979531 879.306431 882.426101 886.686465
35.170000 875.921114 878.979529 881.584171 881.946149 885.342211 889.245816
35.245000 877.994779 880.782623 883.459968 883.893091 887.359912 891.155167
35.320000 879.723776 882.806082 885.400426 885.750568 889.091384 893.222477
35.395000 881.381395 884.305703 887.024270 887.386065 890.795560 894.335771
35.470000 882.805038 885.795660 888.670164 888.998294 892.590432 895.639293
35.570000 884.628947 887.831358 890.697097 891.029675 894.701047 897.563720
35.670000 886.570753 889.646928 892.790796 893.024765 896.746898 899.596814
35.770000 887.954049 891.473610 894.778099 894.876329 898.544449 901.093533
35.870000 889.672258 893.012021 896.525893 896.554966 900.209978 903.077965
35.970000 891.508471 894.570191 898.053275 898.219483 901.810007 904.794872
36.070000 893.208207 896.287112 899.875008 899.891119 903.403656 906.084306
36.176667 895.175171 898.157543 901.752307 901.734469 905.331762 907.680055
36.283333 897.140462 900.030458 903.810688 903.587053 907.120856 909.302094
36.390000 898.763354 901.946921 905.621075 905.413212 908.744831 911.099194
36.520000 901.174782 904.270637 907.920400 907.684543 910.827350 912.971072
36.595000 902.892794 906.003655 909.396704 909.132396 912.055240 914.044860
36.670000 904.306340 907.828552 911.062033 910.717428 913.346855 915.305303
36.745000 906.135554 909.837513 912.790954 912.391799 914.729658 916.748761
36.820000 907.779114 912.055070 914.495387 914.141588 916.093417 918.680543
36.890000 909.050906 914.126538 916.167253 915.939750 917.801053 920.929924
36.970000 910.895332 916.867615 918.859014 918.714718 921.153542 923.515310
37.045000 912.355094 918.689941 921.383777 920.912982 923.596033 925.478311
37.120000 913.733324 920.308057 923.412341 922.829644 925.571172 927.216108
37.225000 917.075989 922.420086 925.401692 924.891503 927.393699 928.926081
37.330000 921.077158 924.655762 927.306650 926.872748 929.055328 930.731943
37.410000 923.175026 926.459707 928.715881 928.486078 930.560109 932.159860
37.490000 925.702485 928.104591 930.168797 930.081053 931.895546 933.733003
37.565000 927.467931 929.810155 931.710821 931.593953 933.368628 935.302313
37.640000 929.522540 931.323867 933.160464 933.135094 934.910690 936.811409
37.740000 931.394949 933.122649 935.068382 935.064617 936.990273 938.989243
37.880000 933.683007 935.667418 937.679760 937.762404 939.842653 942.404898
38.020000 936.372153 938.272998 940.283748 940.459254 942.630599 945.482264
38.095000 937.940506 939.651171 941.623705 941.882833 944.130777 947.239120
38.170000 939.378298 941.173882 943.016413 943.362376 945.663839 948.977952
38.270000 941.537750 943.145141 945.181651 945.516204 948.072348 950.943187
38.380000 943.398827 945.419716 947.681054 948.041174 950.968986 953.510882
38.490000 945.846906 947.858761 950.800482 950.766348 953.552014 955.699917
38.620000 948.848504 951.630687 954.718686 954.396663 956.913647 958.481194
38.750000 953.618769 957.186737 958.990754 958.732098 960.415294 961.811546
38.830000 959.902227 961.455595 962.913484 962.952612 964.444511 965.908378
38.910000 961.582333 963.411159 965.001301 965.053778 966.759254 968.569279
38.990000 963.211974 965.221958 966.913687 966.920024 968.631568 970.178950
39.070000 964.509529 966.895817 968.725245 968.835490 970.867179 972.630852
39.155000 966.483463 968.361515 970.230736 970.423189 972.601423 974.728519
39.240000 968.431065 969.876022 971.562677 971.952007 974.133051 976.910127
39.370000 970.636130 972.207550 974.247024 974.464612 976.630985 980.524014
39.445000 971.881622 973.551442 975.823478 976.024740 978.425564 982.089028
39.520000 973.199547 974.976785 977.470864 977.646749 980.181170 983.304084
39.650000 975.563442 977.889808 980.539259 980.596412 983.083824 986.412043
39.735000 977.386197 980.133683 982.650027 982.817744 985.691848 988.723233
39.820000 980.544937 982.404240 984.949433 985.080954 987.882989 990.154403
39.895000 982.444791 984.272310 986.947827 986.967814 989.461269 991.589275
39.970000 983.984671 986.313181 989.081772 988.883615 991.125775 993.026570
40.045000 985.666229 988.655620 991.063908 990.813738 992.873403 994.504668
40.120000 987.807434 990.793730 992.795388 992.623029 994.538377 995.977079
40.220000 990.542612 992.963821 994.837669 994.682436 996.373249 997.771569
40.320000 993.042138 994.852582 996.808197 996.598972 998.216068 999.475592
40.405000 994.462313 996.257252 998.189390 998.005247 999.574879 1000.681260
40.490000 995.990524 997.851205 999.644501 999.441373 1000.851752 1001.994064
40.570000 997.793823 999.468412 1001.084946 1000.929427 1002.226281 1003.409270
40.655000 999.926503 1001.456481 1002.860678 1002.944424 1004.434392 1006.733586
40.740000 1002.491158 1003.445542 1004.888176 1005.139380 1006.874480 1009.413638
40.840000 1004.347494 1005.480325 1007.340399 1007.553771 1009.716795 1011.852739
40.930000 1005.826102 1007.601504 1009.745940 1009.898942 1012.281654 1014.410650
41.020000 1008.039722 1009.941865 1012.353062 1012.307182 1014.589438 1016.714975
41.095000 1009.805908 1011.893971 1014.158336 1014.208111 1016.549072 1018.755292
41.170000 1011.760474 1013.677995 1015.949821 1015.958486 1018.251607 1020.054617
41.245000 1013.139452 1015.225351 1017.517914 1017.490766 1019.648327 1021.337101
41.320000 1014.647889 1016.885638 1019.105038 1018.992354 1021.140714 1022.704892
41.395000 1015.979442 1018.378642 1020.598845 1020.429476 1022.443359 1023.867445
41.470000 1017.393653 1019.995720 1022.058340 1021.878508 1023.765282 1025.055858
41.545000 1018.948558 1021.449186 1023.416979 1023.263954 1025.152116 1026.344016
41.620000 1020.594018 1022.932186 1024.806272 1024.635763 1026.406413 1027.603758
41.670000 1021.505847 1023.844579 1025.730825 1025.544436 1027.279646 1028.448225
41.750000 1022.768502 1025.245074 1027.091751 1026.889750 1028.515560 1029.762763
41.830000 1024.749942 1026.664882 1028.417051 1028.271891 1029.758143 1031.131601
41.970000 1027.381775 1029.231015 1030.717057 1030.616030 1032.018001 1033.193921
42.070000 1029.295589 1030.894975 1032.373983 1032.354338 1033.791042 1035.402133
42.170000 1031.167223 1032.618214 1034.016522 1034.125358 1035.653611 1037.586038
42.270000 1033.382541 1034.416577 1035.665042 1035.899710 1037.497703 1039.542480
42.330000 1034.250187 1035.398563 1036.673626 1036.903922 1038.588620 1040.574698
42.430000 1035.556671 1036.882401 1038.264296 1038.507973 1040.326137 1042.199230
42.570000 1037.389219 1038.858080 1040.497397 1040.681008 1042.651269 1044.631360
42.670000 1038.896251 1040.325967 1041.984286 1042.268346 1044.379839 1046.544708
42.770000 1040.308259 1041.809872 1043.560954 1043.849974 1045.985585 1048.296725
42.870000 1041.869391 1043.278638 1045.134141 1045.438117 1047.780933 1049.959122
42.970000 1043.570990 1044.973719 1047.069992 1047.203402 1049.428054 1051.744259
43.070000 1045.173331 1046.615895 1049.056398 1049.037833 1051.346405 1053.584693
43.170000 1046.956469 1048.588478 1050.854519 1050.842875 1053.036616 1055.036190
43.245000 1048.267217 1049.927564 1052.143893 1052.128774 1054.199473 1056.212899
43.320000 1049.623081 1051.432154 1053.505625 1053.507158 1055.511419 1057.426437
43.430000 1051.489457 1053.397191 1055.435399 1055.391574 1057.405108 1059.088935
43.540000 1053.556396 1055.462113 1057.406325 1057.381524 1059.347080 1061.225702
43.625000 1055.400116 1057.270361 1059.148906 1059.187542 1060.981454 1063.508360
43.710000 1057.459311 1059.212330 1060.918389 1061.047226 1062.920154 1065.305915
43.790000 1058.743624 1060.661240 1062.456376 1062.587781 1064.534788 1067.059423
43.920000 1061.111265 1062.750899 1064.631655 1064.756266 1066.746843 1068.974934
43.995000 1062.402796 1064.039470 1065.993988 1066.104953 1068.084877 1070.477624
44.070000 1063.640895 1065.376260 1067.529720 1067.511688 1069.544817 1071.990192
44.145000 1065.028710 1066.766070 1069.062316 1069.075866 1071.257077 1073.809683
44.220000 1066.413900 1068.327151 1070.603435 1070.695117 1073.056688 1075.396903
44.295000 1067.655147 1070.010606 1072.378656 1072.595065 1075.122920 1078.413837
44.370000 1069.553443 1071.867222 1074.460609 1074.830679 1077.810390 1081.705539
44.470000 1072.038811 1074.562822 1078.409422 1078.751867 1082.725170 1087.504060
44.570000 1075.004961 1078.154115 1082.532315 1082.891590 1087.728753 1092.536400
44.670000 1077.513144 1081.979925 1087.175645 1087.039787 1091.894656 1096.221092
44.745000 1079.349739 1084.434844 1089.854318 1089.718015 1094.527464 1099.888353
44.820000 1081.517835 1086.785628 1092.468773 1092.358662 1097.263353 1103.189052
44.900000 1083.193993 1089.408874 1095.021177 1095.028841 1100.258680 1108.496308
45.040000 1086.404781 1093.905885 1099.716568 1101.352446 1111.664057 1114.212951
45.120000 1088.214827 1096.753377 1104.016143 1104.436831 1113.587652 1115.746303
45.205000 1089.617304 1100.729772 1110.358651 1108.139147 1115.150938 1117.559253
45.290000 1091.148212 1106.745625 1114.223275 1111.909100 1116.908611 1119.192656
45.400000 1094.623143 1114.145785 1117.141559 1115.381869 1119.309393 1121.517845
45.485000 1097.475397 1116.356235 1119.287935 1117.626352 1121.327007 1123.223204
45.570000 1100.762800 1118.652439 1121.356975 1119.950028 1123.365608 1125.376312
45.670000 1107.821867 1120.836548 1123.564023 1122.750879 1125.917313 1128.292707
45.770000 1116.094285 1123.295611 1125.861815 1125.446688 1128.185578 1130.758487
45.870000 1123.956761 1126.139791 1128.160564 1128.197888 1130.314784 1133.299342
45.945000 1125.992514 1128.129769 1130.082358 1130.083740 1132.108469 1134.768127
46.020000 1127.916155 1130.185983 1132.087381 1132.038941 1133.896480 1136.035804
46.090000 1129.457979 1132.082025 1133.988144 1133.964244 1136.011671 1138.150977
46.165000 1131.456120 1133.911235 1135.954433 1135.938899 1138.093854 1141.204125
46.240000 1133.533359 1135.625323 1137.743545 1137.827939 1140.143950 1143.006018
46.325000 1135.199323 1137.397241 1139.698918 1139.853000 1142.568102 1145.182020
46.410000 1136.757652 1139.029107 1141.708037 1141.745033 1144.520475 1146.845394
46.525000 1138.962723 1141.333231 1144.338787 1144.227311 1147.159044 1149.216387
46.640000 1141.322211 1143.960852 1146.890245 1146.697800 1149.442831 1151.630079
46.715000 1142.657444 1145.666882 1148.626224 1148.432696 1151.026180 1153.580519
46.790000 1144.653216 1147.425219 1150.259349 1150.119856 1152.549168 1155.803177
46.920000 1147.245177 1150.298883 1152.952676 1152.967506 1155.570211 1159.581693
47.046667 1149.353086 1152.387221 1155.398483 1155.435069 1158.453995 1162.812836
47.173333 1151.706166 1154.559715 1157.533993 1157.887335 1161.284095 1165.510650
47.300000 1154.022465 1156.804860 1159.818405 1160.340185 1163.899648 1169.494287
47.410000 1156.132082 1158.882307 1161.923033 1162.441298 1166.165744 1172.529505
47.520000 1158.013512 1160.843702 1164.079387 1164.652448 1168.492292 1174.729275
47.595000 1159.452104 1162.419094 1165.570450 1166.242450 1170.300481 1176.416439
47.670000 1160.760141 1164.053877 1167.038382 1167.845477 1171.880759 1177.782637
47.800000 1163.488265 1166.684137 1169.887007 1170.757875 1175.649994 1180.670032
47.910000 1165.708651 1169.424724 1172.386846 1173.363017 1179.065022 1183.219019
48.040000 1168.698023 1172.563597 1175.539863 1176.366439 1181.867282 1185.692254
48.120000 1170.198280 1174.336548 1177.696082 1178.521932 1184.434405 1187.203419
48.205000 1172.201501 1176.634861 1180.900896 1181.175621 1186.468619 1188.463540
48.290000 1175.254689 1179.153189 1184.580748 1183.883895 1188.292195 1189.844557
48.420000 1180.357872 1184.904535 1189.558720 1188.436327 1191.152939 1192.348288
48.460000 1181.428796 1186.636163 1190.393787 1189.455537 1191.801794 1193.184272
48.570000 1190.742725 1192.051974 1193.005566 1192.965235 1193.949514 1195.089146
48.700000 1193.460105 1194.257078 1195.214923 1195.298375 1196.347220 1197.394291
48.720000 1193.869925 1194.641027 1195.648171 1195.735941 1196.813415 1197.889700
48.795000 1195.028761 1195.945054 1197.209247 1197.313094 1198.613638 1200.348155
48.870000 1196.237115 1197.330443 1198.736625 1198.865666 1200.432164 1202.298630
48.945000 1197.258978 1198.690219 1200.216452 1200.341209 1202.023743 1204.254727
49.020000 1198.457707 1199.937921 1201.724742 1201.774384 1203.488843 1205.829491
49.090000 1199.474149 1201.218255 1203.171931 1203.162274 1204.993493 1207.396044
49.170000 1200.862332 1202.732081 1204.570190 1204.657103 1206.500389 1209.176968
49.245000 1202.285816 1204.163300 1205.848600 1206.046094 1207.895668 1210.816940
49.320000 1203.690351 1205.446509 1207.217847 1207.454640 1209.371619 1212.627436
49.390000 1205.012774 1206.811897 1208.452696 1208.839345 1210.745368 1215.230241
49.465000 1206.676424 1208.375617 1210.255117 1210.825990 1213.500678 1217.827758
49.540000 1208.554901 1210.056980 1212.222775 1213.013779 1216.587855 1219.897534
49.620000 1210.193187 1211.844241 1215.391467 1215.569731 1219.566479 1221.892609
49.705000 1212.177029 1214.524817 1218.608530 1218.436561 1222.077390 1223.987841
49.790000 1214.386878 1217.762803 1222.142242 1221.400950 1224.501620 1226.121532
49.920000 1220.980316 1224.185027 1226.219918 1226.138582 1228.100318 1231.119026
49.995000 1224.397493 1226.526826 1228.371439 1228.474343 1230.455563 1233.568993
50.070000 1226.840936 1228.543001 1230.470208 1230.681209 1232.816529 1235.726191
50.145000 1228.384994 1230.168376 1232.287512 1232.521971 1234.929552 1237.843009
50.220000 1229.887356 1231.726348 1234.100816 1234.266759 1236.886997 1239.622748
50.295000 1231.327971 1233.260250 1235.785373 1235.916842 1238.702750 1241.083125
50.370000 1232.801682 1234.878766 1237.490080 1237.565197 1240.364635 1242.274990
50.445000 1234.384562 1236.554691 1239.415386 1239.306937 1241.961415 1243.907309
50.520000 1236.183205 1238.535008 1241.301406 1241.121638 1243.606855 1245.334972
50.620000 1238.608166 1241.487414 1244.280394 1243.924130 1246.286593 1247.978401
50.720000 1241.650155 1244.760048 1246.952289 1246.679191 1248.603817 1250.199187
50.820000 1246.021875 1247.908929 1249.279974 1249.316013 1250.792817 1252.283155
50.890000 1247.846577 1249.403023 1250.600872 1250.706611 1252.172065 1253.571985
50.965000 1249.250708 1250.620197 1251.922227 1251.983747 1253.472802 1254.845922
