depth(m) lower_95(kyr) lower_68(kyr) median(kyr) mean(kyr) upper_68(kyr) upper_95(kyr)
42.730000 1424.198881 1425.147352 1426.078697 1426.063894 1426.977630 1427.986270
42.850000 1427.393407 1428.823495 1430.652002 1431.272105 1433.829576 1438.141434
42.970000 1430.377572 1432.464245 1436.293245 1436.523999 1440.505761 1444.219652
43.080000 1433.742371 1436.592865 1441.601762 1441.302602 1445.763010 1448.639791
43.210000 1438.460441 1443.242545 1448.009123 1447.236364 1450.666890 1452.879177
43.285000 1443.161374 1448.287106 1451.528306 1451.107097 1454.097033 1456.276814
43.360000 1449.315114 1452.512570 1454.662790 1454.622289 1456.864087 1459.031865
43.490000 1453.670781 1455.966173 1458.064804 1458.199369 1460.607039 1462.682853
43.590000 1455.952783 1458.311124 1460.723800 1460.709766 1463.143597 1465.653070
43.690000 1458.438886 1460.846970 1463.155879 1463.213158 1465.618093 1468.287430
43.770000 1460.578624 1462.844097 1465.323027 1465.422558 1467.947585 1470.788397
43.850000 1463.080644 1465.158646 1467.697505 1467.770523 1470.372256 1473.262471
43.976667 1466.289287 1468.771164 1471.654721 1471.754122 1474.763317 1478.107968
44.103333 1469.659509 1472.417270 1475.861290 1475.837738 1479.328052 1482.296417
44.230000 1473.522333 1476.604430 1479.972754 1479.961807 1483.335680 1485.866500
44.360000 1477.849142 1481.088717 1484.362689 1484.341476 1487.489354 1490.180753
44.470000 1481.938251 1484.926940 1488.138211 1488.642015 1490.814079 1504.605321
44.580000 1485.977462 1488.943008 1491.637314 1492.993904 1494.037950 1518.834485
44.710000 1490.956075 1492.939070 1495.004758 1497.648615 1498.145827 1528.513011
44.730000 1492.074242 1493.773797 1495.757529 1498.524015 1498.855772 1529.929715
44.860000 1496.466927 1498.509757 1500.609457 1503.738759 1503.750228 1538.095145
44.990000 1500.452789 1502.822401 1505.630293 1509.085967 1509.871112 1544.531898
45.090000 1503.659440 1506.088902 1509.051361 1512.778061 1513.817941 1548.760289
45.190000 1506.942359 1509.365755 1512.478375 1516.518697 1517.973091 1553.325157
45.270000 1509.203023 1512.012549 1515.464424 1519.514223 1521.451251 1556.769280
45.350000 1511.778483 1514.590700 1518.550272 1522.614587 1524.553827 1559.943427
45.400000 1513.536235 1516.604755 1520.683699 1524.648913 1526.552581 1561.922641
45.530000 1518.642610 1521.938231 1526.145776 1530.107030 1531.576432 1566.942662
45.640000 1524.311486 1531.411485 1535.426877 1538.371823 1539.896159 1571.397498
45.750000 1528.069017 1536.632571 1541.583855 1544.120692 1547.354928 1574.560546
45.820000 1531.375390 1539.713606 1544.000773 1547.068612 1550.813815 1576.662959
45.910000 1537.692286 1543.519783 1547.379355 1550.810369 1555.507167 1579.534178
46.020000 1544.517670 1547.840878 1551.832842 1555.541523 1560.638672 1582.901340
46.140000 1549.208791 1552.068896 1556.867884 1560.617354 1567.069473 1586.703779
46.200000 1550.803434 1554.570090 1559.317843 1563.219886 1573.253628 1588.531774
46.270000 1553.680677 1557.664849 1562.770032 1566.479844 1580.826214 1590.972591
46.390000 1558.841010 1563.518608 1568.577389 1572.479978 1587.898468 1594.873683
46.465000 1563.004272 1568.033541 1572.733568 1576.577529 1591.050843 1597.234116
46.540000 1569.942191 1573.731483 1577.111882 1581.304335 1594.035493 1599.825248
46.680000 1582.416009 1592.547545 1598.989304 1597.700005 1602.592447 1606.678787
46.730000 1585.271968 1596.455179 1601.951581 1600.801797 1605.513128 1609.342254
46.790000 1587.299853 1599.754130 1605.271035 1604.135122 1609.319497 1612.493322
46.920000 1592.196440 1605.811053 1611.584283 1610.277225 1615.477983 1619.531434
47.030000 1597.658168 1609.666512 1615.962136 1614.679591 1620.004427 1624.347526
47.130000 1603.080194 1613.269894 1619.833823 1618.665922 1623.926669 1627.844981
47.260000 1611.727340 1618.573663 1624.541612 1623.658585 1628.266256 1632.065497
47.335000 1615.558277 1622.232426 1627.545584 1626.776069 1631.017970 1634.472626
47.410000 1619.750202 1626.310422 1630.688681 1630.007321 1633.839609 1637.217145
47.530000 1627.116418 1631.908946 1635.167054 1634.906609 1638.081236 1640.785438
47.650000 1632.987539 1636.818178 1639.733805 1639.612483 1642.554122 1645.005465
47.700000 1636.184327 1639.419777 1642.125866 1642.105487 1645.020655 1647.750359
47.770000 1638.748515 1642.121245 1645.155258 1645.163087 1648.348772 1651.300698
47.850000 1641.612225 1644.520923 1647.810217 1647.870711 1651.302894 1654.654221
47.930000 1643.798049 1646.874156 1650.493131 1650.441263 1654.052216 1657.156207
48.030000 1647.038978 1649.862582 1653.579507 1653.535358 1657.207434 1660.066008
48.110000 1649.655793 1652.679551 1656.206640 1656.136180 1659.575050 1662.564403
48.190000 1652.381053 1655.652503 1658.947255 1658.881530 1661.969054 1664.844541
48.210000 1653.230918 1656.624790 1659.865809 1659.785858 1662.813072 1665.840593
48.270000 1656.902393 1659.954168 1662.918839 1662.912991 1665.883164 1669.464162
48.320000 1660.191740 1663.477323 1666.449034 1666.531241 1669.706142 1673.444571
48.380000 1665.003592 1668.255688 1671.659705 1671.805152 1675.403302 1679.552247
48.430000 1668.250295 1670.927373 1674.381883 1674.680813 1678.380413 1682.842475
48.490000 1670.098505 1673.286741 1677.091557 1677.393460 1681.255527 1685.728430
48.540000 1672.340594 1675.685758 1679.630144 1679.800362 1683.924942 1688.162513
48.630000 1675.722357 1679.728733 1684.058066 1684.015079 1688.480318 1692.164651
48.770000 1681.339457 1686.075338 1691.141203 1690.683445 1694.937900 1698.059852
48.880000 1686.237906 1691.679393 1696.413223 1695.831641 1699.800294 1702.548624
48.990000 1692.271508 1697.372899 1701.052007 1700.728513 1704.002545 1706.635006
49.080000 1695.899664 1700.352116 1704.068622 1703.886061 1707.341307 1710.574888
49.190000 1699.756993 1704.031285 1707.704745 1707.567771 1710.923872 1714.970715
49.290000 1702.950248 1707.196709 1710.772704 1710.756407 1714.306993 1717.994528
49.420000 1708.408065 1711.702253 1715.150397 1715.246296 1718.715590 1723.097797
49.490000 1710.773537 1713.876511 1717.413688 1717.586394 1721.272957 1725.556110
49.540000 1712.550183 1715.452007 1719.132036 1719.279205 1722.983503 1727.286901
49.630000 1715.004285 1718.331591 1722.025857 1722.144445 1726.020652 1729.957457
49.770000 1718.807708 1722.295829 1726.259007 1726.322728 1730.240248 1734.263620
49.910000 1721.962098 1726.492227 1730.396688 1730.393413 1734.441527 1738.551975
49.990000 1724.317283 1729.042385 1732.977610 1732.980341 1737.040003 1740.733993
50.030000 1725.542166 1730.423279 1734.425828 1734.447495 1738.503272 1742.423280
50.130000 1729.161334 1734.075695 1738.341721 1738.156186 1742.193384 1746.309463
50.270000 1734.258929 1739.397223 1744.203828 1743.831420 1747.947928 1751.889905
50.375000 1737.583266 1743.221356 1748.265275 1747.793131 1752.269753 1755.432611
50.480000 1740.777424 1747.146683 1752.218092 1751.596772 1755.917628 1758.970607
50.540000 1742.324207 1749.441310 1754.210819 1753.605323 1757.709004 1761.136811
50.620000 1746.045269 1752.656025 1756.623848 1756.221630 1760.056534 1763.084353
50.700000 1750.508225 1755.709390 1758.967168 1758.744696 1762.142701 1765.436608
50.790000 1754.260162 1758.349827 1761.462096 1761.445643 1764.587320 1767.855777
50.910000 1758.462767 1761.654700 1764.510679 1764.590248 1767.456455 1770.603884
50.990000 1760.875659 1763.757505 1766.497356 1766.610124 1769.524511 1772.489206
51.040000 1762.108272 1765.147900 1767.778864 1767.893492 1770.849965 1773.899890
51.130000 1764.453111 1767.098741 1769.923017 1770.045597 1772.924107 1776.541609
51.270000 1767.514072 1770.346654 1773.174394 1773.287740 1776.334003 1779.694401
51.410000 1771.091299 1773.661681 1776.414962 1776.590767 1779.780154 1782.923303
51.490000 1773.128494 1775.910971 1778.566979 1778.886133 1782.193966 1785.801177
51.520000 1773.998074 1776.883032 1779.631472 1779.911394 1783.164754 1786.666786
51.640000 1778.420785 1781.019525 1784.448112 1784.456461 1787.886199 1790.982383
51.770000 1783.418198 1787.121282 1790.749864 1790.549404 1794.052294 1796.450584
51.875000 1787.003869 1791.046609 1794.629450 1794.396042 1797.813980 1800.505583
51.980000 1791.063156 1794.908636 1798.164881 1798.055595 1801.217676 1803.849783
52.030000 1792.589268 1796.717173 1800.227349 1800.037901 1803.171904 1806.343499
52.130000 1796.769054 1800.217501 1803.372748 1803.405734 1806.497086 1810.355414
52.200000 1799.557296 1802.416482 1805.539705 1805.862820 1809.306384 1813.559414
52.290000 1801.899939 1804.878034 1808.322872 1808.745673 1813.146737 1816.931272
52.365000 1803.895637 1806.987047 1810.570052 1811.133359 1815.823444 1820.277292
52.440000 1806.236724 1809.242315 1813.045098 1813.629908 1818.314787 1822.639649
52.535000 1808.624483 1811.945728 1816.396822 1816.690301 1821.527634 1825.897247
52.630000 1811.184568 1814.793980 1819.633450 1819.709549 1824.484912 1829.208885
52.770000 1815.363302 1818.738968 1824.159712 1824.066698 1828.733337 1833.786086
52.900000 1819.075577 1823.355605 1828.313975 1828.315715 1832.832196 1839.151915
52.980000 1821.868855 1826.607605 1830.758266 1831.097880 1835.261365 1842.745960
53.030000 1824.095298 1828.406035 1832.751211 1832.959312 1836.900429 1844.589600
53.120000 1827.363867 1831.980566 1835.843839 1836.163615 1839.880006 1848.676021
53.195000 1830.647608 1834.467912 1838.190234 1838.720687 1842.448610 1851.871752
53.270000 1833.526510 1836.986043 1840.657027 1841.252289 1844.994242 1854.885004
53.375000 1836.658054 1840.312574 1844.241614 1844.827994 1848.659274 1860.515139
53.480000 1839.499461 1843.507374 1848.001758 1848.504271 1852.565516 1864.962806
53.540000 1841.999880 1845.694800 1850.162579 1850.802589 1855.339700 1866.988608
53.680000 1846.432802 1850.540999 1856.020084 1857.165146 1864.521700 1872.145563
53.790000 1849.550557 1855.830805 1863.654542 1863.459623 1871.457541 1875.633969
53.900000 1852.934289 1862.499584 1870.983037 1869.498209 1875.895590 1878.680692
53.980000 1855.430842 1867.574990 1874.588423 1872.936457 1878.440093 1880.494659
54.020000 1856.904693 1869.343280 1876.110958 1874.365498 1879.590868 1881.568437
54.120000 1863.166693 1873.754314 1878.982620 1877.784510 1881.821241 1883.795630
54.230000 1870.809043 1878.408687 1881.934343 1881.163685 1884.275011 1886.101848
54.240000 1871.204761 1878.764530 1882.202157 1881.455930 1884.522356 1886.379100
54.330000 1874.405233 1881.592094 1884.474383 1883.935478 1886.614193 1888.259663
54.420000 1880.146858 1884.359756 1886.636806 1886.333267 1888.518589 1890.104436
54.490000 1882.949757 1886.257373 1888.327113 1888.092143 1890.152510 1891.715309
54.530000 1884.228923 1887.181945 1889.223017 1889.052944 1890.972689 1892.724176
54.640000 1886.869013 1889.593758 1891.604188 1891.410345 1893.303773 1894.870878
54.770000 1889.988915 1892.411949 1894.216628 1894.173841 1896.014369 1897.821300
54.875000 1892.200359 1894.505188 1896.390488 1896.404470 1898.238903 1900.752959
54.980000 1895.072062 1896.851060 1898.537558 1898.728539 1900.514825 1903.587050
55.040000 1896.611255 1898.312302 1899.970104 1900.245235 1902.202047 1905.606487
55.180000 1899.875469 1901.572414 1903.699245 1903.944491 1906.280448 1909.250767
55.290000 1902.479693 1904.669773 1906.962104 1907.050005 1909.479384 1911.896262
55.390000 1905.634009 1907.793306 1910.256384 1910.275252 1912.699665 1915.329573
55.430000 1906.976336 1909.074597 1911.686322 1911.709492 1914.143096 1917.264161
55.510000 1909.553381 1911.673044 1914.181773 1914.310612 1916.966403 1919.960050
55.580000 1911.317981 1913.975608 1916.630717 1916.763330 1919.703034 1922.532536
55.690000 1914.143973 1917.030628 1920.079467 1920.193676 1923.376517 1926.956780
55.770000 1916.602165 1919.427655 1922.689834 1922.855738 1926.304368 1929.898288
55.900000 1921.061398 1924.081858 1927.474954 1927.487926 1930.940084 1934.008373
56.000000 1924.306793 1927.664938 1931.173170 1931.093185 1934.367029 1936.851439
56.100000 1928.579930 1931.616640 1934.984278 1934.720150 1937.636036 1939.915688
56.200000 1932.107266 1935.823603 1938.769254 1938.509847 1941.093063 1943.834244
56.270000 1935.392529 1939.117996 1941.993215 1941.942885 1944.606174 1948.624673
56.355000 1939.186880 1942.237070 1945.202556 1945.487513 1948.915005 1953.035593
56.440000 1941.864383 1945.064879 1948.706242 1948.842788 1952.811114 1956.608497
56.490000 1943.860302 1946.572396 1950.804005 1950.825574 1955.070809 1958.796733
56.540000 1945.490835 1948.299959 1952.711095 1952.711982 1956.816932 1960.951092
56.680000 1949.507669 1952.988624 1957.731709 1957.629771 1962.073022 1965.871417
56.790000 1953.353004 1957.734313 1962.513650 1962.249834 1966.606957 1970.461439
56.905000 1959.253274 1963.881262 1968.267554 1968.281206 1972.613022 1977.400031
57.020000 1967.049732 1970.857964 1974.277115 1974.484227 1978.283705 1982.551350
57.080000 1971.334367 1974.651896 1977.486003 1977.723171 1981.182143 1984.384214
57.110000 1972.567642 1976.055061 1978.864127 1979.042470 1982.393115 1985.623972
57.200000 1975.423199 1979.307983 1982.918112 1982.797564 1986.301726 1989.733611
57.230000 1976.308724 1980.223268 1984.262074 1983.974818 1987.502205 1990.513031
57.270000 1978.054154 1981.742278 1985.801410 1985.521267 1989.091586 1992.472207
57.340000 1980.807472 1984.595972 1988.461909 1988.239090 1991.938998 1995.023279
57.465000 1986.025621 1989.630294 1993.922433 1993.863258 1997.813757 2001.932970
57.590000 1990.388080 1995.370492 1999.750662 1999.396091 2003.432279 2006.607725
57.665000 1992.764441 1997.886781 2002.516759 2002.140661 2006.403321 2009.218532
57.740000 1995.166037 2000.325480 2005.040760 2004.655742 2008.863711 2011.585979
57.860000 2000.302539 2004.602642 2008.696000 2008.291285 2011.949016 2014.454765
57.980000 2004.672169 2008.970140 2012.239974 2012.006789 2015.137590 2017.635973
58.090000 2008.628192 2012.361004 2015.408810 2015.181617 2017.959089 2020.221697
58.120000 2009.941831 2013.399626 2016.393243 2016.133714 2018.818470 2020.894862
58.250000 2014.170102 2017.426890 2019.893383 2019.843360 2022.211820 2024.509245
58.370000 2017.751711 2020.706646 2022.980186 2022.995309 2025.268586 2028.655560
58.450000 2020.237505 2022.775955 2025.059892 2025.111599 2027.418859 2030.714792
58.565000 2022.740690 2025.469321 2027.880405 2028.023904 2030.370741 2034.441235
58.680000 2025.801017 2028.363052 2030.773494 2030.964932 2033.450070 2038.104584
58.790000 2028.730434 2031.237740 2033.599822 2034.040650 2036.893581 2041.783081
58.920000 2031.820688 2034.424383 2037.093409 2037.701443 2041.310265 2046.142300
58.980000 2033.829384 2036.210421 2038.986522 2039.622787 2043.327916 2047.767404
59.020000 2035.097541 2037.331489 2040.393090 2040.890686 2044.801537 2049.073093
59.070000 2036.836429 2038.815186 2042.072463 2042.471079 2046.220110 2050.484836
59.200000 2040.087699 2042.265631 2046.083583 2046.347059 2050.275358 2053.893002
59.310000 2042.884666 2045.973125 2049.974658 2049.985661 2054.181721 2056.946763
59.370000 2044.827458 2047.719775 2051.962423 2051.992499 2056.229646 2058.711997
59.480000 2048.145511 2051.733893 2055.921888 2055.671694 2059.375098 2061.822543
59.570000 2051.555716 2055.428589 2059.373516 2058.911447 2062.214903 2064.296621
59.610000 2053.280780 2057.391858 2061.124251 2060.608748 2063.674347 2065.760568
59.700000 2059.555332 2063.118454 2065.687219 2065.528826 2068.040353 2070.550667
59.810000 2064.906442 2067.185508 2069.308693 2069.369118 2071.426004 2073.950601
59.850000 2066.322697 2068.542518 2070.650212 2070.682558 2072.862767 2075.195798
59.940000 2068.673104 2070.974266 2073.091160 2073.222517 2075.578737 2078.802897
60.020000 2071.014523 2073.081095 2075.208854 2075.608504 2078.279052 2081.999514
60.100000 2073.091910 2075.406108 2077.994468 2078.349227 2081.248629 2085.134903
60.180000 2075.084686 2077.724124 2080.843821 2080.999168 2084.304326 2087.559749
60.240000 2076.946003 2079.557176 2083.204844 2083.219849 2086.852812 2090.201820
60.300000 2078.483549 2081.582579 2085.530696 2085.578788 2089.228931 2093.275977
60.420000 2081.291867 2085.302557 2091.601691 2091.045077 2096.099345 2100.456704
60.500000 2082.993230 2087.267056 2094.752327 2093.909566 2099.337601 2104.216558
60.570000 2084.739456 2088.863394 2097.537792 2096.221214 2102.328473 2107.070019
60.630000 2086.170290 2090.105035 2099.613043 2098.179514 2104.706613 2109.403395
60.680000 2087.759924 2091.423903 2101.436433 2099.837861 2106.272470 2111.221591
60.700000 2088.344578 2092.015577 2102.106781 2100.525567 2106.967258 2111.947202
60.820000 2091.626446 2096.389204 2105.881835 2104.584496 2110.439045 2114.976418
60.905000 2094.132469 2100.009323 2108.910496 2107.604204 2113.378572 2117.055043
60.990000 2096.919052 2103.872849 2111.942987 2110.613923 2116.163524 2119.259507
61.070000 2099.566686 2107.796517 2114.868175 2113.530552 2118.763316 2121.460574
61.110000 2101.353068 2109.493244 2116.233610 2114.963467 2119.960610 2122.670849
61.220000 2105.702211 2114.870684 2119.651355 2118.736416 2122.695480 2125.958790
61.350000 2112.093476 2119.791934 2123.465281 2123.028898 2126.630258 2130.688429
61.430000 2115.322574 2122.404192 2126.053056 2125.868779 2129.655978 2134.184478
61.510000 2120.261007 2125.383423 2128.649526 2128.775366 2132.708474 2136.416878
61.595000 2124.037907 2128.211076 2131.828352 2131.902535 2136.296647 2139.062855
61.680000 2127.658328 2131.148774 2134.917770 2134.909685 2138.897735 2141.307659
61.810000 2132.726779 2135.973215 2140.073309 2139.591356 2142.852360 2145.024200
61.900000 2136.892250 2140.420140 2143.881838 2143.427626 2146.189698 2148.719923
61.990000 2142.461204 2145.144175 2147.102362 2147.074687 2148.945241 2151.702333
62.070000 2146.013571 2147.805618 2149.524103 2149.642587 2151.444075 2154.232907
62.190000 2149.163208 2150.922525 2152.746297 2152.896810 2154.976027 2157.418924
62.285000 2151.325709 2153.184710 2155.261690 2155.474073 2157.930849 2160.431150
62.380000 2153.399580 2155.862177 2158.119117 2158.240082 2160.686973 2163.362955
62.485000 2156.737679 2159.083807 2161.700148 2161.780920 2164.457020 2167.475078
62.590000 2160.503274 2162.881388 2165.436040 2165.492454 2168.142636 2171.307341
62.710000 2164.301976 2166.653344 2169.447429 2169.586272 2172.278858 2176.269887
62.850000 2168.451935 2171.226428 2174.490943 2175.154458 2179.369451 2185.090828
62.935000 2170.718464 2173.944927 2178.285509 2178.667953 2183.693079 2187.716497
63.020000 2173.325620 2177.050499 2182.455330 2182.164252 2187.022839 2190.297488
63.100000 2176.364790 2180.732137 2186.064747 2185.523170 2189.796831 2192.665918
63.180000 2179.445655 2185.070540 2189.059595 2188.628681 2192.310183 2195.044920
63.275000 2184.149997 2188.578565 2192.045052 2191.779170 2195.117069 2197.745791
63.370000 2188.336037 2191.759028 2194.839466 2194.719490 2197.590743 2200.040526
63.510000 2192.604658 2195.776058 2198.534778 2198.403781 2201.075723 2203.083330
63.570000 2194.142150 2197.381935 2200.054834 2199.949841 2202.558433 2204.677887
63.685000 2197.143215 2200.041746 2202.658261 2202.578886 2204.982666 2207.544886
63.800000 2199.852841 2202.789292 2205.203558 2205.255448 2207.516490 2210.403689
63.890000 2202.825285 2205.124309 2207.521159 2207.638936 2210.090424 2214.017402
63.980000 2205.548798 2207.585162 2209.793216 2210.171030 2212.666055 2216.443923
64.070000 2208.016196 2209.956241 2212.173297 2212.677839 2215.188523 2220.903169
64.090000 2208.665351 2210.545649 2212.727859 2213.262807 2215.907505 2221.314731
64.220000 2211.538529 2213.726975 2216.320700 2216.779538 2219.838268 2225.577331
64.350000 2214.385920 2216.805892 2219.964606 2220.506428 2224.332833 2229.221961
64.435000 2216.567128 2219.097619 2222.723301 2223.145807 2227.233027 2231.925340
64.520000 2218.759863 2221.787717 2225.752336 2225.967613 2230.265325 2234.097049
64.600000 2220.912937 2224.524858 2228.642325 2228.743427 2232.945408 2236.449024
64.680000 2223.355118 2227.819400 2231.896997 2231.692267 2235.334092 2238.621501
