depth(m) lower_95(kyr) lower_68(kyr) median(kyr) mean(kyr) upper_68(kyr) upper_95(kyr)
63.110000 1400.493980 1401.485330 1402.387670 1402.377051 1403.284346 1404.098560
63.236000 1402.044227 1403.195611 1404.444104 1404.776529 1406.230322 1409.922667
63.362000 1403.406976 1404.843996 1406.560131 1407.174363 1409.782541 1413.611575
63.488000 1405.008723 1406.450373 1408.995690 1409.620731 1412.956324 1416.959557
63.614000 1406.639487 1408.280341 1411.616917 1412.093897 1416.106201 1419.741162
63.740000 1408.026070 1410.197333 1414.576477 1414.659126 1419.138550 1422.588892
63.866667 1409.721648 1412.364886 1417.674948 1417.778921 1422.749396 1427.700311
63.993333 1411.359000 1414.584826 1421.083592 1420.936091 1426.676286 1431.787350
64.120000 1412.857466 1416.821908 1424.642578 1424.171592 1430.598277 1436.092827
64.246667 1414.414954 1418.971391 1428.450767 1427.480761 1434.403832 1439.476590
64.373333 1416.400918 1420.965702 1432.014379 1430.606391 1437.866625 1441.965904
64.500000 1418.163968 1422.728346 1435.695411 1433.618796 1440.821272 1445.414752
64.595000 1419.174585 1423.819606 1437.829613 1435.536642 1442.896431 1447.789475
64.690000 1420.537572 1425.292540 1439.867707 1437.370109 1444.669730 1449.370998
64.785000 1422.147287 1427.185960 1441.740463 1439.001901 1446.182144 1450.875091
64.880000 1424.074684 1429.487138 1443.355015 1440.602327 1447.412868 1451.860658
65.010000 1426.878415 1433.710897 1445.239125 1442.925622 1449.034864 1453.446185
65.140000 1430.420461 1438.620400 1447.162959 1445.367169 1450.480814 1454.331261
65.225000 1432.597055 1441.446478 1448.315916 1446.907191 1451.533362 1455.510587
65.310000 1435.207199 1443.717090 1449.595077 1448.419912 1452.646393 1456.511650
65.440000 1439.089815 1447.167744 1452.064292 1451.248977 1455.129128 1458.198711
65.550000 1442.103923 1449.218678 1453.474706 1452.905934 1456.706149 1459.676309
65.660000 1444.889533 1450.759742 1454.733510 1454.386108 1457.978994 1461.163092
65.770000 1448.742764 1452.523172 1456.041205 1455.926215 1459.379204 1462.987501
65.885000 1450.673240 1453.791485 1457.445713 1457.383707 1460.726239 1464.162426
66.000000 1452.276997 1455.259598 1459.067075 1458.907726 1462.182306 1465.509646
66.120000 1454.744168 1457.284244 1460.718845 1460.562105 1463.582018 1467.012720
66.240000 1456.578789 1459.257563 1462.349719 1462.199775 1465.011374 1468.206383
66.360000 1458.337518 1461.281093 1464.056839 1463.981866 1466.565319 1469.596707
66.460000 1460.157445 1462.853169 1465.610982 1465.593005 1468.304770 1471.032111
66.560000 1462.133047 1464.539371 1467.187158 1467.251848 1469.877174 1472.506790
66.685000 1463.979499 1466.984156 1469.688228 1469.781425 1472.504760 1476.119741
66.810000 1466.886509 1469.318308 1472.072836 1472.376254 1475.285408 1479.054022
66.950000 1468.998247 1471.656376 1474.735140 1475.085201 1478.542147 1483.257753
67.071667 1470.771481 1473.774114 1477.185337 1477.564650 1481.331904 1485.788280
67.193333 1472.361694 1475.925958 1479.900418 1480.003834 1483.863964 1488.332922
67.315000 1474.136289 1478.391540 1482.873557 1482.617805 1486.300185 1491.239144
67.436667 1476.946559 1481.595395 1485.482023 1485.213511 1488.514196 1493.643017
67.558333 1479.215208 1484.919464 1488.038819 1488.002428 1490.962328 1495.823331
67.680000 1481.193883 1488.066408 1490.743497 1490.643792 1493.254018 1497.981743
67.775000 1482.171976 1490.823710 1493.688513 1493.512107 1496.442846 1500.399941
67.870000 1483.217773 1493.943395 1496.716668 1496.392077 1499.374740 1503.204134
68.005000 1485.533518 1497.233584 1500.411861 1500.081150 1503.491583 1507.869926
68.140000 1487.018028 1500.907604 1504.060046 1503.606160 1507.141953 1511.084897
68.225000 1488.040909 1502.983712 1506.275570 1505.812221 1509.589750 1513.077740
68.310000 1489.055567 1505.259258 1508.767299 1508.029853 1512.087076 1515.342781
68.450000 1490.301331 1508.139555 1512.175928 1511.389737 1515.681553 1520.284683
68.525000 1491.325415 1509.314893 1513.343069 1512.542793 1517.012810 1521.467923
68.600000 1492.119116 1510.274078 1514.403810 1513.658994 1518.173432 1522.730847
68.685000 1492.393421 1511.494159 1515.503221 1514.881391 1519.540833 1523.691286
68.770000 1492.998588 1512.659044 1516.805370 1516.066949 1520.759886 1524.887605
68.904286 1494.112629 1514.499808 1518.735274 1517.945120 1522.767060 1526.296869
69.038571 1495.115929 1516.570775 1520.726147 1519.824443 1524.461305 1527.633703
69.172857 1496.296757 1518.675850 1522.685718 1521.743391 1526.225126 1528.826389
69.307143 1497.291961 1521.071496 1524.616558 1523.606797 1527.755184 1530.141802
69.441429 1498.112813 1523.060131 1526.490434 1525.281286 1529.000820 1531.285147
69.575714 1499.425380 1525.209867 1528.194679 1526.972671 1530.297667 1532.600344
69.710000 1500.141931 1527.333853 1529.724096 1528.602695 1531.631010 1533.701621
69.810000 1500.889399 1528.566406 1530.748629 1529.686426 1532.619879 1534.949372
69.950000 1502.058537 1530.301989 1532.334246 1531.313681 1534.212173 1536.479485
70.056667 1502.684563 1531.292762 1533.455785 1532.415036 1535.480911 1537.625382
70.163333 1503.575963 1532.294051 1534.542761 1533.473265 1536.633497 1538.730755
70.270000 1504.247611 1533.368679 1535.494304 1534.465640 1537.641082 1539.715324
70.370000 1505.434420 1534.312854 1536.370452 1535.402444 1538.560044 1540.794316
70.492500 1506.241404 1535.392262 1537.577886 1536.531860 1539.785830 1541.797338
70.615000 1507.385296 1536.327155 1538.648019 1537.598859 1540.966210 1542.968267
70.737500 1508.628193 1537.372595 1539.662573 1538.666868 1542.060920 1544.290872
70.860000 1509.477942 1538.447922 1540.681430 1539.723527 1543.179912 1545.573024
70.985000 1510.475507 1539.470770 1541.760316 1540.878512 1544.473822 1547.765380
71.110000 1511.466863 1540.394198 1542.711690 1542.004908 1545.729963 1549.622064
71.216667 1512.664047 1541.130636 1543.570127 1543.005218 1546.925206 1551.450135
71.323333 1514.103203 1541.856520 1544.355869 1543.981363 1548.122227 1553.151982
71.430000 1514.831738 1542.523740 1545.168792 1544.954159 1549.443171 1554.451674
71.573333 1516.680116 1543.530614 1546.236543 1546.234811 1551.006904 1556.272670
71.716667 1518.580890 1544.553813 1547.220470 1547.476002 1553.113450 1558.541980
71.860000 1519.663206 1545.336873 1548.217177 1548.675572 1554.925010 1560.765871
71.985000 1521.424758 1546.157595 1549.060799 1549.749104 1556.216254 1562.068404
72.110000 1522.528272 1547.050672 1549.937004 1550.851504 1557.990422 1563.449867
72.245000 1523.841478 1547.952782 1550.948249 1552.056482 1559.683045 1565.199151
72.380000 1525.415449 1548.751655 1552.023895 1553.199545 1561.135514 1566.167038
72.515000 1529.229245 1549.602033 1553.094827 1554.360117 1562.657186 1567.475734
72.650000 1531.375466 1550.454027 1554.056995 1555.504710 1564.124052 1568.392806
72.785000 1532.427302 1551.390801 1554.904380 1556.596969 1565.485679 1569.455941
72.920000 1533.838476 1552.184686 1555.758976 1557.689832 1566.939611 1570.544756
73.046667 1536.989337 1553.025389 1556.635438 1558.609433 1567.852717 1571.277190
73.173333 1538.610082 1553.888698 1557.614951 1559.541367 1568.881995 1572.004940
73.300000 1540.289077 1554.673859 1558.531001 1560.456695 1569.702632 1572.941503
73.443000 1543.374484 1555.733131 1559.766288 1561.504973 1570.526778 1573.849796
73.586000 1545.696265 1556.712565 1560.811314 1562.502914 1571.286742 1574.706826
73.729000 1547.118780 1557.674951 1561.956847 1563.498654 1572.053592 1575.517574
73.872000 1548.492961 1558.727359 1562.948365 1564.462814 1572.847453 1576.154860
74.015000 1549.977809 1559.671326 1563.981098 1565.436309 1573.749019 1576.985857
74.158000 1551.393000 1560.706165 1565.126967 1566.401923 1574.382815 1577.817014
74.301000 1554.659459 1561.665651 1566.028198 1567.385748 1575.134259 1578.584314
74.444000 1556.707223 1562.843046 1567.103850 1568.393980 1575.946976 1579.441977
74.587000 1558.355623 1563.935589 1568.138288 1569.390855 1576.679043 1580.475153
74.730000 1560.099343 1565.020015 1569.226828 1570.358867 1577.336174 1581.381192
74.873000 1561.760201 1566.087657 1570.225699 1571.320865 1577.990799 1582.030018
75.016000 1562.999294 1567.179877 1571.342540 1572.319753 1578.707572 1582.931949
75.159000 1564.282367 1568.260481 1572.458124 1573.289989 1579.408337 1583.716525
75.302000 1565.539902 1569.447636 1573.527716 1574.276381 1580.421930 1584.628460
75.445000 1566.738475 1570.689247 1574.542048 1575.266126 1581.255265 1585.394353
75.588000 1568.129354 1571.709017 1575.640041 1576.280181 1581.921406 1586.220246
75.731000 1569.217951 1572.944218 1576.679160 1577.289139 1582.714843 1587.094480
75.874000 1570.517513 1574.068074 1577.774660 1578.337672 1583.456505 1587.961049
76.017000 1571.817503 1575.315469 1578.796009 1579.402641 1584.276573 1588.789759
76.160000 1573.424910 1576.841560 1579.871660 1580.529272 1585.103707 1589.587304
76.235000 1574.111904 1577.628466 1580.508534 1581.170592 1585.705824 1590.082338
76.310000 1575.040231 1578.397156 1581.214959 1581.873989 1586.319185 1590.540867
76.420000 1576.163770 1579.453909 1582.340865 1582.930847 1587.114415 1591.408975
76.530000 1577.604199 1580.643220 1583.627875 1584.068711 1588.004873 1592.234897
76.620000 1578.637496 1581.452650 1584.561667 1584.999419 1588.991010 1592.982358
76.710000 1579.787109 1582.492853 1585.494260 1585.993136 1590.008885 1593.580301
76.847500 1581.538562 1584.233295 1587.432643 1587.696002 1591.412216 1594.567933
76.985000 1583.586091 1585.957659 1589.455754 1589.388101 1593.020141 1595.588266
77.122500 1585.205952 1587.826583 1591.340014 1591.219837 1594.618683 1596.977807
77.260000 1586.772704 1589.707579 1593.134179 1592.895144 1595.985136 1598.433449
77.380000 1588.282955 1591.367079 1594.801165 1594.481312 1597.466423 1599.986108
77.500000 1589.870603 1593.005738 1596.254601 1595.956760 1598.769339 1601.449887
77.585000 1590.711332 1593.995325 1597.210410 1596.961947 1599.826631 1602.179057
77.670000 1591.603276 1595.014969 1598.139088 1597.922429 1600.769497 1603.046907
77.750000 1592.405625 1595.893141 1599.001329 1598.754594 1601.522144 1603.640864
77.830000 1593.094676 1596.902479 1599.865430 1599.595881 1602.330522 1604.411043
77.948000 1594.084420 1598.009128 1601.078895 1600.776685 1603.461426 1605.876333
78.066000 1595.424480 1599.104781 1602.088846 1601.830193 1604.454077 1606.832433
78.184000 1596.517811 1600.244818 1603.119267 1602.887714 1605.512486 1607.982529
78.302000 1597.651271 1601.294859 1604.135812 1603.961022 1606.482910 1609.504858
78.420000 1598.828172 1602.391779 1605.117254 1605.036499 1607.545793 1610.487034
78.510000 1599.818411 1603.250046 1606.002414 1605.877305 1608.297731 1611.731259
78.600000 1600.662256 1604.169434 1606.797323 1606.717407 1609.222746 1612.915485
78.710000 1601.566416 1605.236042 1607.781364 1607.754551 1610.380342 1614.092684
78.813333 1602.541597 1606.090637 1608.689529 1608.726565 1611.464125 1615.111277
78.916667 1603.313865 1606.954925 1609.687343 1609.689418 1612.384695 1616.234063
79.020000 1604.214046 1607.702692 1610.590703 1610.592411 1613.342967 1617.522478
79.162500 1605.445496 1608.845462 1611.689245 1611.786004 1614.734872 1619.260810
79.305000 1606.639151 1609.848201 1612.813265 1612.982877 1615.974773 1620.467482
79.447500 1607.594959 1610.952145 1613.998362 1614.194334 1617.395798 1622.054208
79.590000 1608.731595 1612.064672 1615.165944 1615.397545 1618.673018 1623.687387
79.732500 1609.839408 1613.283207 1616.343482 1616.610955 1619.989728 1625.023221
79.875000 1610.919350 1614.294919 1617.498032 1617.811943 1621.468268 1626.088489
80.017500 1611.864138 1615.411591 1618.717709 1618.991096 1622.735514 1627.366467
80.160000 1612.937765 1616.556256 1619.886179 1620.178832 1624.082609 1628.479591
80.296667 1613.645592 1617.651055 1621.203251 1621.389555 1625.303856 1629.701089
80.433333 1614.776449 1618.660586 1622.405003 1622.567230 1626.491938 1630.732391
80.570000 1615.880512 1619.837083 1623.742349 1623.785613 1627.837488 1632.093742
80.690000 1616.745252 1620.827671 1624.875179 1624.882974 1629.091922 1632.978813
80.810000 1617.606295 1621.959807 1626.006591 1626.026642 1630.278133 1634.040312
80.900000 1618.209866 1622.746742 1627.129078 1626.884160 1631.238299 1634.926179
80.990000 1618.720638 1623.755466 1628.180605 1627.820735 1632.093290 1636.040941
81.000000 1618.794700 1623.865712 1628.291667 1627.930921 1632.209130 1636.237801
81.095000 1620.058529 1624.859239 1629.506512 1629.145024 1633.511912 1637.018432
81.190000 1621.280005 1625.757930 1630.819848 1630.366887 1634.547355 1637.577313
81.290000 1621.923420 1626.904559 1632.251892 1631.605691 1635.950914 1638.627141
81.390000 1622.631462 1627.867461 1633.715781 1632.871301 1637.077995 1639.637716
81.475000 1623.557427 1628.980789 1634.742191 1633.880859 1637.921100 1640.351903
81.560000 1624.371520 1629.861916 1635.754360 1634.872534 1638.978835 1641.151879
81.610000 1624.964990 1630.649915 1636.367992 1635.409640 1639.503092 1641.752198
81.730000 1626.146877 1632.117912 1637.516307 1636.694914 1640.676686 1642.598465
81.830000 1627.487716 1633.644713 1638.539794 1637.812576 1641.824760 1643.410504
81.850000 1627.819877 1633.904575 1638.744102 1638.020145 1642.062914 1643.538458
81.930000 1628.747444 1635.097482 1639.402517 1638.827621 1642.705446 1644.308271
82.010000 1629.856432 1636.026888 1640.038260 1639.636087 1643.393137 1644.945418
82.135000 1632.294222 1637.923716 1641.216825 1640.982608 1644.489321 1646.116294
82.260000 1634.912885 1639.581933 1642.476567 1642.397808 1645.545057 1647.414229
82.390000 1637.616863 1641.332982 1643.919361 1643.912545 1646.829870 1649.017149
82.520000 1640.206086 1642.574589 1645.392812 1645.384393 1648.108539 1650.663392
82.615000 1641.276217 1643.663627 1646.424186 1646.492545 1649.219523 1651.878639
82.710000 1642.612142 1644.654281 1647.523936 1647.609623 1650.346621 1653.292260
82.750000 1643.042176 1644.997136 1648.050493 1648.078446 1650.927079 1653.777552
82.875000 1644.109920 1646.207493 1649.436717 1649.458330 1652.432227 1655.045260
83.000000 1645.268026 1647.432901 1650.955380 1650.799869 1653.835043 1656.886021
83.125000 1646.389665 1648.761792 1652.292138 1652.175415 1655.186039 1658.414426
83.250000 1647.353630 1649.997011 1653.570432 1653.489740 1656.554534 1659.828435
83.395000 1648.712191 1651.566576 1655.035961 1655.050519 1658.290721 1661.597206
83.540000 1650.072018 1653.145783 1656.684350 1656.634209 1659.915893 1663.127379
83.640000 1650.871830 1654.214058 1657.729049 1657.717530 1661.023046 1664.554541
83.740000 1651.951592 1655.195893 1658.974973 1658.846814 1661.992985 1665.709243
83.840000 1653.104190 1656.408127 1659.912989 1659.943199 1663.276951 1666.923407
83.980000 1654.522671 1658.015597 1661.446665 1661.586561 1664.909602 1669.745369
84.120000 1656.082006 1659.435551 1662.935395 1663.214192 1666.552024 1672.577249
84.260000 1657.532004 1661.066773 1664.380851 1664.858059 1668.171090 1675.508919
84.400000 1659.128478 1662.765012 1665.934306 1666.594190 1669.948964 1679.368402
84.540000 1660.695291 1664.389844 1667.691047 1668.453950 1671.919780 1683.210148
84.645000 1661.683230 1665.536840 1669.133657 1669.982531 1673.751310 1684.445634
84.750000 1663.049067 1666.867558 1670.651126 1671.611899 1675.685969 1686.070375
84.850000 1664.543215 1668.106282 1672.314539 1673.298079 1678.083693 1687.632252
84.950000 1665.670425 1669.298857 1674.037051 1674.978633 1680.256226 1689.027847
85.050000 1666.977789 1670.418450 1676.114867 1676.750565 1682.427060 1690.385299
85.150000 1667.977104 1671.544276 1678.064902 1678.422397 1684.312596 1692.401180
85.250000 1669.058436 1672.825758 1679.849014 1680.108585 1686.286395 1693.938614
85.350000 1670.253584 1674.090310 1681.896355 1681.840138 1688.350105 1695.256998
85.480000 1671.648368 1675.549779 1684.675716 1684.119369 1690.856874 1698.192055
85.610000 1673.049571 1677.585266 1687.294441 1686.446982 1692.975598 1700.542423
85.640000 1673.471451 1678.092116 1687.704570 1686.880635 1693.344314 1700.857671
85.765000 1675.841030 1680.607732 1689.491351 1688.911003 1694.730575 1703.125734
85.890000 1678.359825 1684.094646 1691.400036 1691.025948 1696.262829 1705.263603
86.015000 1680.803962 1687.200872 1693.213253 1693.146491 1697.810766 1707.051088
86.140000 1684.056521 1690.022288 1695.156731 1695.241832 1699.510192 1710.420030
86.250000 1685.907731 1691.838543 1696.560726 1696.838163 1700.856171 1712.754576
86.395000 1687.813410 1693.872108 1698.289200 1698.921255 1703.179974 1715.055102
86.540000 1690.897721 1695.720290 1700.461452 1701.160561 1705.300688 1718.721887
86.643333 1692.483548 1697.008736 1701.865750 1702.591501 1707.050443 1720.188230
86.746667 1693.383837 1698.475622 1703.246702 1704.019058 1708.498107 1721.721404
86.850000 1694.393514 1699.806195 1704.570121 1705.441357 1710.412257 1723.193093
86.956667 1695.641862 1701.089418 1706.069462 1706.926742 1712.229231 1724.318844
87.063333 1696.843301 1702.639892 1707.477226 1708.476786 1714.639381 1726.233020
87.170000 1697.613465 1703.762498 1709.309413 1710.099040 1716.798271 1727.542059
87.315000 1698.870025 1705.189847 1711.397685 1712.361770 1720.139717 1730.082551
87.460000 1699.958735 1706.925764 1713.764773 1714.723701 1723.286845 1732.379139
87.555000 1700.673860 1708.090156 1715.594715 1716.171310 1724.930399 1734.481425
87.650000 1701.671348 1709.118451 1717.184077 1717.660952 1726.834208 1736.387215
87.750000 1702.641606 1710.442858 1718.895395 1719.223880 1728.506616 1738.130978
87.850000 1703.661387 1711.671368 1720.553811 1720.779888 1730.008832 1739.201136
87.950000 1704.842608 1713.345144 1722.088651 1722.340797 1731.208314 1740.040184
88.050000 1706.032102 1715.182050 1723.880789 1723.903437 1732.467564 1741.027777
88.195000 1707.630831 1718.426121 1726.676453 1726.441380 1734.901178 1743.332017
88.340000 1708.953115 1720.974362 1729.168540 1728.917119 1737.326627 1744.756350
88.440000 1709.730210 1723.134321 1730.902282 1730.571742 1738.957464 1745.682382
88.540000 1710.630853 1724.784238 1732.534831 1732.149310 1740.397713 1747.534123
88.640000 1711.916804 1726.370239 1734.320960 1733.698346 1741.957297 1748.444257
88.743333 1713.163233 1728.331528 1736.365664 1735.377781 1743.503092 1749.908446
88.846667 1714.349989 1729.780315 1738.074905 1736.968235 1744.784494 1751.169352
88.950000 1716.295808 1731.226037 1739.588936 1738.589271 1746.087955 1752.655873
89.045000 1718.794332 1732.636328 1741.107739 1740.039582 1747.263999 1753.869177
89.140000 1720.727855 1734.117375 1742.435398 1741.538251 1748.520652 1755.047740
89.250000 1722.639745 1736.363099 1743.993401 1743.222660 1750.093796 1756.353589
89.375000 1725.396374 1738.941781 1745.855126 1745.196033 1751.879850 1758.419684
89.500000 1728.162324 1741.140444 1747.776056 1747.210947 1753.938162 1759.992591
89.600000 1729.666934 1742.529120 1749.449194 1748.893577 1755.906848 1761.662233
89.700000 1732.034734 1743.964324 1751.228194 1750.606732 1757.846759 1763.945290
89.800000 1735.117075 1745.360214 1753.177452 1752.482032 1759.725472 1765.947509
89.930000 1737.195529 1747.205188 1757.078209 1755.686092 1763.645182 1769.688162
90.060000 1739.273388 1748.700062 1761.063867 1758.951792 1767.817671 1773.146303
90.190000 1741.438717 1750.391545 1765.108725 1762.302544 1772.261280 1776.238678
90.320000 1742.948769 1752.051507 1769.663559 1765.539324 1775.681109 1778.846923
90.450000 1745.406749 1753.419260 1774.307267 1768.755372 1778.806942 1781.255572
90.535000 1746.604171 1754.600284 1776.149025 1770.245721 1780.093753 1782.710221
90.620000 1747.836683 1755.840887 1777.810068 1771.706900 1781.185317 1783.665276
90.750000 1749.261871 1758.802843 1779.910833 1773.887904 1782.650982 1784.951417
90.875000 1751.264072 1762.028090 1781.364328 1775.939281 1784.025649 1786.370067
91.000000 1753.028079 1765.937968 1782.662332 1777.926697 1785.199995 1787.215498
91.116667 1754.670817 1769.569184 1783.882064 1779.752254 1786.247341 1788.313361
