depth(m) lower_95(kyr) lower_68(kyr) median(kyr) mean(kyr) upper_68(kyr) upper_95(kyr)
52.280000 1401.198926 1401.950314 1402.870416 1402.864505 1403.691317 1404.698370
52.390000 1403.599479 1404.586720 1405.542214 1405.646194 1406.721226 1408.137360
52.510000 1405.861587 1406.995994 1408.152838 1408.304892 1409.662031 1411.491586
52.630000 1407.998440 1409.250066 1410.637561 1410.783311 1412.289308 1414.261292
52.750000 1410.280613 1411.691470 1413.138189 1413.381971 1415.087218 1417.474327
52.850000 1412.553283 1414.001861 1415.589254 1415.842012 1417.665270 1420.032279
52.950000 1415.121677 1416.744349 1418.757671 1418.926930 1421.044963 1423.494053
53.030000 1417.350686 1419.496088 1421.974578 1421.900741 1424.205497 1426.428478
53.110000 1420.957325 1423.573331 1426.041521 1426.088379 1428.648736 1431.491422
53.190000 1424.318884 1426.343113 1429.123563 1429.282054 1431.834021 1436.228387
53.280000 1427.088454 1429.302327 1432.269914 1432.577911 1435.838996 1439.704964
53.370000 1430.022341 1432.248656 1435.566764 1435.814657 1439.446634 1443.173649
53.470000 1432.803832 1435.642075 1439.104067 1439.288827 1443.023082 1445.953578
53.570000 1436.034570 1439.193908 1443.066143 1442.820643 1446.528186 1448.482571
53.680000 1439.999513 1443.733504 1447.307734 1446.884674 1449.825758 1451.570550
53.790000 1446.589938 1449.865385 1451.824598 1451.666771 1453.566460 1455.219205
53.880000 1451.596540 1453.084028 1454.621148 1454.702617 1456.279355 1458.317425
53.980000 1454.182684 1455.576107 1457.178804 1457.238447 1458.936996 1460.523436
54.070000 1456.124037 1457.637483 1459.311736 1459.327726 1461.008485 1462.592394
54.160000 1458.123206 1459.704361 1461.339337 1461.370826 1463.089134 1464.694158
54.260000 1460.459548 1462.095324 1463.741472 1463.745822 1465.502205 1467.197848
54.370000 1463.051429 1464.815416 1466.400853 1466.445938 1468.172646 1470.096611
54.470000 1465.318431 1466.985196 1468.807822 1468.833341 1470.547976 1472.793945
54.580000 1467.968092 1469.478625 1471.544404 1471.617569 1473.558474 1476.317247
54.680000 1470.370741 1472.130084 1474.344371 1474.526089 1476.805825 1480.410472
54.780000 1472.855058 1474.790820 1477.366930 1477.547024 1480.419351 1483.856873
54.880000 1475.511545 1477.821707 1480.502168 1480.749815 1483.767358 1486.491931
54.970000 1478.182303 1480.929920 1483.928533 1483.869323 1486.862319 1489.079084
55.070000 1481.741092 1485.172391 1488.324214 1487.972750 1490.585649 1492.246457
55.170000 1489.286987 1492.015173 1493.968270 1494.015479 1496.033633 1498.947936
55.280000 1494.913901 1496.708769 1498.916940 1498.979300 1501.234914 1503.508148
55.380000 1498.191436 1500.399576 1502.908559 1502.923411 1505.284476 1507.975556
55.490000 1501.939239 1504.731972 1507.587840 1507.683213 1510.293938 1514.519020
55.590000 1507.297413 1510.289818 1513.463704 1513.603662 1516.946190 1521.270447
55.680000 1510.985323 1514.560134 1518.115668 1518.063039 1521.619845 1524.537500
55.780000 1514.921508 1519.045739 1522.911178 1522.457457 1525.624496 1527.709450
55.880000 1518.599876 1523.707054 1526.969977 1526.444870 1529.079257 1530.931379
55.975000 1523.489839 1527.217896 1529.926162 1529.590071 1531.927728 1533.736646
56.070000 1528.201005 1530.641445 1532.558154 1532.554103 1534.479606 1536.512129
56.170000 1531.516032 1533.391320 1535.214126 1535.283558 1537.147336 1539.598978
56.270000 1534.224494 1535.814975 1537.682083 1537.790207 1539.711520 1542.064796
56.360000 1536.590188 1538.220657 1540.071946 1540.209407 1542.126499 1544.970102
56.470000 1539.351265 1541.208303 1543.274822 1543.684522 1546.105480 1550.688036
56.590000 1542.014162 1543.874187 1546.294922 1546.828987 1549.793858 1554.354062
56.710000 1544.331707 1546.484657 1549.106625 1549.817419 1553.761505 1557.736164
56.840000 1547.350689 1549.520193 1552.729010 1553.322680 1557.570036 1561.336949
56.980000 1550.359004 1553.447093 1557.509500 1557.565581 1561.812935 1564.562347
57.120000 1554.303281 1557.954864 1562.788892 1562.092249 1565.836296 1567.711303
57.240000 1558.518591 1562.920490 1566.852565 1566.110311 1568.858938 1570.391826
57.360000 1565.287640 1568.531384 1570.225022 1570.053126 1571.798806 1573.154231
57.430000 1569.078078 1570.771439 1572.176392 1572.108778 1573.504303 1574.951157
57.480000 1570.593054 1572.081654 1573.356089 1573.392110 1574.759765 1576.260950
57.580000 1573.069079 1574.327236 1575.634141 1575.615333 1576.833147 1578.206784
57.650000 1574.762706 1576.000194 1577.248459 1577.254990 1578.504452 1579.994409
57.680000 1575.660213 1576.783084 1578.025184 1578.082393 1579.337479 1580.882790
57.760000 1577.598566 1578.838439 1580.106799 1580.362335 1581.823724 1584.827464
57.780000 1578.109216 1579.275822 1580.639531 1580.963846 1582.539996 1585.541474
57.920000 1580.870413 1582.053926 1583.783259 1584.651168 1587.571009 1591.563164
57.970000 1582.025784 1583.134229 1584.869714 1586.087093 1589.535010 1593.625967
57.990000 1582.480429 1583.618934 1585.587498 1586.750443 1590.463790 1594.942016
58.080000 1584.194588 1585.385623 1588.340716 1590.265233 1595.430591 1604.526632
58.180000 1586.185761 1587.250742 1592.277677 1595.169224 1605.872736 1610.246193
58.210000 1586.775190 1587.907305 1593.427103 1596.197596 1607.238525 1611.312768
58.250000 1587.560976 1588.769526 1595.093030 1597.574731 1608.481767 1612.903650
58.280000 1588.191850 1589.435679 1596.079831 1598.533466 1609.623305 1613.800099
58.310000 1588.916039 1590.215539 1597.639865 1599.519953 1610.386872 1614.716475
58.360000 1589.722219 1591.187270 1601.810629 1601.262913 1611.753726 1616.462233
58.380000 1590.162447 1591.640968 1602.953563 1601.880978 1612.459945 1617.430933
58.430000 1591.305864 1592.697799 1605.686396 1603.504190 1613.890553 1618.998099
58.480000 1592.311638 1593.744420 1607.884405 1605.129559 1615.461381 1620.892239
58.530000 1593.248190 1594.894201 1609.580534 1606.758572 1617.130541 1622.922573
58.560000 1593.989360 1595.670698 1610.472769 1607.731298 1618.136722 1623.717219
58.590000 1594.753444 1596.691883 1611.625914 1608.794984 1619.083977 1624.631190
58.680000 1597.262221 1602.669772 1614.494547 1613.261506 1622.238833 1628.104780
58.780000 1602.826959 1609.157344 1617.954550 1617.889626 1626.339410 1633.670588
58.880000 1608.885733 1613.942100 1622.157456 1622.344622 1630.752721 1637.969059
58.970000 1612.030777 1617.786538 1626.126443 1626.443725 1636.174957 1640.307342
59.070000 1615.243835 1621.249619 1633.324795 1631.420614 1640.104227 1642.946328
59.140000 1617.733721 1623.978279 1637.264316 1634.339524 1642.070748 1644.472311
59.200000 1620.208382 1625.728469 1639.628399 1636.381225 1643.380729 1645.375774
59.240000 1622.062748 1626.879589 1641.098393 1637.615575 1644.263778 1646.149877
59.290000 1623.628531 1628.397401 1642.366835 1639.024875 1645.262302 1647.145497
59.350000 1625.986853 1630.779216 1643.606405 1640.609360 1646.262036 1648.276517
59.410000 1628.426525 1634.195904 1644.667524 1642.193874 1647.222191 1649.226958
59.530000 1636.294014 1642.293071 1646.848327 1645.901082 1649.125262 1651.062666
59.615000 1640.229192 1644.753040 1648.426971 1647.721200 1650.520245 1652.478109
59.700000 1642.947172 1646.724789 1649.878387 1649.313971 1651.782277 1653.688915
59.840000 1646.057289 1649.176623 1651.965230 1651.580573 1653.851974 1655.441233
59.980000 1648.653023 1651.613021 1653.926872 1653.730118 1655.764646 1657.557112
60.083333 1650.923296 1653.361860 1655.577090 1655.369187 1657.337230 1658.954698
60.186667 1652.900029 1655.160457 1657.068585 1656.979686 1658.772614 1660.510402
60.290000 1654.919940 1657.011776 1658.655169 1658.634348 1660.307479 1661.938881
60.370000 1656.373481 1658.410518 1660.021248 1659.987376 1661.542291 1663.152398
60.410000 1657.415631 1659.305531 1660.766245 1660.769153 1662.233164 1663.913086
60.440000 1658.362178 1659.883652 1661.428848 1661.425304 1662.842688 1664.480234
60.460000 1658.863956 1660.404548 1661.959124 1661.949698 1663.409829 1664.915358
60.490000 1659.547093 1661.222184 1662.812428 1662.825780 1664.423386 1666.055483
60.520000 1660.364766 1662.082423 1663.789212 1663.775143 1665.457510 1667.459562
60.570000 1661.813712 1663.527779 1665.594420 1665.718303 1667.803802 1670.470151
60.660000 1663.938273 1666.251331 1669.092410 1669.370177 1672.244264 1677.728935
60.750000 1666.584562 1669.291938 1672.733977 1672.987392 1676.602074 1681.368029
60.862500 1669.280786 1672.908399 1677.211024 1677.236145 1681.481988 1685.711978
60.975000 1672.908109 1677.132243 1681.676137 1681.517857 1686.017340 1689.341253
61.087500 1677.828285 1681.626321 1685.881622 1685.711740 1689.672057 1692.345560
61.200000 1682.965356 1686.948497 1690.173576 1689.845587 1692.723387 1694.762878
61.280000 1687.824504 1690.773624 1692.985264 1692.840711 1694.894343 1696.856024
61.310000 1689.083693 1691.942553 1693.964172 1693.864721 1695.860677 1697.918157
61.330000 1689.798417 1692.560277 1694.667509 1694.518580 1696.435557 1698.588456
61.360000 1691.019886 1693.650488 1695.688319 1695.591525 1697.417122 1699.526847
61.380000 1691.729002 1694.428130 1696.349675 1696.300614 1698.159422 1700.214005
61.430000 1693.873592 1696.371268 1698.226596 1698.298242 1700.249945 1702.818799
61.470000 1695.242820 1697.495972 1699.613631 1699.611413 1701.679963 1704.365993
61.540000 1697.239628 1699.289865 1701.630269 1701.835020 1704.395529 1707.366949
61.670000 1700.253074 1702.779989 1705.957830 1706.268560 1709.568739 1714.208657
61.795000 1703.768526 1706.839207 1710.513878 1711.024925 1715.242473 1720.409477
61.920000 1706.715122 1711.027112 1715.450131 1715.738937 1720.488378 1726.562438
62.005000 1709.471619 1713.345213 1718.221916 1718.480074 1723.403313 1730.180190
62.090000 1711.519148 1715.851113 1720.849757 1721.060450 1726.194638 1732.855454
62.160000 1713.256596 1717.821809 1722.811167 1723.072827 1728.201313 1734.970847
62.220000 1714.832450 1719.318308 1724.428652 1724.768874 1729.979924 1736.291748
62.260000 1715.897162 1720.460437 1725.646827 1725.847104 1730.937408 1737.150822
62.320000 1717.049087 1722.105337 1727.518782 1727.551461 1732.606582 1739.207690
62.400000 1719.009663 1724.328187 1729.898178 1729.883696 1735.206371 1741.107047
62.480000 1721.448049 1726.983416 1732.571345 1732.393829 1737.738979 1742.902147
62.590000 1724.938546 1731.032588 1736.001413 1736.118381 1741.271734 1747.199795
62.700000 1728.599281 1734.827406 1739.613479 1739.733921 1744.725204 1750.738746
62.830000 1735.158144 1739.752071 1744.551259 1744.607975 1749.791999 1754.349059
62.910000 1737.510027 1742.264557 1747.187698 1747.170356 1752.548378 1756.412223
62.950000 1738.935149 1743.292383 1748.213745 1748.291005 1753.570264 1757.449283
63.030000 1741.057295 1746.049463 1751.330207 1750.840822 1755.899558 1759.436921
63.080000 1742.323327 1747.464214 1752.793215 1752.263461 1757.382505 1760.564398
63.140000 1743.923272 1749.415163 1754.599304 1754.044608 1758.893698 1761.787068
63.220000 1746.370651 1751.905848 1757.131664 1756.583140 1761.189600 1764.587755
63.320000 1749.681834 1755.797791 1760.745970 1760.094834 1764.574107 1768.130530
63.440000 1753.792740 1759.412872 1764.158920 1763.646414 1768.018396 1772.429891
63.580000 1757.529045 1762.934313 1767.559494 1767.274650 1772.102378 1776.944354
63.700000 1760.955856 1765.804095 1770.302571 1770.153717 1774.948004 1779.531721
63.820000 1763.732805 1769.250859 1773.242084 1773.029419 1777.599696 1781.886651
63.960000 1768.587967 1772.984677 1777.131022 1776.797458 1781.225349 1784.617832
64.080000 1773.122887 1777.331851 1781.269192 1780.780345 1784.857105 1787.321223
64.190000 1777.672207 1782.283602 1785.763030 1784.998860 1788.184569 1790.045112
64.280000 1782.006823 1785.786231 1788.288273 1787.686840 1790.323834 1791.907453
64.350000 1784.024440 1787.609023 1789.890640 1789.344253 1791.749168 1793.244590
64.420000 1786.173049 1789.006119 1791.159708 1790.631064 1792.900565 1794.272263
64.540000 1788.674523 1791.025950 1792.948981 1792.524542 1794.627336 1796.001710
64.650000 1790.430139 1792.837274 1794.691387 1794.183550 1796.192076 1797.438909
64.760000 1792.026170 1794.619297 1796.306603 1795.791889 1797.685722 1798.842030
64.860000 1793.808215 1796.018510 1797.739333 1797.257877 1799.030648 1800.126655
64.960000 1795.688393 1797.583411 1799.106378 1798.703679 1800.396655 1801.616318
65.080000 1797.760963 1799.470143 1800.786641 1800.429332 1802.046540 1803.509883
65.160000 1799.080853 1800.698203 1801.936002 1801.651565 1803.257263 1804.699599
65.250000 1800.401614 1802.000184 1803.179043 1802.947195 1804.481432 1806.166073
65.350000 1801.772278 1803.252651 1804.478141 1804.233061 1805.748224 1807.550405
65.440000 1803.068375 1804.384514 1805.576180 1805.363357 1806.813970 1808.874804
65.540000 1804.465062 1805.622792 1806.819603 1806.653090 1808.158258 1810.140333
65.650000 1805.759447 1806.899807 1808.177549 1807.998424 1809.484384 1811.465017
65.750000 1806.992452 1808.159407 1809.402853 1809.260634 1810.748157 1812.880945
65.855000 1808.191064 1809.422602 1810.648127 1810.567179 1812.157678 1814.147140
65.960000 1809.547099 1810.697953 1811.934862 1811.895075 1813.443868 1815.654571
66.060000 1810.758827 1811.956598 1813.198821 1813.186806 1814.762034 1817.123143
66.160000 1811.884442 1813.160810 1814.419888 1814.456076 1816.077649 1818.545829
66.250000 1813.082143 1814.339809 1815.552453 1815.662396 1817.331846 1819.813420
66.350000 1814.238966 1815.525843 1816.764419 1816.948471 1818.732577 1821.105704
66.450000 1815.420118 1816.718961 1818.032207 1818.240964 1820.081046 1822.750712
66.560000 1816.821679 1818.082024 1819.407416 1819.685944 1821.673711 1824.366665
66.650000 1817.844903 1819.236572 1820.592727 1820.893770 1822.866167 1825.689044
66.740000 1819.117815 1820.363100 1821.780983 1822.137971 1824.205546 1826.964640
66.850000 1820.426392 1821.665610 1823.180890 1823.616769 1826.029288 1828.950291
66.940000 1821.468100 1822.799887 1824.395954 1824.866269 1827.390001 1829.989457
67.030000 1822.642935 1823.929544 1825.618420 1826.114795 1828.736843 1831.658672
67.140000 1823.909767 1825.276136 1827.038060 1827.623937 1830.536094 1833.432173
67.240000 1825.241286 1826.417888 1828.442086 1829.024746 1832.131954 1835.096577
67.340000 1826.307840 1827.675363 1829.759027 1830.442409 1833.768188 1837.025046
67.410000 1827.196228 1828.518748 1830.739219 1831.456067 1834.851501 1838.019554
67.520000 1828.497727 1829.985762 1832.344504 1833.037821 1836.633068 1839.855407
67.560000 1828.997627 1830.538250 1832.948364 1833.666150 1837.304134 1840.633125
67.645000 1830.088801 1831.669493 1834.212217 1834.879523 1838.547212 1842.074059
67.730000 1830.953310 1832.791842 1835.496142 1836.062481 1839.811294 1843.377694
67.850000 1832.611018 1834.426597 1837.137330 1837.757647 1841.596804 1844.717661
67.950000 1833.927452 1835.841200 1838.724067 1839.163775 1842.921824 1846.282537
68.050000 1835.315767 1837.271030 1840.224729 1840.622691 1844.097059 1847.663046
68.150000 1836.584398 1838.853342 1841.774668 1842.093389 1845.470183 1848.902731
68.250000 1837.986437 1840.309717 1843.333922 1843.521359 1846.777453 1850.126286
68.350000 1839.588149 1841.878188 1844.771047 1844.950586 1848.120311 1851.336339
68.450000 1841.113141 1843.213534 1846.181431 1846.332197 1849.353352 1852.534495
68.550000 1842.442848 1844.723730 1847.478847 1847.645771 1850.641702 1853.554306
68.650000 1843.797596 1846.040867 1848.810445 1848.975219 1851.927165 1854.851484
68.750000 1845.249149 1847.526805 1850.194452 1850.341749 1853.237959 1856.146094
68.850000 1846.590983 1849.049034 1851.642429 1851.744808 1854.497275 1857.423083
68.950000 1848.214144 1850.567090 1853.091608 1853.167579 1855.815318 1858.690225
69.050000 1849.752949 1852.202234 1854.584205 1854.692678 1857.276506 1860.034489
69.150000 1851.460066 1853.773101 1856.015388 1856.186041 1858.655292 1861.458761
69.250000 1853.108520 1855.386387 1857.485947 1857.644464 1860.033679 1862.859173
69.350000 1854.847668 1856.878728 1858.920993 1859.088797 1861.394781 1864.276480
69.450000 1856.513584 1858.359210 1860.265772 1860.481810 1862.714075 1865.838423
69.550000 1857.938166 1859.762156 1861.660237 1861.849513 1863.951438 1867.046199
69.650000 1859.339978 1861.222993 1862.992144 1863.268002 1865.376137 1868.490482
69.750000 1860.674100 1862.647957 1864.369251 1864.690669 1866.939964 1870.108309
69.850000 1862.181363 1863.974126 1865.803218 1866.181559 1868.607852 1871.549168
69.950000 1863.610693 1865.494309 1867.523471 1867.855335 1870.524977 1873.217830
70.050000 1865.209700 1866.980645 1869.234098 1869.540958 1872.340643 1875.077302
70.150000 1866.670568 1868.484682 1871.127374 1871.301246 1874.298160 1876.957246
70.250000 1868.097203 1870.037811 1872.961751 1873.186087 1876.224762 1879.005809
70.350000 1869.894812 1872.363783 1875.424502 1875.453580 1878.587736 1881.494171
70.450000 1871.551752 1874.385724 1878.092087 1877.961888 1881.471779 1884.962548
70.550000 1873.396273 1876.205511 1880.189425 1880.101130 1883.911108 1886.773022
70.650000 1875.187255 1878.217539 1882.038699 1881.944942 1885.697331 1888.664816
70.750000 1876.964075 1880.040585 1883.726518 1883.713601 1887.372458 1890.102437
70.850000 1878.990222 1881.948401 1885.416368 1885.475317 1889.018935 1891.833171
70.950000 1880.987340 1883.669508 1887.107834 1887.120292 1890.523587 1893.161475
71.050000 1882.618972 1885.804186 1889.048212 1888.903593 1892.096596 1894.511990
71.150000 1884.350955 1887.753687 1890.946253 1890.725084 1893.693846 1895.815811
71.250000 1886.313949 1889.875065 1892.786766 1892.616843 1895.309865 1897.376167
71.350000 1888.935452 1892.238155 1894.889907 1894.689049 1897.152263 1899.445643
71.450000 1891.990864 1894.776604 1897.144307 1897.065856 1899.188924 1901.963055
71.550000 1895.759132 1898.039136 1900.037751 1900.254052 1902.482509 1906.355133
71.650000 1898.699360 1900.466966 1903.007997 1903.202690 1906.039189 1909.004121
71.750000 1900.544780 1903.072679 1906.039806 1905.924435 1908.554608 1911.120656
71.850000 1903.021399 1905.857645 1908.943753 1908.702719 1911.276829 1913.388716
71.950000 1905.687679 1908.563592 1911.355633 1911.152844 1913.587562 1915.826776
72.050000 1907.967112 1911.179868 1913.708762 1913.623745 1916.080436 1918.623493
72.140000 1910.412912 1913.050979 1915.518156 1915.506878 1918.004899 1920.416409
72.250000 1912.986051 1915.147426 1917.768957 1917.734511 1920.324288 1922.404091
72.350000 1915.309480 1917.683598 1920.166804 1920.044237 1922.478461 1924.501970
72.450000 1917.377893 1919.891208 1922.293237 1922.271601 1924.597816 1926.591827
72.550000 1919.486265 1922.094611 1924.447472 1924.408870 1926.674669 1929.091395
72.650000 1921.352809 1924.141036 1926.421179 1926.367410 1928.631465 1930.776076
72.750000 1923.451192 1925.935169 1928.195018 1928.148015 1930.518586 1932.468047
72.850000 1925.365816 1927.545872 1929.720817 1929.736161 1932.022047 1933.960866
72.950000 1926.950425 1929.145095 1931.431810 1931.323311 1933.554627 1935.412666
73.050000 1928.642179 1930.669225 1933.008878 1932.905688 1935.036558 1936.842896
73.150000 1930.500574 1932.436107 1934.582542 1934.543269 1936.712565 1938.192906
73.250000 1932.258361 1934.278363 1936.231287 1936.218135 1938.272572 1939.882887
73.350000 1934.080270 1936.095010 1938.111606 1938.065790 1940.054669 1941.724159
73.450000 1936.337335 1938.251700 1940.411802 1940.489976 1942.488963 1945.571876
73.550000 1939.708899 1942.007632 1944.464711 1944.772761 1947.690268 1951.343006
73.650000 1942.044430 1944.842417 1947.959210 1948.053412 1951.281719 1954.378587
73.750000 1943.586628 1947.010701 1951.100509 1950.988246 1954.619533 1958.330986
73.850000 1945.209947 1949.497159 1953.908048 1953.507742 1957.289515 1960.404962
73.950000 1947.133338 1952.299011 1956.214853 1955.844132 1959.481446 1962.221913
74.050000 1949.339650 1954.550559 1958.257186 1957.948448 1961.485554 1964.367692
74.150000 1952.298498 1956.645456 1960.193299 1959.982205 1963.356546 1965.964809
