depth(m) lower_95(kyr) lower_68(kyr) median(kyr) mean(kyr) upper_68(kyr) upper_95(kyr)
40.050000 1398.400120 1399.265973 1400.203760 1400.229495 1401.187852 1402.028686
40.120000 1400.666666 1401.834286 1403.095703 1403.267266 1404.563441 1407.180763
40.210000 1403.645056 1405.392005 1407.509114 1408.076474 1411.199947 1414.972368
40.340000 1407.352637 1410.401968 1414.097537 1414.029308 1417.529029 1420.199066
40.480000 1413.637886 1417.303909 1420.201812 1420.080815 1422.929496 1425.055210
40.600000 1419.832226 1422.949467 1425.460158 1425.485326 1427.895889 1431.207334
40.690000 1424.537013 1426.680014 1428.929976 1429.279213 1431.915560 1436.475576
40.770000 1427.084450 1429.506968 1431.964823 1432.412897 1435.163564 1440.892445
40.780000 1427.399426 1429.931076 1432.453140 1432.884306 1435.631443 1441.429575
40.860000 1430.711405 1433.126428 1436.127742 1436.547387 1440.084379 1444.554701
40.970000 1434.490969 1437.358060 1440.986261 1441.331667 1445.349292 1449.343527
41.045000 1437.500683 1440.914032 1445.081181 1444.978807 1448.854705 1452.348705
41.120000 1441.342903 1445.704930 1449.521288 1449.192594 1452.436188 1455.838037
41.260000 1453.381594 1455.495509 1458.437076 1458.555585 1461.564729 1464.387513
41.340000 1457.861743 1460.734349 1463.759937 1463.906991 1466.942591 1470.888572
41.400000 1462.261221 1466.609855 1470.980251 1471.115971 1475.753643 1480.116362
41.530000 1472.373601 1476.032576 1480.757601 1480.615770 1485.170905 1488.622318
41.570000 1474.748268 1478.587745 1483.521895 1483.210723 1487.509236 1490.188869
41.660000 1480.189229 1485.107479 1489.519536 1488.714065 1491.956291 1493.951953
41.750000 1487.099852 1491.372824 1493.574478 1493.253693 1495.370775 1497.200137
41.850000 1491.011663 1494.336437 1496.415225 1496.232992 1498.140539 1500.216587
41.950000 1495.122620 1497.184762 1499.095812 1499.024452 1500.808773 1502.793504
42.050000 1497.942974 1499.793414 1501.579602 1501.589864 1503.446109 1505.406762
42.150000 1500.387512 1502.233689 1504.124983 1504.104867 1505.944102 1507.867403
42.250000 1503.361729 1505.101415 1506.865107 1506.934770 1508.819637 1510.875349
42.320000 1505.721035 1507.482502 1509.307504 1509.479447 1511.414963 1514.472060
42.380000 1508.328768 1509.989370 1512.039695 1512.502999 1515.345151 1518.376777
42.440000 1510.381080 1512.311569 1514.942874 1515.324593 1518.584308 1521.685826
42.510000 1512.804810 1515.176300 1518.636887 1518.589910 1522.009024 1524.734797
42.610000 1515.713574 1519.687713 1523.119874 1522.813506 1525.955228 1527.809264
42.710000 1520.511746 1524.595031 1527.072974 1526.744918 1528.988058 1530.739623
42.850000 1527.718378 1529.565135 1531.356047 1531.316407 1532.974778 1534.810302
42.925000 1529.416149 1531.644823 1533.324602 1533.352318 1535.097742 1536.948433
43.000000 1531.765103 1533.532851 1535.239365 1535.272349 1537.071215 1538.902794
43.130000 1534.474456 1536.532469 1538.473344 1538.403342 1540.196984 1542.312812
43.140000 1534.786609 1536.872666 1538.760072 1538.715626 1540.490425 1542.587002
43.240000 1537.529101 1539.603491 1541.352522 1541.471672 1543.421613 1545.823260
43.320000 1540.359348 1542.184784 1543.918492 1544.222275 1546.282002 1549.897730
43.390000 1542.782627 1544.628807 1546.679024 1547.077991 1549.613233 1553.215023
43.460000 1545.587984 1547.607953 1550.607980 1550.930109 1554.407248 1557.883585
43.520000 1547.809163 1550.351841 1553.807106 1553.933553 1557.465218 1560.360057
43.605000 1550.787235 1554.341681 1558.153627 1557.768651 1561.017559 1563.214527
43.690000 1554.586259 1558.346039 1561.711847 1561.287579 1564.066382 1565.785727
43.820000 1559.875310 1563.348269 1565.978582 1565.627889 1567.820500 1569.355861
43.895000 1563.175813 1566.329184 1568.656817 1568.456122 1570.437537 1572.627968
43.970000 1567.462860 1569.444349 1571.099266 1571.171464 1572.869555 1575.611452
44.100000 1571.286092 1573.199785 1574.949368 1575.151063 1577.155348 1580.481545
44.200000 1574.451151 1576.159788 1577.973192 1578.330484 1580.429062 1584.327288
44.280000 1577.087133 1578.870161 1581.041511 1581.548419 1584.287027 1588.734691
44.350000 1579.839359 1581.912912 1584.817858 1585.028869 1588.239030 1591.322200
44.430000 1582.378369 1585.075412 1588.612902 1588.506831 1591.963118 1594.064170
44.520000 1585.349969 1588.746584 1592.351742 1592.006713 1595.128078 1597.240701
44.620000 1589.269307 1592.861499 1595.892325 1595.517293 1598.082220 1600.587099
44.730000 1593.395899 1596.630003 1599.010317 1598.830518 1601.080654 1603.243153
44.830000 1596.566742 1599.372415 1601.570197 1601.607482 1603.823011 1606.462402
44.940000 1599.961458 1602.233700 1604.597651 1604.767497 1607.195572 1610.493097
45.060000 1603.946784 1605.952350 1608.333508 1608.929972 1611.762574 1617.852470
45.190000 1607.751287 1610.055556 1613.207951 1614.096576 1618.397253 1624.543664
45.265000 1609.989311 1612.542398 1616.654807 1617.331933 1622.779527 1627.920004
45.340000 1612.350904 1615.225147 1620.045207 1620.484378 1625.839166 1630.568312
45.455000 1616.122628 1619.704789 1626.047797 1625.677603 1631.010485 1634.510698
45.570000 1620.529601 1626.002751 1631.733210 1630.972727 1635.632599 1638.157917
45.650000 1622.843177 1629.947760 1635.301299 1634.375517 1638.600840 1640.697073
45.740000 1626.650789 1634.984688 1638.917681 1638.134419 1641.394720 1643.455656
45.830000 1632.859676 1639.898570 1642.324368 1641.792223 1644.338753 1646.123220
45.920000 1639.945731 1643.229965 1645.255158 1645.038953 1647.090529 1648.866567
46.040000 1644.688115 1646.780524 1648.769081 1648.725699 1650.669400 1652.720813
46.150000 1648.022979 1649.733711 1651.601101 1651.613425 1653.451605 1655.862931
46.260000 1650.598162 1652.517490 1654.445937 1654.430173 1656.325567 1658.499603
46.350000 1652.843239 1654.790885 1656.741176 1656.858883 1658.801630 1661.213669
46.430000 1655.077454 1656.977311 1659.073832 1659.173570 1661.324848 1663.622291
46.500000 1656.886021 1659.086143 1661.495065 1661.437898 1663.671973 1666.158382
46.570000 1659.100689 1661.614082 1664.164369 1664.156521 1666.695435 1669.268362
46.640000 1662.335442 1664.717061 1667.324390 1667.543405 1670.424391 1674.250757
46.730000 1666.399141 1668.901268 1672.104690 1672.504282 1676.100039 1680.660536
46.850000 1670.163515 1673.550991 1677.939270 1678.090268 1682.807364 1686.405891
46.925000 1672.713622 1676.634773 1681.481592 1681.352326 1686.035829 1689.067795
47.000000 1675.264598 1679.759762 1685.028595 1684.498195 1688.809728 1691.992505
47.140000 1681.108651 1686.097799 1690.293845 1689.795420 1693.064527 1696.637483
47.250000 1686.491011 1690.446117 1693.974985 1693.557352 1696.222594 1699.917802
47.330000 1689.808390 1693.519938 1696.278689 1696.096493 1698.475597 1701.715269
47.380000 1692.131412 1695.390186 1697.813449 1697.784625 1700.024372 1703.568560
47.430000 1694.697073 1697.434772 1699.631458 1699.673315 1701.719723 1705.151794
47.510000 1698.375804 1700.110305 1702.107080 1702.313571 1704.342817 1706.982995
47.600000 1701.071594 1702.937554 1704.903384 1705.147044 1707.245067 1709.691944
47.620000 1701.838296 1703.672472 1705.681803 1705.955925 1708.228733 1710.435715
47.690000 1704.365461 1706.253279 1708.668383 1709.051236 1711.552625 1716.591541
47.700000 1704.754419 1706.740577 1709.093975 1709.516234 1711.949548 1716.899480
47.760000 1706.747849 1709.251731 1712.188556 1712.687895 1715.962423 1721.360574
47.830000 1709.214781 1711.597910 1715.442413 1715.905653 1719.822484 1725.381529
47.920000 1711.642750 1714.588215 1719.299428 1719.881910 1725.031420 1732.271517
48.030000 1714.425954 1718.603903 1724.070805 1724.827992 1730.579352 1740.865274
48.170000 1718.870380 1724.048075 1729.781591 1730.963745 1737.927829 1748.926328
48.290000 1723.109552 1729.440448 1735.114330 1736.324831 1743.697062 1755.339179
48.390000 1726.764117 1733.726496 1739.456236 1740.993572 1750.312006 1759.271543
48.470000 1730.423240 1737.492996 1743.696912 1744.898238 1754.025965 1761.345916
48.540000 1733.443503 1741.213372 1748.300802 1748.530625 1756.746560 1762.756554
48.630000 1737.902627 1746.504688 1753.798839 1753.367079 1760.242331 1765.355861
48.710000 1741.694080 1751.539146 1758.020770 1757.356440 1763.291644 1768.164571
48.820000 1749.215690 1757.975993 1763.013828 1762.616142 1767.780555 1771.901763
48.920000 1755.109789 1762.135150 1766.743286 1766.464044 1771.300242 1774.888339
49.020000 1760.633723 1766.053728 1770.348364 1770.158422 1774.374216 1777.991514
49.120000 1765.180128 1769.761433 1774.026269 1773.760597 1777.720978 1781.094804
49.210000 1769.018280 1773.391638 1777.462897 1777.230173 1781.140361 1784.632822
49.300000 1773.768575 1777.843707 1781.198469 1781.177122 1784.923632 1788.080440
49.410000 1777.954242 1781.826078 1785.333518 1785.208464 1788.799902 1792.357659
49.520000 1781.678111 1785.383051 1788.526061 1788.432337 1791.709938 1795.776112
49.630000 1784.951986 1788.512926 1791.375592 1791.411008 1794.836506 1798.624835
49.725000 1787.554721 1791.105216 1793.886487 1793.936417 1797.256538 1801.261983
49.820000 1790.588662 1793.698221 1796.380982 1796.490058 1799.516678 1803.510356
49.910000 1793.199367 1796.295862 1798.944302 1799.197096 1802.520137 1806.995532
50.000000 1795.946753 1799.096662 1801.764973 1802.073463 1805.392498 1810.673302
50.100000 1799.812366 1802.724173 1805.476601 1805.852304 1809.431359 1814.808828
50.200000 1802.971242 1805.818627 1808.886939 1809.345908 1813.262379 1818.058686
50.310000 1805.615966 1808.878788 1812.492208 1812.816660 1817.386084 1821.604472
50.410000 1808.035548 1811.581808 1815.678461 1815.786536 1820.499959 1824.633353
50.510000 1810.885099 1814.638528 1818.965901 1818.873544 1823.367761 1827.148147
50.600000 1813.039477 1817.576331 1821.847528 1821.640089 1825.828057 1829.302962
50.700000 1816.209567 1820.916280 1825.048633 1824.783895 1828.719863 1832.140473
50.810000 1819.872994 1824.593086 1828.392796 1828.096806 1831.482408 1835.329267
50.910000 1824.467925 1828.379106 1831.650624 1831.472984 1834.673768 1838.331333
51.020000 1828.445265 1831.983392 1834.825904 1834.737232 1837.476195 1841.191561
51.070000 1830.249038 1833.232872 1836.080745 1836.105542 1838.860809 1842.685803
51.200000 1833.069860 1835.900929 1838.855058 1839.088860 1842.038384 1848.438367
51.330000 1835.403605 1838.483851 1841.384930 1841.912881 1845.257741 1855.493768
51.460000 1838.216053 1840.956689 1844.082134 1844.722537 1848.174416 1858.444867
51.590000 1840.821410 1843.675513 1846.862652 1847.706321 1851.542800 1861.360000
51.695000 1842.954282 1846.147463 1849.192498 1850.262649 1854.312077 1863.832690
51.800000 1845.603154 1848.494110 1851.951463 1852.845935 1857.073024 1866.578212
51.880000 1847.273643 1850.580484 1854.166924 1855.078144 1859.796144 1868.149903
51.970000 1849.649580 1853.094541 1856.872373 1857.761600 1862.874625 1870.595974
52.100000 1853.246751 1857.174293 1861.421050 1861.958858 1867.127323 1873.468901
52.170000 1855.510528 1859.585768 1863.964427 1864.295120 1869.382693 1875.019353
52.250000 1857.238216 1862.229706 1867.142473 1867.126541 1872.143066 1877.015992
52.340000 1859.948097 1865.072553 1870.055324 1870.104470 1875.114366 1879.023089
52.440000 1863.487789 1868.763694 1873.630410 1873.315708 1877.891460 1881.345526
52.560000 1868.340071 1873.035773 1877.584103 1877.129881 1881.037729 1884.053005
52.640000 1870.428105 1875.474009 1879.856487 1879.413194 1883.313384 1886.116040
52.720000 1873.186792 1877.986059 1882.055817 1881.632517 1885.219343 1887.709145
52.800000 1875.905876 1880.313464 1884.089948 1883.738749 1887.297654 1889.438503
52.880000 1878.464319 1882.473605 1885.971179 1885.734434 1889.097041 1891.107844
52.955000 1880.646358 1884.660162 1888.007282 1887.657761 1890.714728 1892.559192
53.030000 1883.218113 1886.629389 1889.710125 1889.437601 1892.266065 1894.058675
53.150000 1886.779851 1889.897813 1892.486067 1892.299791 1894.688776 1896.152898
53.260000 1890.277895 1893.206958 1895.280637 1895.081577 1897.023757 1898.447408
53.350000 1893.580160 1895.896566 1897.785262 1897.560786 1899.189680 1900.255649
53.430000 1897.322540 1898.938477 1900.233998 1900.141576 1901.378474 1902.500898
53.500000 1899.474735 1900.645533 1901.767293 1901.760256 1902.857275 1903.821584
53.580000 1901.142535 1902.230134 1903.283640 1903.267301 1904.353675 1905.212686
53.650000 1902.519836 1903.517839 1904.518864 1904.512745 1905.512417 1906.617255
53.720000 1903.785374 1904.820889 1905.838511 1905.828770 1906.804611 1908.023663
53.730000 1903.963599 1905.034589 1906.044822 1906.048286 1907.031760 1908.252717
53.800000 1905.264129 1906.382615 1907.497465 1907.530295 1908.626889 1909.972763
53.890000 1906.994564 1908.092966 1909.328315 1909.408944 1910.708191 1912.386492
53.970000 1908.753736 1909.923242 1911.373661 1911.611351 1913.339250 1915.797205
54.060000 1910.689748 1912.040244 1913.744868 1914.133049 1916.337788 1919.399736
54.150000 1912.535030 1914.105328 1916.358399 1916.857424 1919.711809 1923.502819
54.240000 1914.418791 1916.230263 1919.095829 1919.580195 1923.216617 1927.078766
54.343333 1916.715505 1919.307505 1923.241752 1923.533331 1927.810288 1932.034203
54.446667 1919.192787 1923.003634 1927.306459 1927.512649 1932.068068 1936.154294
54.550000 1922.321511 1927.061098 1931.799690 1931.566206 1935.986414 1939.090572
54.656667 1925.984405 1931.627745 1936.328277 1935.718193 1939.643344 1942.284678
54.763333 1931.349774 1936.371774 1940.134904 1939.591575 1942.655064 1945.485204
54.870000 1938.541745 1941.163545 1943.331230 1943.324069 1945.517383 1948.203156
54.980000 1941.870136 1943.925810 1945.718079 1945.889659 1948.029413 1950.520636
55.080000 1944.154134 1945.880025 1947.676831 1947.927427 1950.018859 1952.960388
55.180000 1946.003566 1947.639752 1949.527098 1949.821597 1952.107234 1954.836672
55.290000 1947.805268 1949.421747 1951.611936 1951.903573 1954.284474 1957.403309
55.400000 1949.609123 1951.406754 1953.715136 1954.037277 1956.662206 1959.852584
55.510000 1951.724347 1953.747338 1956.153466 1956.504735 1959.325783 1962.570631
55.630000 1954.142905 1956.421501 1959.328773 1959.539951 1962.857688 1965.697146
55.735000 1956.159965 1959.243867 1962.673425 1962.604854 1966.044688 1968.734165
55.840000 1959.023683 1962.297460 1966.067701 1965.745464 1968.956611 1971.439172
55.950000 1962.415820 1966.225199 1969.369176 1969.077590 1971.703255 1974.635960
56.050000 1965.870507 1969.468252 1972.111322 1971.961780 1974.612444 1977.407938
56.150000 1969.062926 1971.994673 1974.537679 1974.527117 1977.016120 1980.382279
56.260000 1971.631630 1974.348882 1976.917677 1977.032504 1979.807611 1983.135724
56.370000 1973.858275 1976.513539 1979.264712 1979.379399 1982.298464 1985.485019
56.490000 1976.374472 1978.975195 1981.800711 1981.890917 1984.877531 1987.782716
56.620000 1979.057133 1981.806111 1984.691355 1984.711013 1987.695225 1990.441853
56.730000 1981.746805 1984.590859 1987.600555 1987.539877 1990.370408 1992.844476
56.840000 1986.071566 1988.350811 1991.265666 1991.307319 1994.102287 1997.181507
56.940000 1989.363403 1991.646663 1994.083323 1994.223584 1996.705766 2000.003549
57.030000 1993.707588 1995.388341 1997.452622 1997.721627 2000.259755 2003.007498
57.120000 1996.577531 1998.353226 2000.741230 2000.777807 2003.131106 2005.728930
57.200000 1998.396656 2000.580635 2002.949922 2002.973134 2005.339591 2007.988030
57.290000 2000.346177 2002.895514 2005.433540 2005.399225 2007.876323 2010.470502
57.390000 2002.635695 2005.406282 2008.085332 2008.065086 2010.655814 2013.182763
57.490000 2005.320421 2007.968316 2010.607144 2010.583254 2013.286483 2015.376904
57.590000 2007.774359 2010.551894 2013.068628 2012.925184 2015.374856 2017.286732
57.700000 2010.784119 2013.301293 2015.637180 2015.521114 2017.849015 2019.482396
57.820000 2013.904898 2016.382532 2018.677427 2018.539385 2020.673265 2022.724427
57.920000 2016.477415 2018.738952 2020.881032 2020.867330 2022.922562 2024.899149
58.030000 2018.994971 2021.082063 2023.266270 2023.168087 2025.040821 2026.960007
58.125000 2020.974877 2023.022380 2025.221498 2025.052289 2026.917976 2028.725900
58.220000 2022.801473 2024.997469 2027.040527 2026.932771 2028.805363 2030.704134
58.300000 2024.698121 2026.667243 2028.689472 2028.610329 2030.398530 2032.341171
58.310000 2025.010620 2027.001271 2028.977844 2028.867357 2030.629718 2032.632764
58.390000 2026.717314 2029.116492 2030.993633 2030.917494 2032.673035 2034.566064
58.480000 2029.546414 2031.577247 2033.367605 2033.478910 2035.475722 2037.430886
58.570000 2032.416192 2033.992167 2036.040653 2036.096637 2038.161448 2040.519296
58.670000 2034.478321 2036.175313 2038.253097 2038.391036 2040.695216 2042.890598
58.770000 2036.402651 2038.139622 2040.276578 2040.480073 2043.031261 2045.677537
58.880000 2038.098466 2040.056512 2042.370663 2042.602536 2045.207728 2048.538830
59.000000 2040.204479 2042.110377 2044.754366 2044.985246 2047.775445 2051.303160
59.120000 2042.441164 2044.465719 2047.391873 2047.675300 2051.016223 2054.303302
59.230000 2044.458584 2046.725379 2050.056212 2050.318819 2054.071847 2057.187644
59.340000 2046.588047 2049.494247 2053.195012 2053.174329 2056.983019 2059.613388
59.440000 2048.663001 2052.280376 2056.064100 2055.794414 2059.219323 2061.486657
59.530000 2051.249946 2055.162991 2058.619781 2058.239299 2061.252331 2063.254786
59.620000 2054.458315 2057.909336 2061.046159 2060.674253 2063.276438 2064.931117
59.710000 2058.118433 2060.898545 2063.332972 2063.059096 2065.231622 2066.703506
59.810000 2061.458824 2063.752090 2065.608335 2065.522985 2067.324885 2069.042265
59.840000 2062.464144 2064.662722 2066.461748 2066.362074 2068.046302 2069.689679
59.910000 2064.863482 2066.379324 2068.073910 2068.081850 2069.698547 2071.335107
59.950000 2065.891595 2067.357715 2068.968596 2069.001349 2070.600187 2072.179922
60.020000 2067.402921 2068.853939 2070.459319 2070.485030 2071.988977 2073.986546
60.060000 2068.215972 2069.683500 2071.249543 2071.309502 2072.817472 2074.874285
60.170000 2069.906741 2071.613867 2073.206734 2073.362616 2075.175065 2077.394622
60.300000 2072.145396 2073.963846 2075.732124 2075.975879 2078.029892 2080.907784
60.420000 2074.520911 2076.257539 2078.408374 2078.672466 2080.990389 2084.147441
60.520000 2076.485333 2078.744165 2081.118778 2081.271651 2083.787009 2086.899577
60.610000 2078.777421 2081.461692 2084.187456 2084.234911 2086.867227 2090.126289
60.700000 2082.192016 2085.079815 2088.065862 2088.329161 2091.269445 2097.639953
60.790000 2085.668598 2088.769112 2091.912733 2092.555570 2096.438065 2103.255367
60.900000 2089.765818 2092.502260 2096.707329 2097.757637 2103.349556 2110.556411
61.000000 2092.561139 2095.135309 2101.095595 2101.929238 2109.158772 2115.109334
61.090000 2094.797954 2097.330686 2105.074693 2105.366668 2113.898166 2118.744280
61.100000 2095.015233 2097.707500 2105.383341 2105.740304 2114.182001 2119.175447
61.190000 2097.148067 2100.835310 2108.762650 2109.261586 2118.372894 2122.447498
61.270000 2099.257865 2103.911585 2112.130005 2112.237595 2121.308677 2125.179735
61.360000 2101.776700 2107.240247 2115.499437 2115.591804 2124.410573 2128.218709
61.470000 2105.848385 2112.151255 2120.458237 2120.010760 2127.557596 2131.849713
61.610000 2111.529573 2119.912336 2126.996882 2125.922895 2131.441637 2135.930403
61.690000 2115.882387 2124.300975 2130.401653 2129.547475 2134.665018 2139.045661
61.770000 2120.133751 2129.172815 2133.695627 2133.214357 2137.647729 2141.722230
61.885000 2128.837046 2134.417000 2138.421833 2138.253541 2141.913881 2147.825334
62.000000 2137.115535 2140.223010 2143.506861 2143.521627 2146.221917 2153.389868
62.070000 2143.424288 2146.312692 2148.735823 2149.678868 2153.724950 2159.261092
62.120000 2146.635605 2148.815405 2152.121638 2152.953851 2157.938509 2161.369426
62.170000 2148.881170 2151.819899 2156.107388 2156.182615 2160.586694 2163.339998
62.230000 2151.195926 2156.340117 2160.827944 2160.305792 2164.205417 2166.689969
