depth(m) lower_95(kyr) lower_68(kyr) median(kyr) mean(kyr) upper_68(kyr) upper_95(kyr)
56.850000 1398.548901 1399.621751 1400.481937 1400.465803 1401.329859 1402.227636
56.950000 1400.956599 1401.985566 1403.031383 1403.205227 1404.417017 1406.476619
57.050000 1402.953760 1404.148837 1405.728749 1406.108820 1408.191977 1411.456887
57.150000 1404.782511 1406.289755 1408.371980 1408.870283 1411.609127 1415.131079
57.250000 1407.042015 1408.679216 1411.323730 1411.699405 1414.949466 1417.764541
57.350000 1409.266035 1411.395193 1414.484312 1414.565460 1417.815175 1420.225907
57.450000 1411.666432 1414.508650 1417.951783 1417.720667 1420.603287 1422.784591
57.550000 1415.255254 1418.222639 1421.141577 1420.856479 1423.422181 1425.178753
57.650000 1418.908704 1421.965628 1424.056877 1423.983714 1426.093394 1428.261098
57.750000 1423.118591 1424.933135 1427.073628 1427.255418 1429.328859 1432.645522
57.850000 1425.987783 1427.758871 1430.130605 1430.472306 1433.247188 1436.657461
57.950000 1428.723289 1430.393386 1433.086498 1433.448902 1436.439315 1440.680850
58.050000 1430.843178 1433.136711 1436.013258 1436.280082 1439.357593 1443.023885
58.150000 1433.162709 1435.849962 1438.901871 1439.081601 1442.261065 1445.385383
58.250000 1435.479443 1438.306193 1441.714888 1441.777561 1445.014589 1447.930539
58.350000 1438.097837 1441.297792 1444.965863 1444.718711 1448.088410 1450.029353
58.450000 1441.469561 1444.905994 1448.574959 1448.138515 1451.003697 1452.905298
58.550000 1445.714911 1450.088393 1453.046951 1452.714452 1455.357968 1457.560470
58.650000 1449.214410 1453.049246 1455.827183 1455.609373 1458.341215 1460.353361
58.750000 1451.977110 1455.728862 1458.365387 1458.254131 1460.849476 1463.038017
58.850000 1455.156874 1458.453500 1461.007444 1460.742724 1463.070223 1465.035456
58.950000 1458.175599 1461.021307 1463.444673 1463.228935 1465.359893 1467.352094
59.050000 1461.217735 1463.733707 1465.851304 1465.730295 1467.717164 1469.778566
59.150000 1463.837682 1466.109033 1468.175855 1468.170945 1470.219833 1473.084279
59.250000 1466.096304 1468.136398 1470.239552 1470.378963 1472.568162 1475.777517
59.350000 1467.996694 1470.023786 1472.419959 1472.599132 1475.113630 1479.123121
59.450000 1469.820154 1471.887906 1474.584645 1474.856653 1478.063834 1481.343369
59.550000 1471.374863 1473.627303 1476.869266 1477.144409 1480.849847 1483.917819
59.650000 1473.236735 1475.310574 1479.396537 1479.444347 1483.556597 1486.603518
59.750000 1474.504448 1476.916236 1482.023942 1481.788110 1486.225437 1489.397970
59.892857 1476.217330 1478.926947 1485.666708 1485.478295 1491.020712 1496.932550
60.035714 1477.991896 1480.879516 1489.792052 1489.496749 1497.214002 1503.570668
60.178571 1479.874009 1482.625346 1494.371714 1493.472301 1502.462938 1507.676057
60.321429 1481.856184 1484.515017 1499.218243 1497.526521 1506.980258 1511.664087
60.464286 1483.816676 1486.343671 1504.500361 1501.612611 1511.114998 1515.285526
60.607143 1485.702145 1488.016474 1510.194607 1505.800718 1515.243537 1518.364530
60.750000 1487.622563 1489.948771 1515.077924 1509.635308 1518.839755 1521.588991
60.850000 1489.270702 1491.256756 1517.727508 1511.979059 1521.103356 1523.831514
60.950000 1490.799362 1493.045542 1520.292016 1514.258970 1523.448813 1526.189919
61.050000 1492.238989 1494.850089 1523.083990 1516.794729 1526.211475 1528.742964
61.150000 1494.400310 1497.077715 1526.300355 1520.003926 1530.114112 1533.893483
61.250000 1496.332790 1499.337164 1529.918560 1523.362136 1533.912456 1538.117130
61.350000 1498.573010 1501.418977 1534.027181 1527.021111 1537.874359 1541.553874
61.483333 1501.400897 1504.731551 1538.502770 1531.531079 1542.955540 1547.845029
61.616667 1504.302119 1507.779356 1542.638227 1535.609555 1547.134155 1551.614369
61.750000 1507.123556 1510.985008 1547.026895 1539.632721 1551.175351 1554.286575
61.850000 1509.250931 1513.371458 1550.289285 1542.630904 1554.189566 1556.864762
61.950000 1511.377344 1515.374562 1552.809114 1545.114347 1556.782601 1559.200054
62.083333 1513.748716 1518.092391 1555.866681 1548.394914 1559.549037 1561.873173
62.216667 1516.371897 1520.732263 1558.936165 1551.476628 1562.163881 1564.486547
62.350000 1518.721421 1523.346157 1561.788535 1554.637626 1564.858775 1566.919200
62.450000 1520.554878 1525.662649 1564.167105 1556.981256 1566.871264 1568.530806
62.550000 1522.875354 1528.203281 1567.074052 1559.692292 1569.154036 1570.973018
62.650000 1526.290638 1532.396631 1570.296142 1563.122871 1572.352256 1574.636089
62.750000 1529.726631 1538.295459 1573.097472 1566.415954 1575.641209 1578.292861
62.850000 1532.404955 1543.292292 1575.768712 1569.405562 1578.806073 1581.874986
62.983333 1535.686289 1549.077096 1578.973102 1573.008698 1582.517590 1586.159593
63.116667 1540.558001 1555.189973 1581.922572 1576.521903 1585.912402 1590.512071
63.250000 1544.546633 1562.826336 1585.098970 1580.022019 1589.201552 1593.945799
63.383333 1548.034199 1570.577351 1588.183686 1583.238879 1592.327781 1597.490624
63.516667 1550.436064 1578.174259 1591.005243 1586.488683 1595.452774 1601.205190
63.650000 1553.019405 1583.187096 1594.042290 1589.719193 1598.377820 1603.952095
63.750000 1555.770613 1585.192121 1596.371901 1592.205603 1600.780197 1606.371852
63.850000 1558.365895 1586.863343 1599.329130 1594.966987 1603.345050 1609.106441
63.950000 1560.423794 1588.743250 1602.334925 1597.851756 1606.350836 1611.796282
64.050000 1563.601240 1590.129839 1605.786257 1601.305321 1610.416996 1615.364797
64.150000 1567.278444 1591.696675 1609.308555 1604.936897 1613.986948 1618.716936
64.250000 1570.347620 1593.302401 1612.448491 1608.428036 1617.548578 1622.868601
64.350000 1581.011222 1594.935073 1615.621418 1611.506361 1620.376605 1625.987506
64.450000 1585.167531 1596.650696 1618.880995 1614.300142 1622.957050 1628.309159
64.595000 1590.554046 1598.754567 1622.621899 1618.344729 1626.347942 1632.261217
64.740000 1595.639275 1601.344572 1626.656528 1622.506828 1630.494887 1635.318341
64.840000 1598.371986 1603.395655 1628.973178 1625.068017 1632.853950 1637.675488
64.850000 1598.635689 1603.577984 1629.227584 1625.337841 1633.197920 1637.918146
64.940000 1600.851453 1605.492562 1631.517859 1627.576027 1635.242503 1639.968958
64.950000 1601.035356 1605.744466 1631.775074 1627.846204 1635.507316 1640.223303
65.040000 1602.742290 1607.837061 1634.197482 1630.148586 1638.340265 1642.556049
65.140000 1604.638720 1610.224912 1636.833413 1632.937075 1641.523304 1647.370444
65.240000 1606.087459 1612.276513 1639.721193 1635.806044 1644.799476 1654.782774
65.340000 1607.733811 1614.478454 1642.251890 1638.615747 1648.110235 1658.038433
65.440000 1609.748178 1616.609764 1646.318722 1642.537511 1653.674348 1663.241579
65.540000 1611.889112 1618.770083 1651.333546 1646.800301 1659.085331 1666.942958
65.640000 1613.781593 1620.622472 1656.862528 1650.969695 1663.870680 1669.823869
65.740000 1615.636455 1623.302176 1661.446071 1654.839444 1667.561640 1673.084229
65.840000 1617.800285 1625.022371 1665.685265 1658.614305 1670.871930 1676.400013
65.940000 1619.716441 1627.237851 1669.038913 1661.933902 1673.770756 1680.996399
66.040000 1621.596592 1629.779506 1672.294698 1665.181560 1677.333603 1686.145641
66.140000 1623.689078 1632.470433 1675.072776 1668.066780 1680.336637 1689.856465
66.260000 1625.784245 1635.930482 1678.033138 1671.235734 1683.886178 1697.127688
66.380000 1628.266620 1639.333128 1680.926138 1674.391492 1686.992437 1703.584574
66.500000 1630.999108 1641.774086 1683.891251 1677.501842 1690.367344 1708.973539
66.620000 1633.923582 1644.109413 1686.685254 1680.566079 1693.345209 1716.927376
66.740000 1637.095190 1647.582058 1689.758654 1683.774957 1696.109780 1719.889591
66.840000 1639.806046 1653.406335 1692.947636 1687.009840 1699.196703 1724.858943
66.940000 1643.158224 1659.104965 1695.827919 1690.141673 1702.661153 1729.166633
67.040000 1646.237247 1662.996538 1698.462222 1693.286868 1705.918343 1733.129298
67.140000 1650.449734 1666.097629 1701.905137 1696.571225 1708.636649 1739.377848
67.240000 1656.475570 1668.977437 1705.035387 1700.054226 1711.526749 1744.036243
67.340000 1662.537569 1672.648082 1708.427120 1703.535561 1714.802512 1747.346632
67.440000 1667.330313 1675.646693 1711.790540 1707.099384 1718.065647 1752.034484
67.540000 1670.377301 1678.421673 1714.510511 1709.905592 1720.745619 1754.861942
67.640000 1673.278281 1680.667161 1717.079732 1712.616174 1723.714002 1757.965863
67.740000 1675.144322 1683.567554 1719.722070 1715.289924 1726.379558 1760.740834
67.840000 1677.035515 1685.418809 1722.131172 1717.799851 1728.771470 1762.566536
67.940000 1679.312985 1687.688055 1724.568416 1720.289133 1731.438187 1765.962315
68.040000 1681.812460 1689.375812 1726.975998 1722.752939 1734.073795 1768.142788
68.140000 1684.017197 1691.546789 1729.225037 1725.145109 1736.307674 1770.001376
68.240000 1686.350421 1693.743454 1731.550793 1727.529520 1738.831628 1772.564674
68.340000 1688.688284 1695.983456 1734.113091 1729.883687 1741.138997 1775.147082
68.465000 1691.725870 1700.881895 1737.473148 1733.050804 1744.480324 1778.465441
68.590000 1694.933747 1705.280504 1740.371256 1736.123189 1747.659093 1781.685940
68.715000 1698.465559 1709.738548 1743.153671 1739.255553 1751.028155 1785.022800
68.840000 1701.269601 1712.853904 1746.306051 1742.329542 1754.325919 1789.079297
68.940000 1703.908835 1716.291614 1748.820458 1744.933859 1757.112310 1791.630003
69.040000 1706.391622 1720.018169 1751.584560 1747.571896 1760.156247 1793.667761
69.140000 1708.839811 1723.646460 1754.340798 1750.234405 1763.690779 1799.260674
69.284444 1712.592349 1728.277499 1758.162075 1753.959804 1768.371196 1801.837982
69.428889 1715.225469 1732.048365 1762.387985 1757.726678 1772.606839 1804.084947
69.573333 1719.313979 1735.567123 1766.684979 1761.540592 1776.596388 1806.981783
69.717778 1723.696552 1739.804144 1771.395559 1765.556237 1780.457597 1809.591405
69.862222 1726.981697 1742.808454 1775.333293 1769.454874 1784.076979 1812.269334
70.006667 1729.841459 1745.857689 1780.085454 1773.392756 1787.644892 1816.210034
70.151111 1734.736847 1748.141492 1784.779887 1777.359063 1791.105249 1818.508972
70.295556 1738.121893 1750.748152 1789.398255 1781.367274 1794.213381 1821.806338
70.440000 1742.489564 1753.355776 1793.673964 1785.345085 1797.540918 1826.641324
70.540000 1744.818340 1755.576282 1796.673900 1788.189614 1800.481628 1828.552075
70.640000 1748.039615 1758.296392 1800.065551 1791.579997 1804.425893 1830.933394
70.740000 1751.385886 1761.299964 1803.588845 1795.390155 1809.578251 1832.490016
70.840000 1754.065914 1763.780600 1807.167997 1798.900629 1814.524413 1834.010788
70.940000 1756.867741 1766.447060 1810.530998 1802.146926 1818.535020 1836.206590
71.040000 1759.547788 1769.136326 1814.053773 1805.483333 1822.764887 1838.294268
71.140000 1762.047837 1772.052171 1818.074856 1808.989217 1826.840893 1840.634798
71.240000 1765.515582 1774.489251 1822.489000 1812.661857 1830.733989 1842.923777
71.340000 1769.293423 1776.776418 1826.701681 1816.319691 1835.077633 1845.515305
71.440000 1772.850447 1778.895753 1830.415192 1819.791331 1838.955896 1848.689990
71.540000 1775.945415 1780.993275 1834.293503 1823.351528 1843.036586 1851.113901
71.640000 1778.952078 1783.028702 1838.271921 1826.886691 1846.864551 1853.865431
71.740000 1781.026147 1785.096712 1842.325887 1830.309558 1850.589712 1856.025217
71.840000 1783.415166 1787.362348 1847.099168 1833.777062 1854.376002 1858.426411
71.940000 1785.772829 1789.502043 1851.566080 1837.248869 1857.907406 1860.700197
72.040000 1787.654279 1791.519555 1855.171262 1840.127736 1860.265024 1863.064686
72.140000 1789.657289 1793.438220 1858.066725 1842.671498 1862.430886 1865.200151
72.240000 1791.465834 1795.455381 1860.521986 1845.008890 1864.520289 1867.072000
72.340000 1793.195494 1797.328606 1862.647846 1847.153078 1866.458342 1868.807532
72.440000 1794.975347 1799.149390 1864.865984 1849.272246 1868.365922 1870.509661
72.540000 1797.069339 1800.978125 1866.907994 1851.351428 1870.137024 1872.217641
72.640000 1798.750205 1802.719025 1868.877163 1853.386890 1872.023841 1874.099816
72.740000 1800.559943 1804.628639 1870.988425 1855.334473 1873.751387 1875.758634
72.840000 1802.203460 1806.859312 1872.924770 1857.302732 1875.390536 1877.474227
72.940000 1803.951783 1809.067196 1874.806604 1859.386688 1877.300384 1879.347722
73.040000 1805.796450 1811.926127 1876.564878 1861.448673 1879.121515 1880.987665
73.140000 1807.991511 1814.986592 1878.579098 1863.582760 1881.000401 1883.007142
73.240000 1809.994387 1817.866611 1880.371822 1865.668645 1882.826485 1884.749311
73.340000 1812.117126 1820.915482 1882.205729 1867.721855 1884.579070 1886.537846
73.440000 1814.172171 1824.809784 1883.904073 1869.830094 1886.329055 1888.159300
73.565000 1816.939182 1828.780532 1885.916386 1872.349710 1888.426882 1890.395150
73.690000 1819.859683 1832.791142 1888.237354 1874.942131 1890.625599 1892.350636
73.815000 1823.042166 1838.096810 1890.319207 1877.541477 1892.626055 1894.184518
73.940000 1826.044504 1842.817993 1892.464025 1880.236791 1894.643367 1896.156864
74.040000 1829.021166 1846.020942 1894.363118 1882.468530 1896.393006 1897.837313
74.140000 1832.666008 1848.886527 1896.430252 1884.872561 1898.525423 1900.064228
74.273333 1837.941205 1853.438166 1898.723140 1887.854053 1900.789991 1902.763136
74.406667 1842.434935 1857.699420 1901.123377 1890.820877 1903.192430 1905.111157
74.540000 1846.394056 1861.595383 1903.398462 1893.706840 1905.511707 1907.724513
74.640000 1851.950231 1864.361201 1905.226733 1895.885127 1907.582127 1909.677527
74.740000 1855.912238 1866.865050 1907.029325 1898.002097 1909.624764 1912.359876
74.840000 1860.039837 1869.309377 1908.824263 1900.075092 1911.482585 1915.107578
74.940000 1863.085088 1871.591465 1910.657146 1902.150231 1913.458683 1917.433374
75.040000 1866.530288 1873.840696 1912.685502 1904.544342 1915.838941 1921.183061
75.140000 1869.149954 1876.386539 1914.744945 1906.850047 1918.269043 1923.744569
75.240000 1872.459256 1879.254547 1917.017672 1909.440296 1921.038182 1926.901827
75.340000 1875.335671 1882.686997 1919.763337 1912.662378 1924.780721 1932.417379
75.440000 1878.454230 1886.143539 1923.159413 1916.413798 1929.844788 1937.068785
75.540000 1881.864169 1889.995625 1927.746300 1920.968114 1936.105068 1940.641879
75.640000 1885.614786 1894.779818 1933.546732 1925.686341 1940.731214 1943.902564
75.740000 1890.119852 1897.690693 1939.194734 1929.864957 1943.192229 1946.183776
75.840000 1896.305506 1900.549438 1943.481303 1934.140202 1946.441958 1949.619864
75.940000 1899.009598 1902.494711 1945.972542 1936.746778 1948.929159 1952.275487
76.040000 1902.010705 1904.624476 1948.281155 1939.181001 1951.243222 1954.351533
76.140000 1903.890958 1907.275855 1950.694830 1941.655572 1953.967283 1957.444396
76.240000 1905.791810 1909.687033 1953.229797 1944.237311 1956.921038 1960.472225
76.340000 1908.695593 1912.719026 1956.127048 1947.311286 1960.160751 1963.945339
76.440000 1911.533458 1916.257582 1959.540254 1950.630679 1963.514546 1966.790115
76.540000 1914.751347 1920.219131 1963.211454 1954.330049 1967.221093 1970.413946
76.640000 1917.953308 1923.784562 1967.069178 1957.848487 1970.613228 1973.839549
76.740000 1922.274741 1928.509870 1970.881779 1962.033559 1974.604589 1980.087165
76.840000 1925.879828 1932.459769 1974.989063 1966.330015 1979.449402 1984.473802
76.940000 1929.500775 1935.773573 1979.220672 1970.346340 1984.089007 1988.131917
77.040000 1932.551805 1938.836550 1983.579034 1974.434929 1988.809968 1992.659492
77.140000 1935.633666 1941.664830 1988.232986 1978.539665 1993.035453 1996.270912
77.240000 1939.513952 1944.733416 1993.018414 1982.769094 1997.362752 1999.875452
77.340000 1943.428221 1947.399930 1997.565564 1986.802062 2000.585874 2003.435199
77.440000 1945.989362 1949.911036 2000.204004 1989.534769 2003.117892 2006.049694
77.540000 1948.123457 1952.790817 2002.636639 1991.965773 2005.634796 2008.283911
77.640000 1950.747640 1955.392378 2004.923298 1994.497094 2008.161370 2011.382102
77.740000 1953.418216 1959.306850 2007.518092 1997.315154 2011.056573 2014.413384
77.840000 1956.538463 1962.558967 2010.288160 2000.278162 2013.917646 2017.276664
77.940000 1960.254799 1967.314860 2013.635061 2003.659519 2017.111077 2020.109036
78.040000 1965.020262 1972.800385 2017.181721 2007.542268 2020.740113 2023.525816
78.140000 1969.783530 1976.338141 2020.124499 2010.719100 2023.423551 2026.332737
78.240000 1974.163975 1980.260536 2023.223993 2013.866778 2026.242076 2029.023122
78.340000 1976.948420 1983.154672 2025.813748 2016.693886 2028.781746 2031.457239
78.440000 1981.057574 1987.704372 2028.475138 2019.685818 2031.557448 2034.123693
78.540000 1985.534238 1993.408731 2031.505290 2023.316673 2034.785354 2037.792012
78.640000 1990.401808 1998.122506 2034.436755 2026.960171 2037.970108 2041.434680
78.740000 1994.195564 2003.798618 2037.383181 2030.143987 2040.896370 2044.354792
78.840000 1999.111267 2008.808679 2039.964959 2033.270845 2043.532367 2046.821373
78.940000 2004.831924 2014.027628 2042.536861 2036.363028 2046.083970 2049.568973
79.040000 2009.288215 2018.664468 2045.120981 2039.439929 2048.631668 2051.721199
79.140000 2013.339911 2023.470117 2047.507572 2042.339968 2050.998907 2053.915936
79.240000 2017.980434 2028.926071 2049.857272 2045.226130 2053.367755 2056.106551
79.340000 2021.774832 2034.119632 2051.930215 2048.167054 2055.302861 2058.288890
79.440000 2025.610601 2042.388409 2054.544072 2051.211773 2057.536917 2060.211607
79.540000 2029.953363 2051.231097 2057.114008 2054.453879 2060.081810 2062.865712
79.640000 2038.198099 2055.773130 2060.263520 2058.482337 2063.189723 2065.470034
79.740000 2046.172118 2059.661316 2063.759533 2062.509397 2066.218677 2069.174528
79.840000 2057.156470 2063.101677 2066.192330 2065.803165 2068.656771 2072.153363
79.940000 2062.908732 2066.040961 2068.590875 2068.612069 2071.217068 2074.761659
80.040000 2065.911586 2068.575206 2070.886351 2071.058656 2073.778897 2076.850580
80.140000 2068.096985 2070.681844 2073.181042 2073.254765 2076.048549 2078.763132
80.240000 2069.638686 2072.820759 2075.567336 2075.707374 2078.898794 2081.190460
80.340000 2071.952136 2074.737012 2077.777778 2077.920510 2081.224400 2083.660524
80.440000 2074.459576 2077.048768 2080.206705 2080.221894 2083.351576 2085.861630
80.540000 2076.962424 2079.419083 2082.802298 2082.645661 2085.633287 2088.166527
80.640000 2079.129698 2082.112336 2085.164718 2085.045495 2087.910777 2090.588636
80.740000 2081.616826 2084.839895 2087.780713 2087.636776 2090.420460 2093.146393
80.840000 2084.762568 2087.672954 2090.273463 2090.289392 2092.918326 2095.721796
80.940000 2087.883608 2090.342633 2092.813146 2093.049792 2095.757249 2099.078830
81.040000 2090.090481 2092.624484 2095.311731 2095.525403 2098.337323 2102.083149
81.140000 2092.139048 2094.728931 2097.563810 2097.775480 2100.849874 2104.603769
81.240000 2093.858094 2096.721439 2099.835417 2099.972730 2103.208729 2106.973939
81.340000 2095.493176 2098.726603 2102.019812 2102.123720 2105.392939 2109.216219
81.440000 2097.660626 2100.794389 2104.093174 2104.282864 2107.796850 2111.716092
81.540000 2099.692327 2102.870443 2106.279640 2106.415678 2110.131912 2114.099443
81.640000 2101.802318 2105.114485 2108.485864 2108.613157 2112.246411 2116.359499
81.740000 2104.193499 2107.354571 2110.814451 2110.833904 2114.299960 2118.623107
81.840000 2106.697913 2109.708263 2113.109733 2113.173302 2116.543097 2120.555889
81.940000 2108.894993 2112.160881 2115.444888 2115.460948 2118.619739 2122.516149
82.040000 2111.625416 2114.810699 2118.007514 2117.953168 2120.937560 2124.489826
82.140000 2114.092679 2117.539939 2120.646395 2120.490226 2123.492464 2126.346418
82.240000 2116.974439 2120.333055 2123.287658 2123.153819 2125.930956 2128.700754
82.340000 2120.069850 2123.388395 2126.089709 2126.042022 2128.840601 2131.258897
