depth(m) lower_95(kyr) lower_68(kyr) median(kyr) mean(kyr) upper_68(kyr) upper_95(kyr)
174.180000 1411.571912 1412.563228 1413.612852 1413.568537 1414.512560 1415.505717
174.300000 1412.498972 1413.487992 1414.641285 1414.639276 1415.755317 1417.081097
174.420000 1413.287292 1414.387255 1415.636863 1415.716354 1417.050157 1418.799956
174.540000 1414.185733 1415.351473 1416.658846 1416.777554 1418.272203 1420.030195
174.660000 1415.091783 1416.330187 1417.677780 1417.813763 1419.381331 1420.945623
174.780000 1415.913883 1417.321003 1418.693347 1418.780098 1420.345361 1421.934333
174.880000 1416.520207 1417.893750 1419.381536 1419.441388 1420.988166 1422.571370
174.980000 1417.081902 1418.465250 1420.036756 1420.070765 1421.575519 1423.116323
175.080000 1417.687569 1419.189947 1420.700014 1420.688891 1422.125857 1423.595117
175.200000 1418.493799 1419.995681 1421.483863 1421.477396 1422.915660 1424.724099
175.320000 1419.253859 1420.821028 1422.313471 1422.273334 1423.636671 1425.596331
175.440000 1420.072907 1421.611807 1423.060091 1423.081878 1424.478209 1426.308517
175.560000 1420.842271 1422.466117 1423.871741 1423.887762 1425.260062 1427.264229
175.680000 1421.566686 1423.297811 1424.618467 1424.693822 1426.106857 1428.115895
175.780000 1422.245801 1423.925810 1425.217473 1425.352893 1426.878258 1428.973313
175.880000 1422.833247 1424.558860 1425.890011 1426.021020 1427.653827 1429.815352
175.980000 1423.494641 1425.166319 1426.534171 1426.711759 1428.312507 1430.575894
176.100000 1424.323036 1425.925357 1427.284978 1427.547283 1429.299740 1431.657447
176.220000 1425.205004 1426.587206 1428.065040 1428.377279 1430.243831 1432.584658
176.340000 1426.082881 1427.315563 1428.947769 1429.222443 1431.216092 1433.821254
176.460000 1426.898893 1428.086439 1429.759681 1430.060889 1432.148045 1434.922411
176.580000 1427.528818 1428.838551 1430.571777 1430.873000 1432.976554 1435.939622
176.680000 1428.086684 1429.436007 1431.191238 1431.550855 1433.707754 1436.818562
176.780000 1428.680443 1430.012930 1431.965262 1432.244105 1434.584734 1437.554382
176.880000 1429.208848 1430.600357 1432.640519 1432.921526 1435.454217 1438.378540
176.980000 1429.737866 1431.163708 1433.246286 1433.590898 1436.309607 1439.310521
177.080000 1430.312595 1431.783101 1433.957334 1434.291828 1437.074291 1439.999968
177.180000 1430.950587 1432.385603 1434.684278 1434.986073 1437.845421 1440.876052
177.280000 1431.525840 1433.046946 1435.354495 1435.690225 1438.791014 1441.596780
177.380000 1432.097811 1433.612146 1435.944869 1436.391104 1439.654857 1442.588665
177.480000 1432.518029 1434.261472 1436.579403 1437.083696 1440.432590 1443.407200
177.580000 1433.025213 1434.845861 1437.226905 1437.757582 1441.196813 1444.044547
177.680000 1433.590007 1435.431705 1437.900845 1438.451464 1441.965791 1444.918466
177.780000 1434.053914 1436.129652 1438.588887 1439.150439 1442.599629 1445.344668
177.880000 1434.680167 1436.795653 1439.317779 1439.869754 1443.409570 1446.211329
177.980000 1435.367261 1437.408443 1440.068589 1440.569515 1444.116961 1446.819518
178.080000 1436.084068 1438.187038 1440.843309 1441.318797 1444.796167 1447.432906
178.223478 1436.871022 1439.244977 1441.953438 1442.351932 1445.778381 1448.569425
178.366957 1437.851310 1440.286802 1443.039301 1443.410529 1446.865436 1449.440713
178.510435 1438.950502 1441.316206 1444.185831 1444.449574 1448.023634 1450.423722
178.653913 1439.873560 1442.353514 1445.268667 1445.505157 1449.045541 1451.578405
178.797391 1440.731764 1443.440125 1446.438729 1446.570936 1450.103553 1452.779442
178.940870 1441.653337 1444.457227 1447.515104 1447.645976 1451.065051 1453.689926
179.084348 1442.322181 1445.433250 1448.581606 1448.740422 1452.168037 1454.720336
179.227826 1443.292768 1446.525779 1449.742081 1449.805022 1453.141540 1455.827362
179.371304 1444.031095 1447.621445 1450.806467 1450.886251 1454.152406 1457.125895
179.514783 1444.837723 1448.792264 1452.025518 1451.957425 1455.318140 1458.162218
179.658261 1445.552730 1449.892406 1453.109625 1453.011580 1456.351170 1459.055409
179.801739 1446.267525 1450.978251 1454.262051 1454.091264 1457.385189 1459.879445
179.945217 1447.049193 1452.176349 1455.288319 1455.160191 1458.433578 1461.397905
180.088696 1447.651054 1453.333326 1456.406171 1456.265890 1459.745922 1462.593021
180.232174 1448.496581 1454.335569 1457.653329 1457.358312 1460.803165 1463.678721
180.375652 1449.456199 1455.512083 1458.821900 1458.495767 1461.865366 1465.173586
180.519130 1450.205081 1456.478427 1459.876412 1459.549014 1462.834796 1466.210464
180.662609 1451.424341 1457.555647 1461.062498 1460.649571 1463.896114 1467.127894
180.806087 1452.625285 1458.617807 1462.196046 1461.787785 1464.872768 1468.055069
180.949565 1453.776602 1459.813548 1463.441594 1462.937296 1466.069386 1469.084018
181.093043 1454.852705 1461.237129 1464.584333 1464.128837 1467.265050 1470.218576
181.236522 1455.983683 1462.599861 1465.756547 1465.358743 1468.426306 1471.356197
181.380000 1457.099370 1463.881000 1466.949772 1466.613314 1469.680693 1472.531513
181.521000 1458.550730 1464.979152 1468.202907 1467.925943 1471.196844 1473.839991
181.662000 1460.001283 1466.257604 1469.666031 1469.320624 1472.780087 1475.594066
181.803000 1462.631729 1467.614417 1471.004625 1470.778427 1474.243811 1477.299761
181.944000 1464.182811 1468.974958 1472.408841 1472.236454 1475.715730 1478.568237
182.085000 1465.704824 1470.239571 1473.929935 1473.761335 1477.396275 1480.302159
182.226000 1467.722448 1471.890690 1475.498635 1475.371117 1478.961351 1482.338677
182.367000 1469.740916 1473.394372 1477.043720 1476.950367 1480.566478 1483.424912
182.508000 1471.373579 1474.897920 1478.664527 1478.537661 1482.290947 1484.860669
182.649000 1473.359972 1476.701598 1480.314874 1480.177595 1483.647365 1486.359172
182.790000 1474.845511 1478.357333 1481.964196 1481.845031 1485.238503 1487.775208
182.918571 1476.658304 1479.854828 1483.582432 1483.380814 1486.810775 1489.586926
183.047143 1478.200166 1481.520113 1485.071492 1484.930626 1488.225361 1491.134013
183.175714 1479.599602 1483.341350 1486.725227 1486.544937 1489.535574 1493.124383
183.304286 1481.375178 1485.144098 1488.143698 1488.094253 1491.073504 1494.737280
183.432857 1483.104336 1486.787669 1489.722796 1489.720246 1492.452674 1496.332988
183.561429 1485.433270 1488.826631 1491.283217 1491.445020 1493.867569 1498.434950
183.690000 1487.712164 1490.754652 1492.785823 1493.140260 1495.366605 1500.425785
183.810000 1489.592352 1492.252858 1494.434755 1494.768568 1497.125089 1501.889231
183.930000 1491.079318 1493.547466 1496.108505 1496.352851 1498.795537 1503.500779
184.050000 1492.588763 1495.063729 1497.595698 1497.905649 1500.548526 1504.686788
184.170000 1494.138423 1496.775643 1499.290639 1499.563991 1502.325028 1506.157875
184.290000 1495.942381 1498.294441 1500.845097 1501.166083 1503.974564 1507.476962
184.418571 1497.536080 1500.073229 1502.850774 1503.107680 1506.213926 1510.096559
184.547143 1499.177821 1501.777365 1504.945366 1505.062895 1508.297537 1512.308490
184.675714 1501.067439 1503.325162 1506.787060 1506.950748 1510.321580 1514.474760
184.804286 1502.594655 1505.119968 1508.532883 1508.818809 1512.390324 1516.419929
184.932857 1504.476540 1507.207762 1510.498373 1510.700868 1514.251092 1518.573246
185.061429 1506.136008 1509.226888 1512.307093 1512.585796 1515.897382 1520.728620
185.190000 1507.969501 1510.995304 1513.924817 1514.311161 1517.669884 1522.515999
185.328462 1509.786740 1512.591317 1515.610319 1515.970166 1519.541699 1524.385916
185.466923 1511.355154 1514.063310 1517.227333 1517.585278 1521.213553 1525.849712
185.605385 1512.553303 1515.472310 1518.864135 1519.146570 1522.837220 1527.054493
185.743846 1513.886239 1517.045007 1520.536746 1520.672353 1524.248714 1528.125787
185.882308 1515.251590 1518.725168 1522.108106 1522.256154 1525.808041 1529.350032
186.020769 1516.661727 1520.455972 1523.925477 1523.772516 1527.211173 1530.395596
186.159231 1518.572705 1521.906215 1525.481112 1525.232743 1528.415244 1531.523428
186.297692 1520.341898 1523.514551 1526.992232 1526.713907 1529.648327 1532.514353
186.436154 1522.405108 1525.422659 1528.386117 1528.154012 1530.780384 1533.473664
186.574615 1524.114652 1527.199613 1529.845959 1529.632330 1532.030716 1534.480182
186.713077 1526.022655 1528.863004 1531.179216 1531.043543 1533.294925 1535.582752
186.851538 1528.004512 1530.452932 1532.489476 1532.421942 1534.374644 1536.560033
186.990000 1530.219298 1531.954385 1533.644987 1533.750097 1535.411615 1537.519562
187.090000 1531.215271 1532.857243 1534.541808 1534.582287 1536.216556 1538.171088
187.190000 1532.206566 1533.709280 1535.322907 1535.381980 1537.045254 1538.846935
187.290000 1533.150161 1534.546314 1536.112354 1536.187791 1537.838489 1539.495169
187.390000 1533.975383 1535.353786 1536.926405 1536.978582 1538.674042 1540.440786
187.490000 1534.786250 1536.122187 1537.660982 1537.762930 1539.477485 1541.137088
187.590000 1535.454929 1536.827450 1538.437833 1538.542276 1540.333252 1542.038564
187.731053 1536.420736 1537.859229 1539.572715 1539.708325 1541.670143 1543.463241
187.872105 1537.317643 1538.861907 1540.728420 1540.898942 1542.959040 1545.095534
188.013158 1538.251589 1539.947891 1541.924010 1542.046423 1544.131117 1546.219988
188.154211 1539.265904 1541.046477 1543.080038 1543.223469 1545.488609 1547.714442
188.295263 1540.191617 1542.063026 1544.172265 1544.400647 1546.857091 1549.315989
188.436316 1541.235324 1543.135992 1545.368015 1545.579088 1548.062487 1550.735780
188.577368 1542.363820 1544.213778 1546.627817 1546.793890 1549.446454 1552.152594
188.718421 1543.230786 1545.222140 1547.886883 1547.982328 1550.758213 1553.571507
188.859474 1544.087130 1546.333920 1549.059322 1549.113937 1551.808999 1554.957562
189.000526 1545.138986 1547.431739 1550.292891 1550.296641 1553.187120 1556.238012
189.141579 1546.051097 1548.371545 1551.478373 1551.444480 1554.371069 1557.334880
189.282632 1547.006229 1549.417640 1552.601644 1552.624008 1555.628057 1558.696387
189.423684 1547.936286 1550.463247 1553.862766 1553.862282 1557.201512 1559.943032
189.564737 1548.931833 1551.518648 1555.032832 1555.082312 1558.543239 1561.460439
189.705789 1550.085440 1552.597341 1556.366136 1556.305093 1559.849482 1562.567012
189.846842 1551.132323 1553.819601 1557.692174 1557.583275 1561.267054 1563.762933
189.987895 1552.237257 1555.142450 1559.064125 1558.871418 1562.413221 1564.645778
190.128947 1553.551394 1556.790638 1560.490448 1560.183712 1563.595853 1565.711636
190.270000 1554.788624 1558.242079 1561.792433 1561.550458 1564.756073 1566.950530
190.370000 1555.654653 1559.150263 1562.806941 1562.538327 1565.702133 1567.712909
190.470000 1556.762112 1560.411509 1563.882414 1563.575374 1566.526921 1568.521325
190.570000 1557.772844 1561.869508 1564.965620 1564.650224 1567.400782 1569.344757
190.670000 1558.758721 1563.206555 1566.137152 1565.738776 1568.395446 1570.019536
190.770000 1560.693201 1564.664830 1567.226873 1566.909312 1569.224754 1570.962952
190.870000 1562.360982 1566.198780 1568.329791 1568.058206 1570.108590 1571.618884
190.970000 1563.932638 1567.475982 1569.590753 1569.317512 1571.362020 1572.795984
191.070000 1565.381917 1568.787379 1570.774516 1570.566476 1572.481815 1574.110120
191.170000 1567.408932 1570.008734 1571.914402 1571.751597 1573.586259 1575.239655
191.270000 1568.315079 1570.919352 1572.863638 1572.690654 1574.602492 1576.398415
191.370000 1569.419178 1571.722714 1573.668231 1573.576111 1575.635121 1577.575936
191.470000 1570.022856 1572.447330 1574.473870 1574.409175 1576.410328 1578.387528
191.590000 1570.890287 1573.342381 1575.376982 1575.361639 1577.437466 1579.471069
191.710000 1571.842459 1574.181765 1576.270726 1576.269531 1578.435463 1580.832900
191.830000 1572.588190 1574.916825 1577.149725 1577.140681 1579.412974 1582.136975
191.950000 1573.281142 1575.637999 1577.932875 1577.974072 1580.318819 1583.352849
192.070000 1573.979688 1576.412127 1578.670591 1578.782283 1581.104397 1584.145574
192.205833 1574.633352 1577.181011 1579.512325 1579.646217 1582.009889 1585.160330
192.341667 1575.492901 1577.953032 1580.346262 1580.499898 1582.912563 1586.074440
192.477500 1576.363910 1578.743264 1581.271906 1581.390868 1583.816786 1587.190697
192.613333 1577.177537 1579.547597 1582.058428 1582.230978 1584.738450 1588.231305
192.749167 1577.968473 1580.335374 1582.847933 1583.063903 1585.684680 1589.270358
192.885000 1578.641950 1581.161637 1583.682436 1583.908576 1586.637454 1590.537254
193.020833 1579.301285 1581.888857 1584.510571 1584.777730 1587.698934 1591.796361
193.156667 1580.162012 1582.691541 1585.296791 1585.629399 1588.516542 1593.107349
193.292500 1580.822827 1583.525692 1586.118974 1586.477056 1589.420689 1593.992839
193.428333 1581.569196 1584.382006 1586.930336 1587.315882 1590.331624 1595.318898
193.564167 1582.394426 1585.177128 1587.653791 1588.165940 1591.220323 1596.518416
193.700000 1583.190064 1585.937299 1588.479369 1589.005165 1592.147287 1597.355740
193.833333 1584.125230 1586.733832 1589.241341 1589.809166 1592.957007 1598.288388
193.966667 1584.956469 1587.511204 1590.075176 1590.627379 1593.921556 1598.942111
194.100000 1585.728280 1588.334225 1590.907447 1591.491187 1594.824136 1600.025931
194.233333 1586.536979 1589.080845 1591.696562 1592.347208 1595.822515 1601.165775
194.366667 1587.277759 1589.819274 1592.515315 1593.215119 1596.758158 1602.579539
194.500000 1588.190686 1590.661004 1593.340485 1594.079004 1597.622272 1603.467290
194.633333 1589.109885 1591.449681 1594.198941 1594.981983 1598.674512 1604.486706
194.766667 1590.072488 1592.321725 1595.045697 1595.883086 1599.517797 1606.044232
194.900000 1590.988923 1593.187141 1595.996678 1596.786219 1600.475529 1607.800025
195.000000 1591.705817 1593.929572 1596.752914 1597.561649 1601.171194 1608.593823
195.100000 1592.534729 1594.701704 1597.509881 1598.360432 1602.048415 1609.394787
195.200000 1593.392380 1595.491904 1598.256859 1599.148401 1602.939308 1610.108329
195.300000 1594.077124 1596.249920 1599.142006 1599.991798 1603.752747 1611.317914
195.400000 1594.741793 1597.035755 1600.028202 1600.827245 1604.608898 1611.874393
195.500000 1595.787315 1597.940747 1600.964439 1601.728859 1605.518076 1612.403608
195.600000 1596.642570 1598.866269 1602.023536 1602.654118 1606.354789 1613.241632
195.700000 1597.676012 1599.892421 1602.981647 1603.601130 1607.188486 1614.037572
195.800000 1598.574702 1601.080754 1604.154022 1604.607539 1607.938446 1614.650725
195.900000 1599.530200 1602.227850 1605.508153 1605.800844 1609.103113 1615.380429
196.000000 1600.229015 1603.300728 1606.851104 1607.007876 1610.281738 1615.978863
196.100000 1601.315222 1604.543336 1608.099103 1608.209473 1611.416072 1617.506092
196.200000 1602.263976 1605.560145 1609.389338 1609.275505 1612.475288 1618.446674
196.300000 1603.111023 1606.626875 1610.307016 1610.285955 1613.568148 1619.231282
196.400000 1603.952745 1607.798597 1611.311542 1611.257399 1614.692714 1619.804005
196.500000 1604.943130 1608.649442 1612.269860 1612.189824 1615.585897 1620.565120
196.600000 1605.537691 1609.462280 1613.144323 1613.117354 1616.545089 1621.828869
196.700000 1606.218072 1610.173211 1613.937449 1614.012305 1617.645319 1622.659671
196.820000 1606.938549 1611.293588 1614.943323 1615.064776 1618.907711 1623.582074
196.940000 1607.799772 1612.215943 1616.012184 1616.116729 1620.151811 1624.541165
197.060000 1608.588470 1613.248941 1616.986857 1617.132268 1621.109370 1625.414066
197.180000 1609.335904 1614.209253 1617.935113 1618.095715 1622.087533 1626.188305
197.300000 1610.196758 1615.243028 1619.001692 1619.142324 1623.291135 1627.098312
197.400000 1610.883678 1616.053771 1619.908486 1620.021413 1624.469215 1627.758262
197.500000 1611.663079 1616.829445 1620.761471 1620.840856 1625.392008 1628.431467
197.600000 1612.609190 1617.570621 1621.623754 1621.693782 1626.150287 1629.337525
197.713333 1613.807894 1618.644739 1622.610462 1622.688713 1627.051912 1630.573567
197.826667 1614.952321 1619.568863 1623.693722 1623.687451 1628.017941 1631.512700
197.940000 1615.927080 1620.587133 1624.753042 1624.712976 1628.909188 1632.349171
198.068571 1617.062617 1621.753340 1625.921124 1625.900503 1629.902398 1633.281040
198.197143 1618.133554 1623.054785 1627.224298 1627.073380 1630.959027 1634.368270
198.325714 1619.375730 1624.646695 1628.521427 1628.272457 1631.961933 1635.201919
198.454286 1620.911931 1626.098646 1629.704590 1629.489417 1633.055161 1636.189049
198.582857 1622.065188 1627.581076 1630.965280 1630.746851 1634.260622 1637.370929
198.711429 1623.293134 1628.955785 1632.252039 1632.042675 1635.430390 1638.469151
198.840000 1624.930486 1630.378236 1633.561956 1633.407459 1636.881789 1639.890720
198.978462 1626.441041 1631.553117 1634.919457 1634.897784 1638.466449 1641.643812
199.116923 1628.109040 1632.815528 1636.385139 1636.326426 1640.038087 1644.001036
199.255385 1629.464799 1633.917319 1637.832296 1637.787938 1641.688814 1645.570352
199.393846 1630.905390 1635.341899 1639.303985 1639.278347 1643.217871 1647.920758
199.532308 1631.940551 1636.632302 1640.872969 1640.793797 1645.125083 1649.842595
199.670769 1633.346353 1637.783456 1642.314593 1642.305906 1646.958487 1651.561067
199.809231 1634.573717 1639.176071 1643.736425 1643.911534 1648.917597 1653.698847
199.947692 1635.950694 1640.368930 1645.306201 1645.446421 1650.731729 1655.591029
200.086154 1637.131131 1641.661081 1646.952489 1647.036665 1652.642612 1657.778542
200.224615 1638.326880 1643.002922 1648.501087 1648.592192 1654.404956 1659.802826
200.363077 1639.603613 1644.297972 1649.843904 1650.109568 1656.313205 1661.561064
200.501538 1641.293356 1645.672729 1651.274638 1651.645373 1657.759496 1663.360687
200.640000 1642.469591 1647.067327 1652.709625 1653.142191 1659.603389 1664.889557
200.782105 1644.071933 1648.573482 1654.324563 1654.747559 1661.220869 1666.576269
200.924211 1645.299258 1650.179180 1655.713109 1656.286334 1662.876712 1668.770387
201.066316 1646.514654 1651.589510 1657.161039 1657.761643 1664.322502 1670.295776
201.208421 1648.064893 1653.104030 1658.432421 1659.268268 1665.829392 1671.986307
201.350526 1649.502784 1654.568579 1660.186177 1660.782964 1667.089841 1673.339430
201.492632 1651.274750 1656.214646 1661.830745 1662.303576 1668.594373 1675.218291
201.634737 1652.574178 1657.914126 1663.467313 1663.817382 1670.082781 1676.191064
201.776842 1654.052293 1659.419901 1665.089416 1665.322647 1671.387280 1677.303914
201.918947 1655.725250 1661.014810 1666.810120 1666.869464 1672.907650 1678.589730
202.061053 1656.980506 1662.470618 1668.289747 1668.405056 1674.362228 1679.847617
202.203158 1658.650311 1664.128198 1669.950560 1669.907214 1675.574469 1680.986358
202.345263 1660.581291 1665.822036 1671.556346 1671.445657 1677.232607 1682.348614
202.487368 1662.127981 1667.259413 1673.050742 1672.959493 1678.604935 1684.056646
202.629474 1663.212653 1668.750643 1674.602567 1674.451291 1680.027080 1685.725713
202.771579 1664.638946 1670.087007 1676.101821 1675.967558 1681.615878 1686.819326
202.913684 1666.300674 1671.721206 1677.765242 1677.498246 1683.198006 1688.087227
203.055789 1667.604832 1673.044268 1679.262010 1678.936324 1684.596851 1689.205149
203.197895 1669.633425 1674.375474 1680.736080 1680.448474 1686.261478 1690.345673
203.340000 1671.548828 1676.146265 1682.349960 1681.977913 1687.619106 1691.982745
203.450000 1672.790275 1677.336244 1683.387627 1683.087703 1688.627559 1693.224194
203.560000 1674.039364 1678.433181 1684.408942 1684.151500 1689.730328 1694.218330
203.702857 1675.319486 1679.803183 1685.788320 1685.519860 1690.997577 1695.518267
203.845714 1676.615649 1681.380655 1687.120686 1686.926748 1692.318070 1696.727981
203.988571 1677.982797 1682.742028 1688.572951 1688.327139 1693.721481 1697.682585
204.131429 1679.398996 1684.314868 1690.045528 1689.700167 1694.957146 1698.601745
