depth(m) lower_95(kyr) lower_68(kyr) median(kyr) mean(kyr) upper_68(kyr) upper_95(kyr)
56.300000 1656.865256 1657.807836 1658.852989 1658.838697 1659.785313 1660.722575
56.390000 1661.491163 1664.063319 1668.007049 1668.310538 1672.505384 1677.190460
56.490000 1666.878726 1670.503046 1674.180538 1674.242289 1677.753919 1681.824063
56.590000 1671.911262 1675.216114 1678.707224 1678.643236 1682.065436 1685.516675
56.680000 1675.193473 1678.622282 1682.082809 1682.196941 1685.797014 1688.652742
56.780000 1679.036034 1682.479675 1685.746950 1686.117221 1689.913630 1693.796269
56.870000 1682.934621 1686.220178 1689.843975 1690.201780 1694.029546 1697.904171
56.970000 1687.841616 1691.591083 1695.307453 1695.849511 1699.769445 1706.217741
57.070000 1693.851241 1697.885696 1701.985148 1702.270882 1706.347552 1713.550684
57.160000 1699.151183 1703.513253 1707.639132 1707.961859 1712.281166 1720.172839
57.260000 1705.113224 1709.848670 1714.212575 1714.826750 1720.058487 1728.423617
57.350000 1710.349927 1714.230788 1719.532214 1720.143284 1726.191812 1733.815361
57.450000 1713.568185 1719.020144 1725.410264 1725.768803 1733.022613 1738.403946
57.550000 1717.183530 1723.738440 1732.493820 1731.447278 1738.873298 1743.520094
57.640000 1720.177475 1727.927446 1737.845826 1736.167425 1743.252640 1746.618659
57.740000 1723.536697 1733.777807 1742.619206 1740.719528 1746.620726 1749.705228
57.830000 1727.304503 1738.720659 1746.032078 1744.228911 1749.628128 1752.464193
57.930000 1731.084872 1742.972817 1749.348075 1747.829869 1752.725698 1755.355226
58.020000 1734.366976 1746.555444 1752.264506 1750.933554 1755.538556 1758.256892
58.120000 1741.047199 1750.362072 1755.182717 1754.253649 1758.221809 1761.220869
58.220000 1747.464456 1754.399656 1758.158931 1757.587515 1761.169100 1764.115109
58.310000 1751.578249 1757.946600 1760.929701 1760.622256 1763.975344 1766.862662
58.410000 1756.710826 1761.131460 1764.139086 1763.857288 1766.865904 1769.777723
58.500000 1759.978764 1763.585286 1766.682678 1766.481094 1769.614442 1772.273861
58.600000 1762.468616 1766.058189 1769.305994 1769.152933 1772.338626 1774.948450
58.700000 1765.096581 1768.551205 1771.974116 1771.696731 1774.916604 1777.437652
58.790000 1767.509974 1770.816751 1774.087454 1774.007758 1777.135176 1779.506587
58.890000 1770.558467 1773.509859 1776.747576 1776.617269 1779.852663 1781.898135
58.980000 1772.834074 1776.074368 1779.143468 1778.930968 1781.972267 1784.132143
59.080000 1775.830832 1778.728062 1781.783649 1781.553913 1784.205601 1786.351968
59.170000 1779.056116 1781.725649 1784.462930 1784.176416 1786.513069 1788.210396
59.270000 1782.438755 1785.061579 1787.180870 1787.006828 1788.949798 1790.437543
59.370000 1785.327878 1787.548080 1789.359944 1789.249030 1790.945782 1792.709225
59.460000 1787.621999 1789.445344 1791.111334 1791.070193 1792.745584 1794.329824
59.560000 1789.648351 1791.320372 1792.952931 1792.922182 1794.487822 1796.135240
59.650000 1791.305302 1792.960657 1794.553188 1794.560152 1796.219024 1797.780085
59.750000 1793.166438 1794.815071 1796.354380 1796.372684 1797.953370 1799.617418
59.850000 1794.975372 1796.583501 1798.167368 1798.262123 1799.920150 1802.051907
59.940000 1796.326631 1798.106445 1799.808079 1799.927860 1801.664829 1804.255930
60.040000 1798.044286 1799.939363 1801.783801 1801.993583 1803.800354 1806.792707
60.130000 1799.935261 1801.782277 1803.799952 1804.099833 1806.028329 1811.695620
60.230000 1802.061603 1804.181889 1806.158526 1807.035049 1809.814228 1816.825270
60.330000 1804.751634 1806.813467 1809.431848 1810.608750 1815.418084 1821.341622
60.420000 1806.873760 1809.323428 1812.753468 1813.889969 1819.573583 1824.888240
60.520000 1809.418357 1812.082456 1817.217784 1817.655860 1823.724481 1828.457805
60.610000 1811.354220 1814.670076 1821.047807 1820.955617 1826.856667 1831.854962
60.710000 1813.971161 1817.963033 1825.232201 1824.883251 1830.870911 1835.653612
60.800000 1816.153350 1821.422145 1828.812053 1828.313949 1833.947215 1840.622542
60.900000 1819.227482 1825.913297 1832.152084 1831.969492 1837.926570 1845.425003
61.000000 1822.112750 1829.034340 1835.340883 1835.438623 1841.543520 1849.782252
61.090000 1825.272943 1831.517032 1838.200414 1838.458698 1845.237437 1853.298607
61.190000 1827.897901 1833.748957 1840.831655 1841.623437 1849.375400 1856.864658
61.285000 1830.998032 1836.295790 1843.569042 1844.710478 1854.485173 1860.730240
61.380000 1833.531620 1839.014853 1845.996476 1847.796109 1858.767681 1865.067133
61.480000 1836.333177 1841.411434 1848.828992 1850.875351 1862.467520 1869.135091
61.570000 1838.950579 1843.554449 1851.609414 1853.574708 1865.127027 1872.793216
61.670000 1841.537464 1846.568686 1854.440967 1856.641032 1867.817583 1880.093572
61.760000 1844.173034 1849.256220 1856.893177 1859.392024 1870.288299 1885.932968
61.860000 1847.345987 1852.612325 1860.717216 1862.607770 1872.570774 1891.456481
61.950000 1850.025430 1855.698767 1864.680053 1865.813277 1874.339089 1897.789466
62.050000 1852.939658 1859.745685 1868.840186 1869.472218 1876.337507 1907.662654
62.150000 1855.954332 1863.935616 1872.319977 1872.908600 1878.428078 1913.099052
62.240000 1859.022571 1867.157170 1875.541181 1875.567533 1880.178220 1916.238252
62.340000 1861.993575 1870.768227 1877.828253 1878.155514 1882.155801 1918.540562
62.430000 1866.240505 1873.338870 1879.801327 1880.288586 1883.660504 1920.647790
62.530000 1870.314939 1876.053521 1881.860078 1882.568822 1885.551057 1922.515936
62.630000 1873.711511 1879.025199 1883.991496 1884.900588 1887.337061 1925.110857
62.720000 1877.086536 1881.378268 1885.929717 1887.000086 1888.943526 1927.720469
62.820000 1880.506266 1884.182629 1888.103537 1889.349931 1890.751598 1929.891317
62.910000 1883.192672 1886.600186 1889.990554 1891.359495 1892.325581 1933.295074
63.010000 1885.314333 1889.363860 1892.147044 1893.614737 1894.190347 1935.853276
63.110000 1888.572794 1891.897135 1894.345126 1895.909812 1896.070549 1938.335690
63.200000 1891.409210 1894.417742 1896.293055 1897.982310 1897.748550 1940.642154
63.300000 1895.298891 1897.126728 1898.523752 1900.371314 1899.797238 1943.098357
63.390000 1897.720228 1899.069403 1900.341881 1902.300398 1901.710171 1944.990614
63.490000 1899.450969 1900.930141 1902.114324 1904.120761 1903.508389 1946.897550
63.580000 1900.957233 1902.371761 1903.595265 1905.619649 1905.083804 1948.426961
63.680000 1902.473729 1903.905144 1905.203296 1907.237515 1906.647981 1950.382293
63.780000 1904.046884 1905.422926 1906.862030 1908.923140 1908.476766 1952.200205
63.870000 1905.547494 1906.955276 1908.402260 1910.466278 1910.084648 1954.108703
63.970000 1907.032558 1908.617379 1910.092826 1912.258398 1912.064798 1956.163110
64.060000 1908.887270 1910.342422 1911.959886 1914.269708 1914.545883 1958.110104
64.160000 1911.068035 1912.766100 1915.098393 1917.386376 1918.441836 1960.753210
64.260000 1913.140813 1915.214127 1918.007054 1920.310554 1921.950128 1963.897420
64.350000 1915.120870 1917.467497 1920.773751 1923.095170 1925.295870 1966.714327
64.450000 1917.232456 1920.482570 1924.310391 1926.566690 1929.508304 1969.774128
64.540000 1919.258774 1922.841801 1927.518313 1929.736749 1933.442830 1972.518115
64.680000 1922.053618 1926.331106 1932.264007 1934.930846 1941.951635 1976.428031
64.820000 1925.247341 1929.534181 1936.728469 1940.031005 1950.493246 1979.605961
64.960000 1928.017110 1932.856426 1941.278112 1945.144104 1959.223232 1982.793425
65.100000 1931.167289 1936.081739 1944.910708 1950.200945 1967.069362 1987.427251
65.240000 1934.287327 1939.651932 1948.845491 1955.426963 1975.218098 1991.711307
65.380000 1937.743795 1943.030569 1952.710914 1960.781000 1983.695298 1995.446978
65.520000 1941.128602 1946.312684 1956.162456 1966.175375 1991.378406 2000.843696
65.660000 1944.317650 1949.856861 1959.217741 1971.329079 1997.606951 2005.115189
65.800000 1948.426447 1953.401911 1963.008764 1976.618018 2003.211793 2009.274664
65.895000 1951.170448 1956.857127 1966.074158 1979.886970 2006.916920 2012.156143
65.990000 1954.448842 1960.270633 1969.148936 1983.305443 2010.395854 2015.950478
66.130000 1960.101232 1966.278464 1976.513506 1988.861193 2015.198517 2019.893556
66.270000 1966.176034 1971.768342 1984.140851 1994.460298 2019.478684 2023.955363
66.370000 1969.381644 1974.799366 1988.761503 1997.779391 2021.978759 2026.290355
66.470000 1972.171023 1977.658267 1994.279582 2000.866394 2024.339750 2028.514294
66.610000 1975.833997 1982.004136 2009.589849 2005.923134 2027.611740 2031.456372
66.750000 1981.639315 1987.097138 2023.653283 2011.285623 2031.233481 2034.653502
66.850000 1985.620378 1990.894682 2028.345621 2014.873472 2034.098261 2037.030153
66.940000 1989.509976 1994.267482 2031.928668 2018.228149 2036.929420 2039.791978
67.040000 1992.945620 1997.681839 2034.632073 2021.560027 2039.474701 2042.421244
67.140000 1996.444581 2001.281258 2037.358218 2024.808469 2042.070591 2044.921996
67.280000 2001.624924 2007.678837 2040.706970 2029.710894 2045.479941 2047.971026
67.420000 2007.421666 2013.666081 2044.415444 2034.634117 2048.647226 2050.946317
67.520000 2013.823690 2019.160706 2047.161317 2038.396930 2051.285216 2053.490219
67.610000 2017.922040 2023.771690 2049.461629 2041.661461 2053.425883 2055.522063
67.710000 2022.926568 2029.205872 2052.119390 2045.343769 2055.787727 2057.754035
67.810000 2029.463359 2034.478039 2054.712272 2049.254977 2058.210874 2059.916399
67.900000 2035.431203 2041.397770 2057.355775 2053.082926 2060.365476 2062.254558
68.000000 2040.946215 2048.480231 2059.993048 2057.126646 2062.595000 2064.594095
68.090000 2047.152538 2056.439847 2062.730550 2061.007316 2064.883781 2067.092243
68.190000 2059.121433 2063.899075 2066.091479 2065.758917 2067.956541 2070.110231
68.280000 2064.587469 2066.732628 2068.425281 2068.510709 2070.457586 2072.402217
68.370000 2067.067797 2068.878498 2070.672131 2070.748679 2072.659833 2074.980022
68.480000 2069.416427 2071.153926 2073.088521 2073.250696 2075.385576 2077.898038
68.570000 2071.182640 2073.195533 2075.191493 2075.455467 2077.911667 2080.594245
68.670000 2073.579245 2075.501205 2077.842216 2078.175069 2080.966858 2083.845971
68.760000 2076.155662 2078.150808 2081.031880 2081.171560 2084.087844 2086.975899
68.860000 2078.733427 2081.554463 2085.070951 2084.990988 2088.233785 2092.087709
68.970000 2082.755219 2085.961447 2089.177798 2089.385126 2092.751073 2097.796910
69.050000 2086.662020 2089.682744 2093.061069 2093.227357 2096.731265 2101.241745
69.140000 2089.875175 2093.021920 2096.373629 2096.603847 2100.257644 2104.482354
69.270000 2093.566006 2096.942127 2100.552359 2100.800830 2104.771507 2108.763141
69.340000 2095.483488 2099.298606 2103.035246 2103.005352 2107.131045 2110.563950
69.430000 2098.027384 2101.929719 2105.974877 2105.734873 2109.688639 2112.671041
69.525000 2100.960789 2104.923759 2108.824150 2108.607365 2112.314788 2115.160437
69.620000 2103.620784 2107.903385 2111.721295 2111.405834 2114.784669 2117.717333
69.720000 2106.836406 2111.033677 2114.560883 2114.273271 2117.401261 2120.428614
69.810000 2109.657333 2113.972159 2117.198111 2116.979387 2120.249792 2122.526696
69.910000 2112.583808 2117.081521 2119.901657 2119.797424 2122.895511 2125.144205
70.010000 2115.744148 2120.105386 2122.695232 2122.593360 2125.466055 2127.913697
70.100000 2118.728100 2122.603657 2125.403706 2125.323660 2128.074850 2131.381274
70.200000 2121.984508 2125.550816 2128.174525 2128.242532 2131.061319 2134.732510
70.340000 2125.856716 2129.117370 2132.170683 2132.241478 2135.268751 2139.165601
70.480000 2130.882879 2133.501079 2136.454089 2136.588905 2139.711875 2143.052952
70.580000 2134.380921 2136.989088 2140.711300 2140.513759 2143.720398 2146.248563
70.680000 2142.612968 2146.115711 2148.346163 2148.350005 2150.752717 2154.198901
70.770000 2147.976522 2150.168662 2152.407794 2152.463198 2154.806952 2157.369628
70.870000 2151.192986 2153.694660 2155.994494 2156.074736 2158.585766 2160.939000
70.965000 2153.725499 2156.928060 2159.748164 2159.664216 2162.331327 2164.789602
71.060000 2157.795991 2160.734728 2163.366136 2163.242622 2165.846695 2167.922780
71.150000 2161.018542 2164.013349 2166.433088 2166.331572 2168.656592 2170.565685
71.250000 2164.588100 2167.356904 2169.791114 2169.548367 2171.722303 2173.480158
71.350000 2168.830002 2171.059629 2173.077332 2173.028875 2174.879356 2176.949729
71.440000 2171.680858 2173.662685 2175.504962 2175.478390 2177.281276 2179.439962
71.540000 2174.376364 2176.084585 2177.813765 2177.872447 2179.716221 2181.880890
71.630000 2176.397607 2178.106760 2179.873271 2179.960540 2181.724671 2183.961351
71.730000 2178.440699 2180.303938 2182.085445 2182.250560 2184.141060 2186.411782
71.825000 2180.625342 2182.482628 2184.293037 2184.551622 2186.643023 2189.624562
71.920000 2182.946587 2184.571528 2186.611052 2186.903464 2189.096717 2193.331485
72.010000 2185.054139 2186.920395 2189.344538 2189.652498 2192.247097 2196.523280
72.110000 2188.440501 2190.626586 2193.651804 2194.058379 2197.747245 2201.560168
72.210000 2191.566797 2194.935711 2198.833240 2198.826586 2202.741160 2206.066542
72.300000 2194.321894 2199.212025 2203.086225 2202.764454 2206.077753 2209.395449
72.400000 2197.311089 2204.138105 2207.441974 2207.091303 2210.347938 2213.513162
72.490000 2200.949729 2207.298183 2210.241982 2210.098989 2213.192040 2217.101479
72.590000 2204.112183 2209.749263 2213.077883 2212.865019 2216.122066 2219.962093
72.680000 2206.638506 2211.881817 2215.333714 2215.224656 2218.542720 2222.360285
72.780000 2209.983557 2214.625823 2217.902206 2217.898147 2221.324724 2225.062838
72.880000 2213.409336 2217.436434 2220.655853 2220.759240 2224.325347 2228.638106
72.970000 2216.153291 2220.206780 2223.465580 2223.558976 2226.999373 2231.197923
73.070000 2219.430975 2223.250560 2226.537338 2226.629303 2229.976468 2234.190917
73.165000 2222.725991 2226.385200 2229.653030 2229.859506 2233.361272 2238.235783
73.260000 2225.939987 2229.502600 2232.946213 2233.189437 2236.744397 2242.214177
73.350000 2229.352837 2233.022929 2236.552125 2236.862516 2241.144317 2245.661552
73.450000 2233.009898 2236.344235 2240.343828 2240.600294 2245.304264 2249.215919
73.550000 2235.335163 2239.605377 2244.415603 2244.182680 2248.728209 2251.945697
73.640000 2238.183715 2242.918156 2247.875346 2247.421311 2251.457982 2254.552551
73.740000 2241.763793 2246.707975 2251.330231 2250.957310 2254.743194 2258.700117
73.880000 2246.259644 2251.830576 2255.982912 2255.727336 2259.578149 2264.294799
74.020000 2252.358903 2256.332657 2260.411289 2260.388554 2264.550325 2268.120773
74.130000 2255.484125 2260.176110 2264.135957 2264.098962 2268.084815 2271.651449
74.240000 2258.936340 2263.799634 2267.812761 2267.685148 2271.525668 2275.561750
74.340000 2263.208571 2267.219658 2270.917154 2270.973403 2274.706421 2280.025428
74.430000 2266.523191 2270.775697 2274.996357 2274.994067 2279.296836 2283.696636
74.530000 2270.056390 2273.510471 2278.264906 2278.437822 2283.615847 2287.874536
74.620000 2272.906527 2276.185376 2281.459561 2281.521897 2286.665725 2291.094017
74.720000 2275.599355 2279.595891 2284.973756 2284.953789 2289.990754 2295.440978
74.815000 2278.257611 2283.331120 2287.814242 2288.166844 2292.971269 2300.385577
74.910000 2281.115961 2286.701612 2290.936178 2291.506898 2296.592713 2304.948254
75.000000 2284.388777 2289.426617 2293.771031 2294.652852 2300.674123 2307.664041
75.100000 2287.341340 2292.019793 2297.089244 2297.854496 2304.260441 2310.665841
75.195000 2290.850690 2295.065696 2300.250474 2300.847072 2307.164012 2313.384049
75.290000 2294.489224 2298.400793 2303.566445 2303.940631 2309.566986 2315.949337
75.385000 2297.424573 2302.269294 2306.974017 2307.299809 2312.428247 2318.394894
75.480000 2301.928684 2306.166555 2310.349440 2310.856565 2316.073620 2321.648283
75.570000 2305.461528 2309.434314 2314.090781 2314.316487 2319.340694 2323.974746
75.670000 2308.993045 2313.121758 2317.849039 2317.905191 2323.008570 2326.839041
75.760000 2311.254143 2316.508754 2321.264501 2321.061008 2325.723831 2329.454880
75.860000 2314.375184 2320.613979 2325.166145 2324.684532 2328.855063 2332.274657
75.950000 2317.329284 2323.713697 2327.992292 2327.555329 2331.491932 2334.800580
76.050000 2320.762806 2326.630089 2330.436525 2330.232552 2334.061282 2337.225732
76.140000 2324.088645 2328.936059 2332.540707 2332.343223 2336.018482 2339.216569
76.235000 2326.664935 2331.189384 2334.771398 2334.521644 2338.090006 2340.958797
76.330000 2329.652453 2333.360079 2336.821002 2336.670137 2339.983798 2342.802250
76.430000 2332.925098 2336.065147 2339.062757 2339.052431 2342.117612 2344.941486
76.520000 2335.483163 2338.195612 2341.219404 2341.184900 2344.124424 2346.897363
76.615000 2338.058342 2340.783739 2343.473631 2343.495062 2346.137494 2349.094275
76.710000 2340.775617 2343.502000 2345.989112 2345.898128 2348.340404 2351.014905
76.810000 2343.348145 2346.289645 2348.719953 2348.793013 2351.300004 2354.376882
76.900000 2346.451114 2349.165211 2351.460901 2351.798299 2354.513125 2359.116562
77.000000 2349.908048 2352.622673 2355.304917 2355.610351 2358.874012 2363.118332
77.090000 2352.623074 2355.088472 2358.207756 2358.599809 2362.137793 2365.972948
77.180000 2355.076530 2357.832044 2361.254743 2361.497502 2365.373113 2369.216497
77.280000 2357.517483 2360.822330 2364.404608 2364.461966 2368.189169 2371.792135
77.370000 2360.562350 2363.808348 2367.369664 2367.199555 2370.659625 2373.689734
77.470000 2364.260487 2367.615108 2370.585780 2370.586680 2373.657729 2376.782375
77.560000 2368.074785 2370.989545 2373.918175 2373.948785 2376.772229 2380.172648
77.660000 2372.092411 2375.181509 2377.986373 2378.047110 2381.021047 2384.510212
77.750000 2374.383357 2377.893511 2380.842646 2381.049100 2384.456667 2387.841313
77.845000 2376.738750 2380.531986 2383.906626 2383.959382 2387.514157 2391.203649
77.940000 2379.403215 2383.061120 2386.698491 2386.785074 2390.420744 2394.868604
78.040000 2382.007978 2386.100843 2390.190509 2390.209268 2394.523601 2399.210691
78.130000 2384.576662 2388.391721 2393.060953 2393.158762 2397.971188 2402.794545
78.230000 2387.332382 2391.291063 2395.987185 2396.182712 2401.267435 2405.208075
78.300000 2389.522753 2393.728071 2398.266417 2398.426046 2403.322398 2406.979098
78.440000 2392.794655 2398.119402 2403.224584 2402.737647 2407.089731 2410.563579
78.510000 2394.920285 2400.594532 2405.413632 2404.887373 2408.997595 2412.180594
78.610000 2397.992740 2404.127993 2408.312373 2407.778128 2411.357359 2414.286058
78.700000 2401.311694 2406.760807 2410.519121 2410.133155 2413.546002 2416.037800
78.800000 2404.046872 2409.311883 2412.915872 2412.496815 2415.788906 2418.110372
78.895000 2406.808497 2411.583846 2415.036870 2414.630113 2417.661549 2420.144869
78.990000 2409.590796 2413.781879 2417.090059 2416.726745 2419.671718 2421.530440
79.080000 2412.157445 2415.942379 2418.914157 2418.708613 2421.458208 2423.485236
79.180000 2415.152484 2418.430143 2421.291021 2421.018804 2423.521566 2425.522487
79.270000 2417.548227 2420.902995 2423.527345 2423.274955 2425.626359 2427.582837
79.370000 2421.192552 2423.888919 2426.260060 2426.033626 2428.126499 2429.917312
79.460000 2425.466435 2427.747000 2429.542511 2429.577484 2431.408918 2433.694926
79.560000 2428.946125 2430.547159 2432.395600 2432.574733 2434.842054 2437.232505
79.650000 2430.930129 2432.621506 2434.551174 2434.879038 2437.292105 2439.792902
79.750000 2433.121464 2434.747398 2437.068132 2437.302191 2439.891586 2442.591612
79.840000 2434.968471 2436.752587 2439.203041 2439.459911 2442.307669 2445.169760
79.940000 2437.160238 2439.223247 2441.821299 2442.061625 2444.999914 2448.205497
80.030000 2439.196124 2441.789454 2445.080684 2445.071481 2448.231630 2451.802329
80.175000 2443.121523 2446.940226 2450.568680 2450.386053 2453.861559 2456.520500
80.320000 2448.394045 2452.472698 2455.583989 2455.359858 2458.341059 2460.635758
