depth(m) lower_95(kyr) lower_68(kyr) median(kyr) mean(kyr) upper_68(kyr) upper_95(kyr)
43.340000 299.858620 303.277107 306.477726 306.844091 310.865433 315.220938
43.472222 300.945483 304.036226 307.287232 307.665691 311.754748 315.809196
43.604444 301.718245 305.101093 308.290211 308.517450 312.426902 316.230182
43.736667 302.660135 306.084799 309.138891 309.399424 313.032964 316.721023
43.868889 303.405692 307.016202 309.993748 310.273852 314.052449 317.218453
44.001111 305.016246 307.813439 310.886747 311.129265 314.886245 317.622622
44.133333 306.075352 308.659119 311.850562 312.006790 315.538973 318.155771
44.265556 307.116786 309.571202 312.770969 312.848969 316.275032 318.529012
44.397778 308.165771 310.469806 313.749777 313.699668 316.951174 318.889202
44.530000 309.257722 311.352305 314.765526 314.545172 317.640340 319.235318
44.650000 310.044853 312.106277 315.557607 315.240449 318.320009 319.666885
44.770000 310.848245 312.835169 316.242140 315.873952 318.821520 319.991669
44.840000 311.242323 313.241205 316.650794 316.229269 319.100341 320.173341
44.973000 311.898645 313.971660 317.221470 316.837321 319.472590 320.534117
45.106000 312.766849 314.821630 317.798305 317.444899 319.873749 320.821989
45.239000 313.395249 315.602132 318.345039 318.035344 320.294743 321.197643
45.372000 314.247810 316.212605 318.920264 318.597470 320.717711 321.555131
45.505000 315.086683 317.145921 319.515932 319.169749 321.070919 321.930236
45.638000 315.900181 317.890379 320.088401 319.720978 321.417387 322.324835
45.771000 316.729918 318.633498 320.600264 320.260254 321.749763 322.645906
45.904000 317.449047 319.392438 321.053230 320.785399 322.097450 323.017705
46.037000 318.467718 320.141835 321.525109 321.322922 322.459398 323.366755
46.170000 319.298358 320.839126 321.940508 321.821881 322.858756 323.760903
46.260000 319.643078 321.256415 322.268805 322.146493 323.129923 324.032716
46.350000 320.070035 321.563683 322.514554 322.455972 323.403459 324.314328
46.472000 320.577156 322.064562 322.912289 322.879747 323.803747 324.645394
46.594000 321.117286 322.549063 323.310652 323.305939 324.215228 324.961764
46.716000 321.808202 322.945701 323.723394 323.720259 324.630704 325.287636
46.838000 322.496189 323.412068 324.128509 324.163258 325.061589 325.639466
46.960000 323.035598 323.854542 324.558233 324.585871 325.408566 325.930557
47.045000 323.453708 324.131376 324.849961 324.878627 325.698754 326.196992
47.130000 323.773415 324.429766 325.175611 325.164293 325.958929 326.443480
47.230000 324.175206 324.738096 325.531489 325.498405 326.275182 326.677345
47.330000 324.533398 325.021528 325.862285 325.810350 326.562137 326.944781
47.440000 324.861386 325.349408 326.294805 326.147512 326.851554 327.280814
47.550000 325.157000 325.657543 326.650392 326.486011 327.158437 327.592066
47.670000 325.440249 325.996557 326.998162 326.829142 327.476285 327.924190
47.780000 325.745578 326.279482 327.318775 327.142848 327.767742 328.260453
47.850000 325.956850 326.458518 327.519870 327.350002 327.991968 328.450269
47.900000 326.072885 326.618588 327.671955 327.505235 328.142236 328.666461
47.990000 326.312701 326.921431 327.916255 327.766306 328.414847 328.922415
48.080000 326.540257 327.207528 328.149383 328.033338 328.693752 329.339786
48.180000 326.782730 327.508914 328.420196 328.329812 329.017229 329.608341
48.280000 327.034428 327.773547 328.674333 328.613965 329.323159 329.941436
48.370000 327.257548 328.020172 328.929556 328.883673 329.609032 330.242324
48.460000 327.513609 328.320942 329.188700 329.147036 329.908443 330.563097
48.545000 327.745123 328.630643 329.441059 329.416536 330.225869 330.785602
48.630000 328.028570 328.912205 329.710423 329.681762 330.494057 331.099121
48.730000 328.339024 329.183344 329.991218 329.985019 330.817080 331.431139
48.830000 328.648235 329.523442 330.296054 330.288776 331.114717 331.734809
48.935000 328.963108 329.826969 330.640069 330.616815 331.391306 332.098565
49.040000 329.249149 330.166834 330.988358 330.954594 331.725644 332.363551
49.150000 329.532143 330.525805 331.339895 331.305941 332.099585 332.710157
49.230000 329.778161 330.794748 331.637376 331.593541 332.372753 333.025665
49.310000 330.138434 331.113622 331.954130 331.917782 332.678538 333.308127
49.370000 330.412407 331.407127 332.309210 332.241235 333.006925 333.604430
49.495000 331.512658 332.366305 333.297413 333.244064 334.060704 335.000576
49.620000 332.565054 333.521965 334.286586 334.292468 335.124357 335.957584
49.760000 333.996339 334.576209 335.227246 335.304119 336.055869 336.944230
49.770000 334.065785 334.629832 335.287915 335.361136 336.114538 337.001692
49.830000 334.398839 334.980829 335.703503 335.727034 336.503421 337.289029
49.970000 335.128844 335.762105 336.621817 336.604151 337.390716 338.206743
50.070000 335.670714 336.421564 337.318209 337.287437 338.116624 338.951719
50.210000 336.506542 337.381065 338.320087 338.307542 339.183276 340.048617
50.350000 337.516288 338.481377 339.330367 339.310215 340.183975 340.817890
50.490000 338.768371 339.532649 340.310180 340.259711 340.966068 341.454150
50.550000 339.124007 339.955201 340.668385 340.596268 341.232651 341.773010
50.670000 339.737187 340.539065 341.246045 341.155161 341.714199 342.219191
50.745000 340.067077 340.884209 341.588545 341.485920 342.042390 342.506663
50.820000 340.438465 341.218091 341.901372 341.806100 342.330852 342.750793
50.960000 341.147666 341.852286 342.410259 342.347581 342.813754 343.204579
51.070000 341.586213 342.331506 342.841187 342.780853 343.245144 343.652107
51.120000 341.797271 342.555570 343.038851 343.004605 343.481909 343.873642
51.250000 342.407968 343.072894 343.550606 343.584633 344.070357 344.779308
51.380000 342.967292 343.611543 344.084999 344.196894 344.767228 345.973355
51.455000 343.287456 343.926509 344.445640 344.578979 345.204576 346.588319
51.530000 343.738527 344.267733 344.799434 344.973994 345.654591 347.378195
51.645000 344.245089 344.763960 345.350203 345.633397 346.449220 348.718525
51.760000 344.746163 345.247240 345.925077 346.305872 347.369959 349.980835
51.875000 345.167123 345.694919 346.533939 346.983537 348.433742 350.968026
51.990000 345.640418 346.151316 347.236513 347.698479 349.431635 352.395580
52.108000 346.072745 346.625227 347.843451 348.395018 350.386016 353.137805
52.226000 346.507300 347.043760 348.430034 349.094474 351.443730 354.151226
52.344000 346.967761 347.534947 349.193683 349.794266 352.522750 355.251389
52.462000 347.368817 348.080014 349.798879 350.466027 353.349307 356.022940
52.580000 347.790677 348.551620 350.495993 351.153713 354.113499 356.937413
52.720000 348.356485 349.216985 351.364290 351.972334 355.069660 357.696609
52.800000 348.689655 349.654364 351.869907 352.428127 355.487622 358.171433
52.880000 349.055670 350.087864 352.444817 352.905508 355.939076 358.645167
53.002000 349.553870 350.768232 353.367860 353.650653 356.598027 359.179518
53.124000 350.028675 351.492662 354.160391 354.390543 357.335611 359.664050
53.246000 350.547737 352.189042 354.982798 355.115435 358.086538 360.165514
53.368000 351.092813 352.884292 355.849679 355.858435 358.857948 360.753203
53.490000 351.650224 353.732983 356.603784 356.618006 359.570924 361.285288
53.635000 352.305574 354.706295 357.608869 357.520079 360.428063 361.976860
53.780000 353.008037 355.716884 358.597383 358.471427 361.225207 363.029390
53.925000 353.703030 356.712335 359.595514 359.393022 361.928591 363.805099
54.070000 354.429728 357.575427 360.596643 360.270930 362.575689 364.698268
54.145000 354.904429 357.913214 361.064650 360.707414 363.025602 364.974032
54.220000 355.381814 358.312286 361.574998 361.127734 363.372415 365.402008
54.300000 356.146865 358.797826 362.091228 361.560768 363.745386 365.788454
54.380000 356.600745 359.298381 362.544894 361.988851 364.160183 366.251149
54.502000 357.211478 359.976945 363.134131 362.596142 364.638627 366.850956
54.624000 358.039594 360.607991 363.672633 363.178819 365.186789 367.379214
54.746000 358.889397 361.177530 364.140414 363.766829 365.707083 368.010629
54.868000 359.837320 361.836794 364.668439 364.362924 366.382045 368.815889
54.990000 360.567468 362.430643 365.206190 364.948085 366.963904 369.381641
55.108000 361.139210 362.912447 365.726603 365.487150 367.484189 370.162594
55.226000 361.620149 363.428461 366.225101 366.018890 367.996395 370.667928
55.344000 362.219211 363.981914 366.663673 366.548620 368.525479 371.290689
55.462000 362.828658 364.516665 367.170635 367.052075 369.076585 371.768603
55.580000 363.423126 365.062901 367.624370 367.573540 369.605732 372.480100
55.720000 363.986472 365.662889 368.250786 368.189452 370.321239 373.011315
55.800000 364.348323 366.034374 368.563962 368.532424 370.720397 373.212820
55.880000 364.633627 366.424709 368.914846 368.883375 371.079944 373.425200
56.025000 365.097845 366.948931 369.633818 369.547262 371.827822 374.006712
56.170000 365.518935 367.556335 370.329620 370.174788 372.385074 374.606912
56.315000 365.967317 368.251251 371.035178 370.816464 373.026364 375.781318
56.460000 366.395093 368.866639 371.704943 371.477281 373.666289 376.634729
56.490000 366.527480 368.974543 371.841761 371.625315 373.810905 376.751143
56.565000 366.913751 369.353473 372.248437 372.035694 374.141274 377.054687
56.640000 367.380994 369.692274 372.647355 372.444092 374.571054 377.351768
56.720000 367.901758 370.158626 373.114287 372.920205 375.037582 377.826589
56.800000 368.696613 370.626925 373.586101 373.425375 375.511179 378.451757
56.934000 369.389535 371.571630 374.519545 374.377085 376.605125 379.878328
57.068000 370.316667 372.545639 375.472958 375.415695 377.860395 381.291854
57.202000 371.339544 373.571813 376.427000 376.445804 379.132839 382.727034
57.336000 372.321436 374.535151 377.338821 377.491236 380.376179 383.806140
57.470000 373.418250 375.494247 378.334103 378.546642 381.657207 384.942071
57.604286 374.318727 376.626136 379.645877 379.769328 383.028365 386.371951
57.738571 375.233196 377.677963 380.736406 380.906147 384.286471 387.246472
57.872857 376.419261 378.687685 381.893087 382.066494 385.398298 388.578764
58.007143 377.221290 379.901509 383.005655 383.199011 386.605961 389.564153
58.141429 378.220577 381.129821 384.245533 384.354088 387.753548 390.599452
58.275714 379.111865 382.435886 385.343020 385.449646 388.725125 391.680728
58.410000 380.249662 383.627918 386.579406 386.586359 389.835955 392.588607
58.553750 381.520141 384.935232 387.725363 387.732630 390.863611 393.406319
58.697500 382.821903 386.077436 388.914054 388.863547 391.895247 394.129840
58.841250 384.013468 387.291297 390.088690 389.988285 392.818702 395.142363
58.985000 385.754266 388.610679 391.210009 391.105070 393.765394 395.962221
59.128750 386.975917 389.682110 392.269290 392.185192 394.762112 396.898575
59.272500 388.247083 390.941272 393.366528 393.297421 395.683384 397.732660
59.416250 390.024764 392.380345 394.518776 394.463821 396.575614 398.552275
59.560000 391.825268 393.704028 395.572535 395.593385 397.546991 399.280667
59.693333 393.310676 395.059285 396.839825 396.805348 398.544453 400.230556
59.826667 394.723784 396.367909 398.041650 398.019397 399.622641 401.152756
59.960000 396.374187 397.832631 399.259029 399.260648 400.716084 402.072624
60.093333 397.579153 399.051092 400.396152 400.446303 401.875592 403.227137
60.226667 398.925309 400.201802 401.498759 401.602368 403.115699 404.549093
60.360000 400.021441 401.318059 402.735180 402.795494 404.364610 405.752458
60.455000 400.762872 401.986314 403.532751 403.567840 405.180028 406.627731
60.550000 401.613024 402.735983 404.367398 404.364040 405.941036 407.478746
60.580000 401.879078 403.028586 404.605085 404.640030 406.249676 407.778287
60.700000 403.049507 404.132601 405.698690 405.722891 407.259618 408.611818
60.780000 403.775684 404.810026 406.500825 406.497203 408.030540 409.340570
60.880000 404.599801 405.858457 407.574223 407.478924 408.996420 410.089265
61.010000 405.773981 407.275431 408.955832 408.835866 410.301783 411.183171
61.085000 406.406416 408.067751 409.799468 409.608178 410.965650 411.941773
61.160000 407.284824 408.883097 410.530040 410.340620 411.570138 412.515647
61.300000 409.058787 410.555095 411.794551 411.654916 412.777387 413.652798
61.395000 409.910689 411.420814 412.487934 412.453138 413.489849 414.449766
61.490000 411.130823 412.275582 413.209440 413.232031 414.194080 415.219149
61.610000 412.331374 413.242739 414.147175 414.161705 415.066212 416.170881
61.710000 413.194653 414.053172 414.871032 414.938289 415.865445 416.900902
61.810000 413.985537 414.794988 415.615293 415.721137 416.697643 417.706261
61.910000 414.754177 415.586790 416.479075 416.540971 417.510932 418.614893
62.010000 415.478926 416.396645 417.291244 417.371040 418.365249 419.671924
62.070000 415.983320 416.898901 417.838774 417.888582 418.875461 420.193616
62.200000 416.995966 417.920014 418.941370 418.978501 419.978698 421.249571
62.290000 417.769462 418.649731 419.703533 419.754728 420.872549 422.061989
62.380000 418.503681 419.403601 420.520737 420.534417 421.677469 422.874127
62.430000 418.945157 419.839598 420.933988 420.988076 422.120867 423.292223
62.480000 419.324109 420.313925 421.354455 421.415411 422.565126 423.686603
62.560000 419.926624 420.984404 422.068295 422.087937 423.205814 424.256686
62.640000 420.685715 421.615021 422.753978 422.755741 423.855822 424.850902
62.720000 421.406442 422.295864 423.446742 423.442569 424.510062 425.445497
62.800000 422.038484 423.063432 424.171619 424.110585 425.170352 425.895641
62.936667 422.935408 424.175773 425.258378 425.209145 426.236961 427.040418
63.073333 424.236738 425.347973 426.358054 426.289108 427.221033 428.103573
63.210000 425.577029 426.488740 427.340227 427.324027 428.157284 428.978126
63.290000 426.287790 427.089723 427.949599 427.920915 428.720197 429.476306
63.410000 427.150430 427.951905 428.763789 428.771478 429.609641 430.387686
63.495000 427.690926 428.530829 429.333057 429.347686 430.171099 431.095244
63.580000 428.314167 429.068332 429.887347 429.908077 430.712545 431.713428
63.700000 429.061124 429.892116 430.751441 430.770439 431.682979 432.673417
63.750000 429.386509 430.223559 431.086770 431.125555 432.040025 433.048524
63.880000 430.126796 431.014393 431.841346 431.935033 432.915530 433.872881
63.983333 430.727985 431.598926 432.444767 432.555279 433.613848 434.650969
64.086667 431.278482 432.186618 433.067408 433.156627 434.224075 435.164327
64.190000 431.839332 432.736462 433.711668 433.752207 434.817211 435.849935
64.290000 432.347854 433.273482 434.289158 434.322247 435.355198 436.518755
64.390000 432.846127 433.824221 434.841259 434.889104 436.022480 437.141286
64.490000 433.474438 434.396131 435.408663 435.482288 436.619904 437.752674
64.635000 434.272920 435.214525 436.279034 436.287908 437.386896 438.420231
64.780000 434.985968 436.018578 437.076775 437.115791 438.211519 439.389391
64.880000 435.519264 436.590058 437.717331 437.729611 438.816698 440.192925
64.980000 436.077947 437.220200 438.357370 438.358138 439.451557 440.942265
65.080000 436.636776 437.882862 438.984679 439.028451 440.169589 441.593609
65.190000 437.362851 438.635707 439.714465 439.816657 441.027235 442.522021
65.285000 438.056896 439.271993 440.360862 440.490397 441.791532 443.339872
65.380000 438.669465 439.886937 441.001485 441.179937 442.497600 444.210712
65.430000 439.147484 440.239498 441.397519 441.573092 442.944670 444.663002
65.510000 439.847637 440.992134 442.226184 442.313218 443.659438 445.417118
65.590000 440.535423 441.604088 443.006499 443.051966 444.415222 446.115656
65.665000 440.986853 442.153890 443.615091 443.701931 445.107589 447.078262
65.740000 441.520306 442.724235 444.255291 444.322536 445.785943 447.939851
65.865000 442.400167 443.732263 445.196095 445.375644 447.014208 449.345143
65.990000 443.111896 444.632541 446.193001 446.389073 448.199233 450.835274
66.108000 443.812167 445.470536 447.048766 447.302926 449.295445 452.143667
66.226000 444.711234 446.320679 447.910397 448.211313 450.278290 453.236308
66.344000 445.425554 447.192715 448.709452 449.114035 451.225434 454.459937
66.462000 446.049199 447.972856 449.592794 450.021793 452.364112 455.372906
66.580000 446.937683 448.817878 450.413701 450.875149 453.401778 456.148722
66.700000 447.780928 449.560548 451.226484 451.672164 454.494745 456.872435
66.790000 448.295731 450.018564 451.712017 452.231863 455.058677 457.433245
66.880000 448.842659 450.509280 452.267246 452.760498 455.514635 457.824171
67.002000 449.514466 451.205346 453.082365 453.469912 456.189685 458.378919
67.124000 450.057100 451.901493 453.774353 454.154883 456.864924 459.066558
67.246000 450.680441 452.663892 454.571208 454.842878 457.507606 459.654222
67.368000 451.103983 453.386465 455.262444 455.507019 458.134658 460.216715
67.490000 451.747788 454.012604 455.941073 456.175502 458.733841 460.866739
67.635000 452.572788 454.722932 456.755895 456.924516 459.491218 461.452478
67.780000 453.402486 455.551046 457.458707 457.655318 460.235761 462.046005
67.925000 454.205595 456.297183 458.201517 458.406570 460.935723 462.735904
68.070000 454.917550 457.055521 459.031267 459.184275 461.782571 463.420705
68.145000 455.273902 457.539110 459.497326 459.640949 462.185560 463.855016
68.220000 455.751086 458.047843 459.973638 460.119921 462.658010 464.327228
68.300000 456.268970 458.691392 460.544813 460.667806 463.090220 464.992839
68.380000 456.653370 459.220819 461.038106 461.205216 463.577659 465.491258
68.430000 456.928623 459.574681 461.396374 461.584385 463.947689 466.061598
68.525000 457.680127 460.425987 462.345331 462.424312 464.641358 466.800366
68.620000 458.380163 461.267535 463.278382 463.303753 465.540340 467.650873
68.755000 459.946723 462.433056 464.533333 464.634657 466.823846 469.503717
68.890000 461.267958 463.666635 465.864782 465.986800 468.298033 471.043152
69.025000 462.820817 464.893867 467.117667 467.324725 469.827262 472.716999
69.160000 464.176372 466.100048 468.377598 468.682681 471.238888 474.731247
69.295000 465.477524 467.321544 469.596030 469.988600 472.694396 476.399100
69.430000 466.704839 468.473227 470.759011 471.238703 474.227668 477.815151
69.558000 467.416788 469.324056 471.914545 472.313316 475.300737 478.888996
69.686000 468.199603 470.213250 473.037299 473.325051 476.483959 479.943147
69.814000 469.053154 471.017704 474.140892 474.291843 477.671732 480.687168
69.942000 469.879562 471.864204 475.069063 475.230673 478.677717 481.704724
70.070000 470.777739 472.738000 475.977395 476.122013 479.508825 482.259578
70.180000 471.489967 473.492959 476.780520 476.844094 480.133229 482.770831
70.320000 472.523520 474.395833 477.765840 477.728401 480.917140 483.664088
70.442000 473.246469 475.310413 478.570750 478.498997 481.570483 484.067722
70.564000 474.078517 476.175771 479.283405 479.244993 482.126577 484.705113
70.686000 474.941696 476.971161 479.983491 479.947157 482.665277 485.186717
70.808000 475.621926 477.869110 480.771077 480.632884 483.272655 485.631194
70.930000 476.473152 478.558358 481.516631 481.322868 483.859603 486.160417
71.063333 477.308165 479.310830 482.240169 482.050984 484.494218 486.671041
71.196667 478.164546 480.124259 482.971573 482.768838 485.206949 487.092030
71.330000 479.038021 480.931999 483.702371 483.462224 485.761220 487.500407
71.433333 479.643964 481.580501 484.117392 483.988015 486.221895 487.859429
71.536667 480.278729 482.343676 484.628762 484.507413 486.630120 488.258047
71.640000 480.783958 482.913600 485.094756 484.990511 487.087898 488.707540
71.743333 481.181522 483.512575 485.512330 485.476460 487.486804 489.141233
71.846667 481.783268 484.211700 485.912300 485.967520 487.924731 489.496521
71.950000 482.481492 484.790094 486.339504 486.463431 488.385254 489.899926
72.056667 482.951218 485.302018 486.815092 486.944434 488.872815 490.299306
72.163333 483.676524 485.807820 487.317547 487.423187 489.284313 490.708989
72.270000 484.176608 486.402033 487.800210 487.921719 489.667194 491.161769
