depth(m) lower_95(kyr) lower_68(kyr) median(kyr) mean(kyr) upper_68(kyr) upper_95(kyr)
39.780000 299.033946 301.459207 303.534547 303.585005 306.036231 307.789256
39.880000 299.485772 302.042185 304.190507 304.192087 306.594826 308.312361
39.980000 300.117780 302.717626 304.764922 304.789314 307.191472 308.961158
40.080000 300.837630 303.252989 305.353494 305.390546 307.869072 309.516125
40.180000 301.419660 303.823616 305.859583 305.998493 308.501300 310.378801
40.230000 301.668801 304.090787 306.154663 306.297223 308.821174 310.716837
40.280000 302.087637 304.371409 306.504712 306.599451 309.188375 310.951524
40.380000 302.598858 304.822594 306.997298 307.157731 309.801663 311.885014
40.480000 303.277655 305.346127 307.486259 307.731913 310.426533 312.687088
40.580000 303.816238 305.853564 308.018967 308.336711 311.113039 313.412774
40.680000 304.487036 306.379089 308.588440 308.959474 311.903614 314.036461
40.780000 305.388667 306.893174 309.228457 309.646131 312.653260 314.584724
40.880000 305.929867 307.424626 309.987506 310.320992 313.496131 315.268499
40.980000 306.750889 308.089994 310.892411 311.108557 314.356886 315.806737
41.080000 307.489437 308.843080 311.930235 311.920764 315.038267 316.351531
41.180000 308.132142 309.770987 312.960275 312.827366 315.821096 316.942978
41.280000 308.873158 310.622447 314.054230 313.733211 316.545018 317.599635
41.410000 309.999162 312.336296 315.418521 315.011346 317.453250 318.405380
41.510000 310.977161 313.549679 316.385049 315.921954 318.058713 318.983506
41.610000 311.763868 314.638249 317.286292 316.775500 318.631440 319.574356
41.660000 312.219952 315.106782 317.642544 317.179294 318.937283 319.860718
41.710000 312.638910 315.595220 318.043865 317.561637 319.297695 320.200848
41.810000 313.806849 316.560310 318.704198 318.309723 319.914148 320.699794
41.910000 314.826464 317.521949 319.397808 319.060646 320.522210 321.296287
42.010000 316.148978 318.403069 320.088456 319.828374 321.144323 321.894772
42.110000 317.453899 319.437543 320.823111 320.623910 321.775781 322.661221
42.210000 318.757149 320.387288 321.556272 321.429488 322.494977 323.440602
42.310000 320.002816 321.250188 322.308097 322.237120 323.213002 324.125618
42.410000 321.058357 322.170351 323.112623 323.096963 324.006929 325.086162
42.510000 322.100657 323.062576 323.969654 323.982567 324.851674 326.018368
42.610000 323.116287 323.955766 324.824724 324.865098 325.717950 326.929205
42.710000 323.836055 324.742442 325.632772 325.643355 326.538222 327.695745
42.810000 324.636835 325.474581 326.326906 326.400646 327.368084 328.572856
42.910000 325.296011 326.092746 327.012501 327.085455 328.062962 329.285336
43.010000 325.867128 326.714073 327.688083 327.781663 328.861538 330.079763
43.110000 326.425545 327.414309 328.372427 328.469379 329.626473 330.958903
43.160000 326.760169 327.734529 328.757816 328.853976 330.001006 331.237427
43.210000 327.157403 328.119742 329.211776 329.266979 330.437966 331.593251
43.310000 327.955167 328.973484 330.150425 330.143286 331.308220 332.410368
43.410000 328.862424 329.972413 331.086201 331.131492 332.386437 333.367680
43.510000 329.689019 330.948460 332.116721 332.077348 333.197310 334.120142
43.610000 330.831130 331.967128 333.051881 332.976643 333.977660 334.852973
43.710000 331.500064 332.691077 333.749999 333.684090 334.651958 335.463797
43.810000 332.359296 333.337172 334.387209 334.315432 335.248141 335.979839
43.910000 332.954642 333.948096 334.902026 334.856865 335.797732 336.517957
44.010000 333.491518 334.504556 335.425775 335.379310 336.260368 336.979988
44.110000 334.188206 335.081836 335.947363 335.910515 336.735593 337.428953
44.210000 334.780768 335.727424 336.525416 336.510179 337.319295 338.070340
44.310000 335.561566 336.444736 337.319702 337.308410 338.137476 339.042467
44.410000 336.914345 337.718064 338.729365 338.670216 339.601147 340.294988
44.510000 337.994403 338.857321 339.751091 339.691461 340.532385 341.143658
44.610000 338.864184 339.691980 340.513734 340.470656 341.222419 341.802112
44.710000 339.576663 340.444903 341.226713 341.143491 341.836698 342.307085
44.810000 340.218163 341.012724 341.786076 341.704622 342.349762 342.855984
44.910000 340.712103 341.577500 342.300818 342.225392 342.827104 343.348116
45.010000 341.341218 342.110800 342.813468 342.760742 343.331961 344.008876
45.040000 341.528938 342.297815 343.000060 342.946024 343.514532 344.262437
45.140000 341.957212 342.841622 343.538363 343.550894 344.203350 345.355581
45.240000 342.402654 343.349670 344.082628 344.163418 344.920919 346.423443
45.340000 342.910877 343.985406 344.746803 344.959251 346.030076 348.030051
45.440000 343.391977 344.569362 345.457551 345.759366 347.165821 349.314850
45.540000 344.084519 345.095019 346.191640 346.559036 348.330071 350.147954
45.640000 344.452107 345.590732 347.000539 347.387670 349.588114 350.944325
45.740000 344.927046 346.194935 348.009414 348.240239 350.566549 351.655717
45.840000 345.431568 346.785223 349.120913 349.094455 351.375843 352.376131
45.890000 345.814635 347.199770 349.624780 349.502824 351.744587 352.683559
45.940000 346.168952 347.569072 350.060819 349.917075 352.129255 353.041048
46.040000 346.879704 348.406397 350.937538 350.714426 352.848726 353.857149
46.140000 347.527289 349.365682 351.918733 351.543102 353.484657 354.635916
46.240000 348.245955 350.215346 352.745948 352.333274 354.179295 355.362159
46.340000 349.105923 351.007019 353.570746 353.126179 354.855207 356.148690
46.440000 350.032663 351.965968 354.255488 353.915141 355.520824 356.984278
46.540000 350.944600 352.936335 354.974786 354.696688 356.136253 357.597407
46.640000 352.105851 353.895762 355.704112 355.455631 356.755667 358.305884
46.740000 352.881924 354.876529 356.426939 356.212088 357.345361 358.965288
46.840000 353.563252 355.763724 357.037924 356.902140 357.933822 359.723303
46.940000 354.267492 356.570156 357.702388 357.595224 358.590339 360.493269
46.990000 354.690372 356.954057 358.027136 357.955123 358.933496 360.836475
47.020000 355.046502 357.232385 358.265314 358.187877 359.123089 361.091968
47.070000 355.481615 357.681730 358.633227 358.585685 359.596292 361.420405
47.120000 355.937847 358.158216 358.995770 358.987600 360.038431 361.843150
47.140000 356.107943 358.278325 359.159935 359.153559 360.198681 362.017112
47.170000 356.374871 358.549545 359.398922 359.421779 360.494772 362.296640
47.190000 356.549756 358.729843 359.569435 359.595482 360.642186 362.438923
47.220000 356.850272 358.979337 359.812836 359.866096 360.961984 362.838737
47.270000 357.219353 359.418633 360.255540 360.331809 361.480624 363.425247
47.350000 358.089538 360.090079 361.019249 361.124097 362.406797 364.208400
47.370000 358.277288 360.305572 361.222337 361.331530 362.628816 364.379420
47.440000 359.059205 360.877555 362.067898 362.107038 363.349603 364.926927
47.470000 359.478764 361.128717 362.389423 362.401158 363.645367 365.184347
47.490000 359.568997 361.296116 362.583964 362.587828 363.818410 365.368310
47.620000 361.120409 362.389118 363.707353 363.701302 365.012721 366.601825
47.640000 361.293106 362.549956 363.895774 363.886545 365.215489 366.782481
47.670000 361.619734 362.850189 364.153083 364.160807 365.445696 367.070145
47.690000 361.790702 363.030116 364.327156 364.344662 365.659158 367.295932
47.720000 362.080829 363.305884 364.589449 364.622763 365.951244 367.480801
47.770000 362.483214 363.828378 365.042708 365.085489 366.442205 367.777307
47.820000 362.859156 364.307932 365.502680 365.569611 366.848053 368.145116
47.840000 362.997040 364.488692 365.706939 365.757623 367.019319 368.360284
47.870000 363.268934 364.753562 365.977375 366.033752 367.245795 368.716990
47.890000 363.506789 364.936135 366.188310 366.214140 367.408063 368.999857
47.920000 363.835256 365.231280 366.512708 366.480682 367.644717 369.221853
47.970000 364.410486 365.635493 367.042889 366.932753 368.247697 369.649931
48.020000 365.063735 365.990495 367.474068 367.356394 368.694641 370.134017
48.040000 365.252997 366.146802 367.651019 367.521787 368.906083 370.264858
48.070000 365.454491 366.392751 367.931014 367.783858 369.125249 370.499223
48.090000 365.644411 366.547070 368.110648 367.949588 369.297361 370.613897
48.120000 365.832256 366.774776 368.368704 368.210398 369.535841 370.841232
48.170000 366.323838 367.192649 368.752953 368.657334 369.944804 371.173332
48.220000 366.726589 367.592678 369.210697 369.114561 370.307372 371.558266
48.240000 366.870106 367.754419 369.405577 369.290618 370.475863 371.691272
48.270000 367.140181 368.022032 369.655835 369.548573 370.731035 371.922264
48.290000 367.354964 368.194029 369.848208 369.718669 370.873124 372.038818
48.320000 367.625062 368.486790 370.095180 369.974967 371.103862 372.295749
48.420000 368.311735 369.523613 370.894618 370.842748 372.070314 373.176669
48.440000 368.499365 369.740130 371.064093 371.013604 372.257066 373.370872
48.470000 368.729993 370.064173 371.299993 371.280276 372.509915 373.655689
48.520000 369.212354 370.651144 371.730050 371.750101 372.954887 374.109106
48.570000 369.789261 371.161654 372.154927 372.208137 373.465792 374.447022
48.620000 370.370810 371.637250 372.588785 372.687092 373.930119 374.849255
48.640000 370.614099 371.832434 372.738525 372.856690 374.111951 375.000559
48.690000 371.107197 372.263624 373.178024 373.307239 374.601226 375.398678
48.720000 371.444138 372.500479 373.425354 373.564585 374.849074 375.637095
48.770000 371.928283 372.935486 373.919297 374.002425 375.222420 376.002467
48.820000 372.396841 373.366438 374.423337 374.448555 375.633552 376.372311
48.870000 372.836008 373.822781 374.891628 374.912718 376.052215 376.837326
48.890000 373.031290 374.010434 375.091090 375.093571 376.233593 376.961996
49.020000 374.253919 375.193002 376.291744 376.283298 377.323083 378.433570
49.140000 375.158956 376.242613 377.306582 377.330586 378.327658 379.506106
49.170000 375.321286 376.493557 377.573463 377.579374 378.570779 379.850509
49.220000 375.787339 376.931009 377.987659 377.991751 378.998237 380.154889
49.320000 376.635782 377.656696 378.807341 378.813559 380.002530 380.829536
49.340000 376.717208 377.792622 378.958963 378.970924 380.196119 380.964847
49.370000 376.924074 377.989124 379.193367 379.196800 380.440149 381.144675
49.420000 377.284464 378.320296 379.565275 379.575365 380.842998 381.434579
49.470000 377.726474 378.672504 380.007869 379.959782 381.184598 381.679200
49.520000 377.985646 379.092290 380.389265 380.348365 381.566932 382.012866
49.540000 378.110423 379.275095 380.545082 380.497303 381.702256 382.127877
49.590000 378.448874 379.776715 380.923092 380.854253 382.002116 382.403763
49.620000 378.642829 380.078634 381.150242 381.074248 382.187565 382.522688
49.670000 378.893581 380.564336 381.580741 381.428132 382.468848 382.770601
49.720000 379.122522 380.983531 382.002783 381.782423 382.763850 383.009722
49.740000 379.264779 381.129358 382.158069 381.922961 382.875286 383.129771
49.770000 379.495318 381.333847 382.373665 382.123464 383.046023 383.313274
49.790000 379.634999 381.466333 382.523147 382.254695 383.160849 383.459160
49.820000 379.830347 381.652830 382.696600 382.437030 383.317687 383.604114
49.890000 380.223802 382.044026 383.078683 382.844871 383.663431 383.971957
49.940000 380.463634 382.346562 383.392821 383.146315 383.917364 384.226188
49.990000 380.829003 382.704856 383.754365 383.464887 384.182422 384.650188
50.010000 380.978268 382.834407 383.893169 383.600223 384.301047 384.812906
50.040000 381.145709 383.060187 384.090334 383.811599 384.488922 385.043441
50.060000 381.309851 383.191337 384.216022 383.951743 384.623515 385.192262
50.090000 381.664890 383.391893 384.396848 384.159384 384.822621 385.460606
50.190000 382.456057 384.099021 384.985328 384.834598 385.464238 386.508517
50.210000 382.586798 384.257453 385.110328 384.980429 385.612473 386.740844
50.290000 383.273066 384.930703 385.659069 385.579090 386.222035 387.681115
50.340000 383.570958 385.321776 386.029034 385.960428 386.590547 388.136460
50.390000 384.063793 385.723432 386.361303 386.346348 386.968471 388.567406
50.410000 384.251219 385.880981 386.522084 386.505088 387.138081 388.825197
50.440000 384.480627 386.113829 386.756215 386.738174 387.395020 389.033158
50.490000 384.937173 386.538463 387.134376 387.133097 387.762840 389.389789
50.540000 385.405349 386.927390 387.537993 387.541071 388.206012 389.840511
50.590000 385.856869 387.347352 387.979856 387.970273 388.665911 390.152014
50.610000 386.095099 387.523369 388.161674 388.143031 388.831628 390.274527
50.640000 386.422522 387.781206 388.425109 388.406208 389.092280 390.475886
50.660000 386.617255 387.940605 388.584537 388.579030 389.270071 390.652519
50.690000 386.982473 388.230064 388.845323 388.841438 389.485242 390.882023
50.790000 388.118464 389.194013 389.694956 389.734636 390.277287 391.600787
50.810000 388.319012 389.376669 389.864287 389.911525 390.471657 391.690598
50.840000 388.635160 389.659466 390.103757 390.179700 390.745587 391.977076
50.860000 388.835006 389.842527 390.267120 390.355476 390.929923 392.172949
50.890000 389.092034 390.109280 390.514791 390.626706 391.234945 392.408194
50.910000 389.246538 390.258883 390.678658 390.798582 391.438681 392.578085
50.940000 389.639930 390.496162 390.927186 391.053197 391.735709 392.869770
50.960000 389.921797 390.650721 391.090577 391.227468 391.941687 393.040667
50.990000 390.149536 390.870486 391.350293 391.497218 392.259807 393.289693
51.110000 391.207639 391.687590 392.388550 392.527765 393.444419 394.442303
51.140000 391.388300 391.894145 392.643911 392.780528 393.687041 394.738960
51.160000 391.567086 392.047660 392.802877 392.942112 393.870088 394.905659
51.235000 392.087462 392.636852 393.407004 393.520894 394.387922 395.552462
51.310000 392.631835 393.221070 393.997133 394.098284 394.982594 396.131864
51.360000 393.033074 393.603374 394.350464 394.452205 395.305600 396.431774
51.390000 393.252498 393.822244 394.573871 394.664027 395.513645 396.570622
51.440000 393.573848 394.142466 394.926544 394.992614 395.830674 396.950021
51.510000 394.011676 394.534444 395.381234 395.413723 396.229467 397.335324
51.560000 394.344826 394.804503 395.686277 395.702752 396.503656 397.635377
51.590000 394.505294 394.963994 395.872998 395.876605 396.654881 397.770633
51.640000 394.775653 395.212911 396.157096 396.137105 396.904695 398.000154
51.690000 395.075155 395.479813 396.405826 396.420609 397.257451 398.275969
51.710000 395.200774 395.599939 396.545540 396.542183 397.377447 398.367922
51.740000 395.377133 395.792930 396.728794 396.720505 397.545949 398.572055
51.760000 395.462667 395.928486 396.827692 396.832717 397.644934 398.730163
51.835000 395.834867 396.364666 397.199584 397.239008 398.021727 399.201445
51.910000 396.220810 396.823242 397.564919 397.639311 398.394139 399.654289
51.990000 396.656515 397.337606 397.954510 398.085076 398.881322 400.212760
52.110000 397.235690 397.954394 398.471791 398.671281 399.479992 400.838672
52.160000 397.504102 398.212145 398.706997 398.918619 399.744430 401.105071
52.190000 397.669820 398.360901 398.836227 399.064537 399.896869 401.220531
52.310000 398.346574 398.864080 399.401253 399.630096 400.505592 401.701897
52.340000 398.557674 399.003183 399.556242 399.782594 400.665262 401.822640
52.360000 398.670996 399.090607 399.676746 399.889331 400.745527 401.939727
52.390000 398.828692 399.268241 399.845272 400.058765 400.926408 402.090542
52.410000 398.978271 399.388073 399.969443 400.173024 401.029779 402.180687
52.440000 399.152861 399.552924 400.170572 400.354064 401.157947 402.310347
52.540000 399.741122 400.208983 400.881437 400.965759 401.759261 402.702104
52.610000 400.080120 400.634228 401.322240 401.363970 402.074988 402.956967
52.660000 400.379894 400.977525 401.614337 401.658354 402.339600 403.155060
52.740000 400.933275 401.558269 402.032507 402.110408 402.809545 403.471519
52.790000 401.207197 401.842471 402.297601 402.371145 403.037888 403.695001
52.810000 401.330362 401.966178 402.414303 402.475325 403.109026 403.774607
52.840000 401.527119 402.130079 402.575352 402.628801 403.215340 403.867090
52.860000 401.613071 402.225479 402.678790 402.728239 403.298388 403.940138
52.890000 401.740308 402.403526 402.840937 402.876050 403.404114 404.040535
52.990000 402.158684 402.894966 403.287342 403.314687 403.800654 404.424621
53.010000 402.261330 403.010101 403.385694 403.410708 403.883062 404.497982
53.040000 402.387035 403.174935 403.538674 403.554276 404.023514 404.618329
53.060000 402.476761 403.270787 403.631927 403.648046 404.114693 404.676702
53.090000 402.626759 403.427093 403.753665 403.779741 404.265788 404.813436
53.140000 402.875624 403.646252 403.966122 403.986139 404.497604 404.974257
53.190000 403.085787 403.864182 404.178710 404.195228 404.671790 405.143711
53.210000 403.190881 403.967375 404.268493 404.286011 404.782634 405.203233
53.240000 403.322032 404.114232 404.392282 404.417922 404.882494 405.320465
53.260000 403.422314 404.205640 404.480874 404.507859 404.981899 405.411560
53.290000 403.560363 404.340177 404.618795 404.641100 405.141564 405.506555
53.340000 403.769808 404.540811 404.830836 404.849368 405.344539 405.707533
53.390000 404.021476 404.742124 405.033008 405.063083 405.585581 405.873804
53.410000 404.135922 404.837260 405.120443 405.153941 405.665065 405.962941
53.440000 404.290634 404.982349 405.258236 405.293752 405.796141 406.065672
53.460000 404.388956 405.065634 405.358836 405.386208 405.893662 406.134457
53.490000 404.540673 405.191374 405.494472 405.523976 406.011779 406.268965
53.540000 404.793338 405.391871 405.722638 405.749282 406.207366 406.462056
53.610000 405.281756 405.683373 406.024741 406.051564 406.477120 406.758595
53.660000 405.557805 405.899549 406.262264 406.279888 406.688927 406.956149
53.690000 405.739853 406.046111 406.404278 406.419415 406.815069 407.086529
53.790000 406.245544 406.554868 406.909067 406.896380 407.231496 407.495518
53.810000 406.322862 406.659002 407.009398 406.996141 407.326458 407.562642
53.840000 406.490400 406.832604 407.178276 407.157977 407.476592 407.716816
53.860000 406.607003 406.954651 407.287212 407.269390 407.585051 407.821580
53.890000 406.736197 407.133308 407.451058 407.438758 407.752498 408.005409
53.910000 406.814685 407.250168 407.580915 407.556220 407.857020 408.131854
53.940000 406.934910 407.442596 407.757558 407.725990 408.022129 408.312801
53.960000 407.001984 407.562092 407.864179 407.835024 408.122414 408.402084
53.990000 407.098862 407.720958 408.024154 407.992644 408.265275 408.640108
54.040000 407.248096 407.981585 408.270152 408.250335 408.517837 408.952193
54.090000 407.467339 408.229074 408.498911 408.496720 408.780793 409.257043
54.110000 407.568946 408.342679 408.597853 408.597739 408.881333 409.384036
54.140000 407.740880 408.494026 408.737129 408.752009 409.075052 409.546244
54.160000 407.857552 408.596459 408.834383 408.854750 409.181662 409.638300
54.190000 407.981111 408.724270 408.972967 408.997814 409.348165 409.801606
54.240000 408.225064 408.939939 409.201432 409.233677 409.616443 410.010941
54.310000 408.741192 409.234451 409.523393 409.568651 410.005420 410.352267
54.340000 408.902796 409.359578 409.675318 409.715781 410.173570 410.491714
54.360000 408.997121 409.454871 409.782808 409.815527 410.265420 410.595541
54.390000 409.190823 409.586496 409.958819 409.964529 410.400142 410.700114
54.440000 409.431801 409.809101 410.177002 410.195940 410.615635 410.930259
54.490000 409.684960 410.047529 410.437755 410.436827 410.842016 411.196159
54.510000 409.791892 410.154611 410.523044 410.540696 410.935129 411.291734
54.540000 409.982342 410.322158 410.681771 410.702600 411.114155 411.460310
54.560000 410.084101 410.440464 410.776163 410.806639 411.218573 411.572869
54.590000 410.217474 410.588324 410.925685 410.966659 411.393580 411.778326
54.640000 410.476726 410.834242 411.181242 411.237304 411.708201 412.163935
54.660000 410.567198 410.926208 411.286349 411.345221 411.820463 412.281630
