depth(m) lower_95(kyr) lower_68(kyr) median(kyr) mean(kyr) upper_68(kyr) upper_95(kyr)
46.420000 290.388198 295.911388 299.538603 299.108343 302.260971 304.633930
46.520000 291.616207 296.960375 300.441372 299.885051 302.914480 305.183345
46.620000 292.291189 297.832018 301.164222 300.660031 303.609757 305.680425
46.720000 293.087075 298.704313 301.894381 301.414674 304.284540 306.370812
46.820000 294.072269 299.505521 302.713071 302.175226 304.979847 307.043263
46.920000 295.493532 300.347246 303.448108 302.949256 305.722301 307.692567
47.020000 296.625385 301.191940 304.260861 303.732820 306.382332 308.447456
47.148571 298.027101 302.233663 305.219429 304.789443 307.504941 309.504493
47.277143 299.325561 303.280020 306.179025 305.836831 308.449754 310.311099
47.405714 300.821563 304.444560 307.174496 306.901981 309.373766 311.188935
47.534286 302.238371 305.833077 308.129794 307.987302 310.335754 312.168104
47.662857 303.974599 307.046661 309.252537 309.039172 311.232993 313.055171
47.791429 305.105298 308.273039 310.253121 310.139006 312.236127 314.232523
47.920000 306.704132 309.518062 311.254548 311.174404 313.159900 315.104090
48.055000 308.099565 310.467296 312.212270 312.151621 313.979674 315.995619
48.190000 309.015207 311.585998 313.166250 313.136772 314.968562 316.735351
48.323333 310.136441 312.511662 314.139836 314.115904 315.978116 317.710805
48.456667 310.742301 313.425818 315.140830 315.075734 316.917601 318.577396
48.590000 311.643167 314.225784 316.065639 315.999126 317.930090 319.426705
48.723333 312.557861 315.112929 317.022880 316.908712 318.730823 320.224739
48.856667 313.935177 315.974396 318.057635 317.812673 319.556947 320.862282
48.990000 314.788910 316.860617 318.946296 318.706596 320.420420 321.608667
49.132857 315.823622 317.904032 319.964413 319.672087 321.341837 322.615500
49.275714 316.925881 319.000703 320.875307 320.665629 322.297473 323.522506
49.418571 317.844485 320.029075 321.823622 321.645218 323.197843 324.465242
49.561429 319.139203 321.095811 322.763461 322.618128 324.051719 325.804203
49.704286 320.330591 322.210582 323.656839 323.585991 324.885098 326.784576
49.847143 321.662609 323.182400 324.487395 324.469721 325.687405 327.542163
49.990000 322.996011 324.138328 325.332245 325.373502 326.520633 328.195099
50.010000 323.154510 324.242043 325.437005 325.490389 326.640041 328.306402
50.150000 323.803725 324.968922 326.110972 326.173434 327.374487 328.930076
50.290000 324.485842 325.616912 326.771106 326.852166 328.124571 329.630248
50.430000 325.151765 326.265069 327.375139 327.516207 328.857963 330.306908
50.570000 325.871802 326.911466 328.020791 328.199215 329.615608 331.112817
50.710000 326.514632 327.544387 328.712940 328.901127 330.323155 331.778566
50.850000 327.195575 328.202273 329.408693 329.609336 331.141360 332.487580
50.990000 327.958614 328.901101 330.223826 330.356903 331.921028 333.333366
51.010000 328.048852 329.011076 330.371830 330.498151 332.108101 333.493848
51.154286 329.009388 330.227802 331.793971 331.932330 333.694572 335.449584
51.298571 330.031383 331.434033 333.398957 333.415514 335.330209 337.233073
51.442857 331.237474 332.906276 334.935758 334.939882 336.887424 338.719424
51.587143 332.339235 334.510052 336.561134 336.472943 338.409584 339.899625
51.731429 333.912328 336.189992 338.189079 337.989170 339.650113 341.221580
51.875714 335.692192 337.909324 339.559324 339.428174 340.918196 342.258912
52.020000 337.516016 339.536423 340.744444 340.706750 341.980117 343.419958
52.040000 337.698647 339.668392 340.853021 340.825266 342.116790 343.545522
52.182857 338.376220 340.367415 341.510932 341.500198 342.776293 344.289885
52.325714 339.166441 340.925084 342.084016 342.121144 343.440379 345.024129
52.468571 339.915720 341.490337 342.646342 342.713208 344.066223 345.635002
52.611429 340.617701 342.083109 343.129366 343.278005 344.664164 346.369070
52.754286 341.260112 342.588714 343.655958 343.848526 345.307287 347.319298
52.897143 341.859985 343.080130 344.171561 344.406855 345.947338 348.093634
53.040000 342.319599 343.590262 344.668388 344.972289 346.630236 348.625085
53.180000 342.852439 344.040715 345.113470 345.526921 347.425635 349.159999
53.320000 343.489216 344.510049 345.607679 346.079685 348.030941 349.757773
53.340000 343.559830 344.585141 345.677336 346.157956 348.099298 349.811324
53.480000 343.884198 345.084292 346.243066 346.711627 348.613321 350.656059
53.620000 344.382668 345.527624 346.825269 347.270893 349.193698 351.438421
53.760000 344.724603 345.983997 347.501399 347.838970 349.748603 351.945331
53.900000 345.127076 346.428843 348.205176 348.416177 350.402715 352.665335
54.040000 345.464218 346.791680 348.955996 348.977144 351.009662 353.464772
54.180000 345.740499 347.211811 349.656359 349.530665 351.647999 354.024889
54.320000 346.138793 347.624739 350.286156 350.109824 352.225388 354.657153
54.420000 346.367574 347.973042 350.736629 350.534940 352.767368 355.149121
54.520000 346.622931 348.350602 351.158764 350.948737 353.217444 355.700659
54.620000 346.970230 348.676083 351.615645 351.357316 353.689302 356.447076
54.748571 347.543578 349.174550 352.089761 351.863798 354.291390 357.025374
54.877143 347.895782 349.715016 352.580239 352.401087 354.883561 357.474751
55.005714 348.247018 350.259975 353.044019 352.931502 355.483603 358.022573
55.134286 348.546355 350.715831 353.544535 353.461541 356.011540 358.556152
55.262857 348.938480 351.244954 353.972712 354.003638 356.638279 359.226368
55.391429 349.389838 351.705813 354.450792 354.569672 357.324982 360.111207
55.520000 350.043102 352.292803 354.940494 355.140729 357.960515 360.709473
55.653333 350.578277 352.875924 355.482480 355.737256 358.681020 361.562534
55.786667 351.079795 353.492087 356.093895 356.379031 359.445343 362.362067
55.920000 351.478986 354.210834 356.683687 357.049821 360.241639 363.207973
56.053333 352.098567 355.000493 357.247236 357.733704 361.094424 364.487642
56.186667 352.919676 355.638719 357.810534 358.397717 361.849465 365.167369
56.320000 353.500724 356.282513 358.340175 359.041430 362.498958 365.735818
56.420000 353.858960 356.783337 358.802049 359.527962 363.109776 366.379617
56.520000 354.300762 357.317206 359.246425 360.018674 363.629462 366.814760
56.620000 354.703796 357.857809 359.774464 360.532493 364.119577 367.251338
56.740000 355.402136 358.475762 360.411847 361.199321 364.841456 367.781895
56.860000 356.290256 359.057901 361.138389 361.912728 365.553644 368.389949
56.980000 356.995671 359.707940 361.966739 362.660647 366.426035 368.996653
57.100000 357.936132 360.366465 362.706581 363.414429 367.185588 369.556476
57.220000 358.850657 361.000943 363.469586 364.150893 368.019677 370.227061
57.320000 359.407217 361.530657 364.247170 364.772090 368.655050 370.764961
57.420000 360.218063 362.178482 364.900608 365.395977 369.153049 371.161634
57.520000 360.919937 362.757687 365.512641 366.021213 369.746299 371.743687
57.620000 361.541410 363.404315 366.338139 366.661214 370.224227 372.211570
57.720000 362.109354 364.035246 367.021871 367.284475 370.755735 372.830931
57.820000 362.714901 364.667750 367.840533 367.924068 371.312296 373.493688
57.960000 363.484339 365.687995 368.883178 368.849479 372.055093 374.267157
58.100000 364.285780 366.687479 369.972332 369.758805 372.748541 374.981208
58.240000 365.175790 367.696165 370.951489 370.709017 373.491345 375.735345
58.380000 366.431449 368.812144 371.848541 371.677516 374.267993 376.683425
58.520000 367.677093 370.018890 372.856747 372.666537 374.946647 377.421340
58.620000 368.339027 370.952397 373.710005 373.439513 375.557219 378.184418
58.720000 369.059162 371.956112 374.547611 374.233238 376.107390 379.250781
58.820000 369.720484 372.735082 375.277487 375.008956 376.826952 379.801379
58.940000 370.738308 373.676778 376.114518 375.920122 377.855875 380.962170
59.060000 372.041513 374.531108 376.958961 376.844905 378.909877 381.884508
59.180000 373.096117 375.526488 377.763581 377.773505 380.032499 382.818548
59.300000 374.168675 376.372262 378.572952 378.657322 381.139861 383.690600
59.420000 375.154076 377.162121 379.269157 379.579999 382.339396 384.631005
59.500000 375.736975 377.788856 379.810246 380.197244 383.098201 385.160988
59.580000 376.355758 378.485949 380.365429 380.838735 383.930927 385.824096
59.720000 377.308412 379.519942 381.257431 381.998516 385.394277 386.932555
59.820000 377.838642 380.127835 381.930037 382.723572 386.263197 387.940904
59.920000 378.537775 380.781134 382.555165 383.443086 387.086064 388.531155
60.020000 379.172572 381.423346 383.325954 384.152987 387.765499 389.297924
60.120000 379.829575 382.091596 384.205460 384.874098 388.397738 389.919813
60.220000 380.493445 382.626513 385.042907 385.581506 389.044190 390.474072
60.320000 381.056745 383.277459 385.954904 386.282029 389.684164 390.954152
60.420000 381.840658 383.828695 386.947091 386.970613 390.184162 391.454060
60.520000 382.622540 384.412258 387.788243 387.687787 390.823179 392.110495
60.620000 383.671556 385.132019 388.666254 388.401004 391.379851 392.787999
60.720000 384.273399 385.827629 389.564009 389.117940 391.987883 393.347247
60.820000 384.932811 386.549147 390.356405 389.823956 392.601399 394.014628
60.953333 385.632398 387.558422 391.309536 390.722978 393.383948 394.876734
61.086667 386.362191 388.563825 392.171844 391.595482 394.120918 395.935447
61.220000 386.992963 389.560848 393.028781 392.495909 394.973331 396.859578
61.353333 387.830258 390.771006 393.793601 393.388833 395.716233 397.766401
61.486667 388.628329 391.829476 394.612231 394.241485 396.540317 398.517302
61.620000 389.449038 392.899360 395.260604 395.065949 397.344379 399.055420
61.753333 390.302095 393.895048 395.992303 395.864593 398.062844 399.758092
61.886667 390.968361 394.790323 396.737286 396.669616 398.781738 400.535732
62.020000 391.794519 395.674032 397.532522 397.441847 399.538902 401.340474
62.157500 392.754164 396.309578 398.284678 398.165272 400.271669 402.194221
62.295000 393.350603 396.952481 398.945703 398.862468 401.007789 402.950396
62.432500 393.896538 397.532656 399.673354 399.533965 401.705573 403.714368
62.570000 394.742009 398.098723 400.296525 400.195893 402.392803 404.546100
62.707500 395.663548 398.622161 400.933031 400.859904 403.089711 405.226493
62.845000 396.139063 399.226847 401.592877 401.519256 403.853642 405.816273
62.982500 397.001785 399.807935 402.315029 402.194658 404.477800 406.519365
63.120000 397.740311 400.383754 403.023645 402.886519 405.221567 407.370428
63.257500 398.647041 401.092541 403.625535 403.574684 405.940919 408.021608
63.395000 399.488728 401.856847 404.346016 404.251574 406.609148 408.704442
63.532500 400.295159 402.475135 405.039392 404.937887 407.335592 409.433630
63.670000 400.990295 403.190623 405.779290 405.631509 408.046972 410.048152
63.807500 401.481616 403.960215 406.497545 406.348369 408.692835 411.068388
63.945000 402.229716 404.721924 407.181101 407.090841 409.335097 411.891133
64.082500 403.077101 405.585995 407.993657 407.885854 410.029011 412.614032
64.220000 403.871509 406.417624 408.791136 408.698412 410.756415 413.459437
64.348571 404.884760 407.269836 409.672821 409.556767 411.713014 414.199097
64.477143 405.905108 408.153590 410.544199 410.471769 412.652407 414.957185
64.605714 406.882673 409.220873 411.472969 411.463564 413.762394 416.015111
64.734286 408.055105 410.272094 412.421907 412.455630 414.848590 416.953821
64.862857 409.227428 411.458200 413.391370 413.527878 415.817110 418.022212
64.991429 410.611568 412.600356 414.478611 414.610374 416.732390 419.104079
65.120000 412.278203 413.865190 415.516666 415.766213 417.741837 420.610028
65.256667 413.373436 415.022410 416.783215 416.999436 419.098173 421.541786
65.393333 414.753433 416.277134 418.172022 418.362111 420.528013 422.857344
65.530000 416.073331 417.679141 419.593030 419.773814 421.902830 424.090266
65.630000 417.114501 418.721317 420.870282 420.914362 423.059944 425.106373
65.730000 418.113632 419.854042 422.154541 422.080982 424.257244 426.188989
65.830000 419.040341 420.974661 423.474398 423.355011 425.533618 427.509800
65.950000 420.172160 422.357345 425.206449 425.037538 427.530725 429.761013
66.070000 421.472563 424.047896 426.901060 426.785316 429.511381 431.650210
66.190000 422.460567 425.568191 428.666584 428.470218 431.232646 433.419385
66.310000 423.367457 427.195105 430.433840 430.130954 432.853261 435.273966
66.430000 424.294603 428.799590 432.189143 431.768852 434.538665 436.903260
66.550000 425.277219 429.694763 433.873086 433.342347 436.443971 438.719468
66.670000 426.159697 430.820123 435.543958 434.864323 438.427666 440.733006
66.790000 427.127187 431.664932 437.134744 436.295723 440.028863 442.165522
66.910000 428.263787 432.442099 438.746913 437.630744 441.516334 443.606653
67.030000 428.971462 433.251231 440.178452 438.837284 442.884542 445.088624
67.166364 430.054759 434.147579 441.369557 439.969221 444.009546 446.609886
67.302727 430.944614 434.987202 442.334640 440.990712 445.064815 447.636902
67.439091 432.191714 436.068293 443.205173 441.963821 446.150011 448.871613
67.575455 433.399131 436.894919 444.133562 442.885091 447.148908 449.816845
67.711818 434.149864 437.722174 444.989773 443.741597 448.093861 450.840576
67.848182 435.150125 438.506494 445.797164 444.617517 449.037581 451.827697
67.984545 436.031082 439.359231 446.545007 445.447776 449.882888 452.430688
68.120909 436.897679 440.056500 447.342576 446.250972 450.824486 453.042674
68.257273 437.766290 440.866875 448.126252 447.059195 451.499412 453.814542
68.393636 438.404008 441.497579 448.947986 447.873991 452.492646 454.634000
68.530000 439.410935 442.296401 449.842982 448.686938 453.383191 455.449237
68.630000 439.918712 442.833588 450.458484 449.259453 453.947542 456.015500
68.730000 440.785421 443.428378 450.949841 449.859964 454.598039 456.626292
68.830000 441.341639 444.342480 451.552164 450.444238 455.086742 457.236260
68.930000 441.894738 444.944390 452.035528 451.015526 455.620461 457.752891
69.030000 442.352836 445.547742 452.473054 451.567737 456.098822 458.360322
69.130000 442.988935 446.198051 453.060936 452.112773 456.586932 458.800038
69.250000 443.557762 446.992090 453.693358 452.753756 457.141210 459.484984
69.370000 444.225791 447.759095 454.262019 453.363029 457.664417 460.105639
69.490000 444.772358 448.420516 454.838189 453.944203 458.172836 460.574388
69.610000 445.501528 449.148971 455.419215 454.534352 458.797656 461.046968
69.730000 445.924894 449.779901 456.018346 455.100268 459.323127 461.647828
69.869565 446.784765 450.838048 456.687294 455.749956 459.863490 462.173318
70.009130 447.681158 451.395226 457.284889 456.390825 460.442731 462.825152
70.148696 448.358837 452.128963 457.843195 457.007840 461.051205 463.460059
70.288261 449.102811 452.903005 458.477567 457.665294 461.667005 464.088964
70.427826 450.001171 453.608833 459.033866 458.288662 462.241909 464.624734
70.567391 450.774610 454.500444 459.523842 458.906038 462.871054 465.275945
70.706957 451.541519 455.240408 460.059283 459.508701 463.412612 465.908169
70.846522 452.187490 455.905528 460.698592 460.124745 464.045463 466.396403
70.986087 452.831259 456.530381 461.272165 460.739237 464.589672 466.959983
71.125652 453.592765 457.274684 461.775364 461.333033 465.208204 467.438337
71.265217 454.568892 457.797091 462.292637 461.939581 465.776917 468.112384
71.404783 455.368628 458.564013 462.851889 462.561712 466.391261 468.810483
71.544348 456.151736 459.195753 463.494752 463.177409 466.961548 469.366780
71.683913 456.726943 459.887656 464.008442 463.800559 467.596241 469.968165
71.823478 457.324668 460.580390 464.627941 464.437948 468.341901 470.585300
71.963043 458.076276 461.189879 465.204124 465.073285 469.009753 471.184564
72.102609 458.614588 461.965823 465.799168 465.686605 469.559144 471.675501
72.242174 459.246849 462.555713 466.436822 466.313767 470.218229 472.374112
72.381739 460.067326 463.094715 467.033059 466.959996 470.875687 473.158074
72.521304 460.842256 463.541306 467.604717 467.605710 471.512040 473.749194
72.660870 461.512603 464.270404 468.297942 468.274736 472.258816 474.386118
72.800435 462.426297 465.024549 468.928463 468.955258 472.832254 474.972159
72.940000 463.171852 465.825714 469.679523 469.687329 473.609953 475.685353
73.068571 463.781327 466.401159 470.401675 470.351124 474.256373 476.347066
73.197143 464.357021 467.268636 471.225679 471.041191 474.877939 477.010719
73.325714 464.908113 467.835965 471.989676 471.756647 475.623884 477.605468
73.454286 465.659337 468.528632 472.886628 472.505413 476.356239 478.413086
73.582857 466.363459 469.192281 473.732062 473.251969 476.936176 478.998624
73.711429 466.841141 470.100850 474.500327 474.030925 477.647983 479.766363
73.840000 467.519198 471.056044 475.335566 474.859800 478.414582 480.523260
73.960000 468.079063 471.902074 476.153778 475.674836 479.219393 481.229889
74.080000 468.767627 472.879996 477.013881 476.541137 480.064951 481.969940
74.200000 469.595550 473.819686 477.936555 477.478518 480.906818 482.843404
74.320000 470.240845 474.956880 478.975397 478.427932 481.783011 483.676190
74.440000 471.123561 476.065622 479.994245 479.443256 482.742283 484.916293
74.540000 471.621776 476.919353 480.983567 480.316260 483.477720 485.824918
74.640000 472.877997 477.892725 481.981914 481.265571 484.275493 486.887367
74.775000 474.273531 479.594552 483.299447 482.818511 485.837567 488.487853
74.910000 476.622240 481.316284 484.822044 484.453160 487.308762 490.455199
75.045000 478.667242 483.173762 486.561804 486.194951 488.871695 492.566294
75.180000 481.339764 485.400559 488.103889 487.999507 490.619870 494.581431
75.315000 484.125805 487.216147 489.678966 489.834489 492.572976 496.474674
75.450000 487.185040 489.282604 491.388302 491.792761 494.472515 498.564290
75.530000 488.756730 490.708035 492.487352 493.005810 495.677502 499.432991
75.630000 490.577319 492.402493 494.287853 494.825848 497.632715 500.976586
75.730000 492.441328 494.296405 496.665033 496.954586 499.878313 502.709618
75.830000 494.069510 496.192193 499.006008 499.116082 502.154190 504.699096
75.930000 495.880630 497.992251 501.206866 501.174525 504.099810 507.030159
76.040000 497.674188 500.193881 503.356696 503.358087 506.403587 509.636269
76.150000 499.545032 502.222579 505.519271 505.472382 508.462754 511.729655
76.250000 501.152188 503.807664 507.096849 507.183316 510.531801 513.652028
76.350000 502.511793 505.385060 508.663557 508.838257 512.301698 515.531455
76.450000 504.129903 506.915852 510.332889 510.426544 514.093752 517.070988
76.540000 505.754217 508.390955 511.899260 511.942460 515.631953 518.209986
76.630000 507.061570 509.782839 513.700932 513.442715 516.945115 519.388033
76.730000 508.763733 511.444207 515.200074 515.017224 518.361773 520.646685
76.830000 510.398260 513.013439 516.734754 516.489022 519.565041 521.882427
76.930000 511.837844 514.708215 518.142170 517.909507 520.747627 523.429081
77.030000 513.439651 516.669808 519.545932 519.343708 521.890391 524.636569
77.130000 515.788747 518.410719 520.986229 520.855270 523.189613 525.834652
77.230000 517.737935 520.111745 522.308210 522.329785 524.465607 526.976135
77.330000 519.741115 521.748396 523.786381 523.822290 525.836844 528.225146
77.430000 521.320742 523.384253 525.249401 525.248994 527.103812 529.424181
77.530000 522.742426 524.638602 526.621884 526.671222 528.745414 530.836809
77.630000 523.919827 526.038458 527.981379 528.022509 530.053595 531.932248
77.730000 525.440027 527.396691 529.328541 529.386316 531.443358 533.064170
77.830000 527.059758 528.699392 530.734065 530.651257 532.613392 534.171935
77.930000 528.187704 530.017678 531.940620 531.864299 533.719298 535.107670
78.030000 529.403903 531.148022 533.072571 532.921825 534.581950 536.097731
78.130000 530.775977 532.417188 534.061338 533.988457 535.493427 537.042749
78.243333 532.037859 533.599160 535.107501 535.085508 536.619982 538.019837
78.356667 533.373513 534.596185 536.062268 536.087081 537.628417 538.739849
