depth(m) lower_95(kyr) lower_68(kyr) median(kyr) mean(kyr) upper_68(kyr) upper_95(kyr)
8.895000 294.305518 295.547008 296.630589 296.704569 297.957115 299.339548
8.905000 294.619675 295.888868 296.903902 296.986793 298.245071 299.527134
8.915000 294.850574 296.236052 297.159283 297.280000 298.582712 299.836988
8.925000 295.148299 296.504633 297.448852 297.559319 298.866811 300.077824
8.935000 295.388583 296.800578 297.736279 297.843433 299.154223 300.316488
8.945000 295.686767 297.111352 298.014438 298.139158 299.423355 300.520814
8.955000 296.080985 297.436551 298.285863 298.444353 299.701890 300.796708
8.965000 296.426829 297.764647 298.584777 298.747078 299.990938 301.097571
8.975000 296.850550 298.083633 298.870447 299.059370 300.335019 301.327984
8.985000 297.248258 298.380071 299.144454 299.369422 300.675121 301.626028
8.995000 297.542019 298.632280 299.407970 299.664050 300.960939 301.896814
9.005000 297.874302 298.924833 299.663719 299.953716 301.255034 302.119711
9.015000 298.145871 299.211245 299.934046 300.243927 301.623745 302.389582
9.025000 298.499494 299.467429 300.217238 300.538375 301.937422 302.597922
9.035000 298.752829 299.746717 300.556512 300.829500 302.192931 302.854326
9.045000 299.165054 300.001570 300.905292 301.117275 302.471834 303.180679
9.055000 299.532342 300.255986 301.166634 301.402271 302.740452 303.376462
9.065000 299.881100 300.525572 301.545379 301.682564 302.985834 303.655284
9.075000 300.182939 300.772388 301.918027 301.956346 303.214156 303.963607
9.085000 300.441491 301.003902 302.232726 302.222612 303.459781 304.202549
9.095000 300.796216 301.231746 302.530338 302.490422 303.690057 304.404416
9.105000 300.960819 301.445599 302.816990 302.744660 303.916269 304.636042
9.115000 301.184264 301.682804 303.139340 302.988269 304.125353 304.909232
9.125000 301.448764 301.912485 303.421679 303.233087 304.343866 305.148049
9.135000 301.735761 302.129979 303.685110 303.483626 304.560589 305.342113
9.145000 301.973813 302.386781 303.911085 303.728692 304.747512 305.588065
9.155000 302.184702 302.627633 304.162360 303.969120 304.961427 305.908440
9.165000 302.382083 302.891537 304.399991 304.202146 305.167111 306.235417
9.175000 302.572270 303.142276 304.673502 304.431657 305.375035 306.406728
9.185000 302.756123 303.435251 304.925172 304.674491 305.592215 306.545422
9.195000 302.912722 303.782653 305.167534 304.918289 305.821743 306.733642
9.205000 303.120764 304.058850 305.415542 305.160777 306.035686 306.950743
9.215000 303.342483 304.318459 305.648830 305.416928 306.282400 307.183073
9.225000 303.544936 304.615806 305.866819 305.678071 306.561432 307.383722
9.235000 303.792771 304.974173 306.113334 305.955285 306.856896 307.635186
9.245000 304.063546 305.310782 306.375531 306.242190 307.115016 307.919131
9.255000 304.298869 305.632926 306.667077 306.552508 307.442364 308.197936
9.265000 304.652138 305.947604 306.958439 306.877836 307.790972 308.489499
9.275000 305.008761 306.340066 307.278763 307.203077 308.107298 308.774753
9.285000 305.286784 306.627887 307.645349 307.544598 308.457184 309.075107
9.295000 305.560651 306.936051 307.970676 307.872872 308.786336 309.565465
9.305000 305.969130 307.221609 308.309032 308.199046 309.087139 309.924545
9.315000 306.260754 307.532341 308.624767 308.512613 309.438972 310.273678
9.325000 306.533605 307.797724 308.924876 308.831206 309.800869 310.609299
9.335000 307.142071 308.066734 309.189279 309.143573 310.180273 311.117015
9.345000 307.436561 308.344860 309.422469 309.448544 310.546354 311.511433
9.355000 307.656936 308.615617 309.686991 309.754653 310.945519 312.048885
9.365000 307.941034 308.886529 309.968165 310.075444 311.387457 312.434588
9.375000 308.238254 309.180397 310.265449 310.418694 311.780803 312.927882
9.385000 308.472747 309.476626 310.569201 310.766166 312.240037 313.406281
9.395000 308.711142 309.830025 310.865748 311.112343 312.608512 313.739153
9.405000 308.997353 310.183955 311.183717 311.468268 313.036934 314.148686
9.415000 309.321384 310.517078 311.552451 311.820486 313.443773 314.428932
9.425000 309.559521 310.836704 311.953519 312.167689 313.831186 314.711515
9.435000 309.832919 311.155344 312.299813 312.502353 314.161258 314.990511
9.445000 310.179737 311.456222 312.635351 312.835911 314.554770 315.218580
9.455000 310.501597 311.814464 313.013328 313.169979 314.859674 315.490258
9.465000 310.809702 312.101204 313.329599 313.482941 315.133044 315.700697
9.475000 311.228184 312.461988 313.669303 313.808395 315.397273 315.895595
9.485000 311.604165 312.816857 314.010520 314.123593 315.649571 316.147188
9.495000 311.931940 313.099973 314.416786 314.441350 315.934348 316.347465
9.505000 312.378470 313.405834 314.713063 314.757985 316.195612 316.544286
9.515000 312.836323 313.803331 315.087486 315.074069 316.427863 316.751934
9.525000 313.309850 314.155593 315.427390 315.391287 316.662303 316.971629
9.535000 313.706849 314.477834 315.748658 315.696101 316.867075 317.191081
9.545000 313.998193 314.790051 316.141811 315.993773 317.094365 317.451653
9.555000 314.330585 315.126720 316.500380 316.288511 317.300883 317.749069
9.565000 314.644569 315.427946 316.846069 316.577051 317.528353 318.054419
9.575000 315.015923 315.746500 317.133428 316.866341 317.747905 318.340034
9.585000 315.294173 316.116018 317.446028 317.156917 317.961351 318.702149
9.595000 315.751690 316.407797 317.731543 317.447451 318.216899 318.933574
9.605000 316.002447 316.706389 317.997942 317.736824 318.463904 319.290640
9.615000 316.321852 317.022568 318.234220 318.020472 318.730588 319.596934
9.625000 316.630520 317.360191 318.476795 318.309842 318.989450 319.796103
9.635000 316.909415 317.702278 318.702890 318.578407 319.250936 320.057115
9.645000 317.200957 318.013275 318.959859 318.850889 319.522342 320.290740
9.655000 317.548268 318.327606 319.197307 319.126491 319.825703 320.511865
9.665000 317.871466 318.650612 319.463773 319.407466 320.074840 320.722811
9.675000 318.194126 318.983421 319.697996 319.669820 320.329469 320.925632
9.685000 318.511242 319.326051 319.986631 319.956042 320.617596 321.178737
9.695000 318.828960 319.675561 320.264681 320.253264 320.895713 321.398843
9.705000 319.262113 320.002330 320.602590 320.572312 321.181513 321.628814
9.715000 319.654320 320.348195 320.925756 320.913166 321.488743 321.919605
9.725000 320.079371 320.755960 321.330322 321.295476 321.847835 322.276104
9.735000 320.544865 321.199375 321.734006 321.707709 322.227398 322.664114
9.745000 321.020066 321.621234 322.160238 322.140846 322.637435 323.169856
9.755000 321.576456 322.088126 322.605852 322.601492 323.112536 323.603827
9.765000 322.121777 322.601468 323.061505 323.066691 323.567008 323.968248
9.775000 322.557899 322.995656 323.501766 323.483695 323.939007 324.336561
9.785000 322.997785 323.393457 323.853566 323.839888 324.265922 324.678341
9.795000 323.304527 323.740692 324.191189 324.164615 324.580935 324.966260
9.805000 323.611710 324.054229 324.453487 324.443883 324.852004 325.189443
9.815000 323.922528 324.341115 324.699352 324.702041 325.102115 325.382520
9.825000 324.214174 324.583920 324.920763 324.935845 325.338762 325.619101
9.835000 324.467064 324.799635 325.133080 325.155697 325.548212 325.846713
9.845000 324.700582 325.007043 325.355651 325.369276 325.754183 326.080622
9.855000 324.942300 325.219116 325.565266 325.585083 325.948176 326.296603
9.865000 325.190266 325.424636 325.808235 325.808926 326.170955 326.472169
9.875000 325.396418 325.646220 326.025690 326.020743 326.374740 326.671366
9.885000 325.589819 325.874716 326.242622 326.236104 326.591111 326.861900
9.895000 325.792124 326.084856 326.463975 326.445515 326.785839 327.060547
9.905000 326.016254 326.292001 326.672853 326.657007 326.973199 327.275313
9.915000 326.235092 326.531169 326.886774 326.871865 327.193267 327.485154
9.925000 326.439443 326.766365 327.090333 327.086395 327.398849 327.687100
9.935000 326.671516 327.000914 327.301469 327.301126 327.597566 327.885961
9.945000 326.933606 327.216507 327.518900 327.514988 327.809470 328.106271
9.955000 327.141971 327.430288 327.726633 327.729136 328.025806 328.378639
9.965000 327.381724 327.649243 327.939359 327.952339 328.240334 328.632771
9.975000 327.554501 327.866794 328.161153 328.171221 328.453628 328.878188
9.985000 327.799047 328.082605 328.375670 328.397780 328.705246 329.178288
9.995000 328.004933 328.294663 328.584634 328.614789 328.943151 329.390664
10.005000 328.236663 328.511805 328.799852 328.841678 329.179665 329.697323
10.015000 328.449613 328.726079 329.034923 329.074660 329.435274 329.946314
10.025000 328.664061 328.945631 329.263584 329.315203 329.681050 330.222816
10.035000 328.897108 329.185681 329.512934 329.568924 329.968056 330.525851
10.045000 329.114089 329.402965 329.795769 329.839175 330.254965 330.827863
10.055000 329.354376 329.654639 330.075656 330.126385 330.603339 331.188343
10.065000 329.589389 329.921493 330.369442 330.419303 330.922447 331.482325
10.075000 329.832632 330.197063 330.683783 330.732897 331.274556 331.817696
10.085000 330.069646 330.485488 331.013640 331.050678 331.623931 332.130850
10.095000 330.331512 330.810752 331.343711 331.368316 331.929335 332.509777
10.105000 330.659304 331.146358 331.708706 331.719533 332.269884 332.792883
10.115000 330.964980 331.532333 332.103427 332.094730 332.660125 333.162169
10.125000 331.352063 331.938555 332.499827 332.478180 333.025628 333.501881
10.135000 331.796088 332.328993 332.870554 332.873231 333.438958 333.864708
10.145000 332.229475 332.700529 333.226070 333.231099 333.772825 334.192756
10.155000 332.559126 333.019795 333.570863 333.564628 334.106071 334.494277
10.165000 332.910567 333.397676 333.940402 333.917047 334.419903 334.791308
10.175000 333.262102 333.786335 334.295818 334.266314 334.744646 335.057064
10.185000 333.700854 334.126075 334.657106 334.609087 335.046823 335.355158
10.195000 334.091383 334.528717 334.975961 334.949714 335.347551 335.751199
10.205000 334.417596 334.845613 335.264450 335.249683 335.612985 336.150476
10.215000 334.764756 335.146870 335.506265 335.516940 335.871659 336.396334
10.225000 335.037597 335.418715 335.754709 335.782944 336.134130 336.668084
10.235000 335.297783 335.667453 336.021878 336.047403 336.417501 336.958577
10.245000 335.570422 335.928300 336.262947 336.312572 336.707633 337.286315
10.255000 335.779737 336.158252 336.512977 336.561816 336.972133 337.586206
10.265000 336.008355 336.361977 336.738069 336.791977 337.217766 337.860682
10.275000 336.244276 336.564567 336.964351 337.014493 337.463597 338.147253
10.315000 336.825363 337.265193 337.695650 337.742663 338.269506 338.823376
10.355000 337.465382 337.963249 338.434401 338.482192 339.045135 339.582081
10.395000 338.222533 338.737042 339.327828 339.358857 340.014017 340.692895
10.435000 338.963421 339.529341 340.246663 340.298691 341.053907 342.021240
10.475000 339.705907 340.321465 341.077511 341.132055 341.986899 342.759249
10.515000 340.436845 341.140239 341.935781 341.926943 342.713610 343.426429
10.555000 341.087005 341.875665 342.686894 342.678576 343.484860 344.124871
10.595000 341.869341 342.688257 343.486231 343.469697 344.224653 345.036170
10.635000 342.701901 343.471084 344.210309 344.259571 345.057330 346.040731
10.675000 343.475122 344.198372 344.927496 345.006305 345.838567 347.061571
10.715000 344.063631 344.821225 345.596844 345.701024 346.627677 347.908966
10.755000 344.619683 345.375065 346.226407 346.380197 347.456688 348.727802
10.795000 345.123333 345.913379 346.836808 347.052605 348.383891 349.733421
10.835000 345.641333 346.450604 347.565723 347.727700 349.130529 350.476477
10.875000 346.171502 347.044761 348.254628 348.406855 349.842207 351.233578
10.915000 346.762995 347.615141 349.013235 349.075082 350.510469 351.866128
10.955000 347.347257 348.267536 349.743516 349.770638 351.138184 352.481752
10.995000 347.954626 348.960539 350.452608 350.435745 351.769138 353.144588
11.035000 348.522369 349.640326 351.108882 351.087712 352.432572 353.736222
11.075000 349.219079 350.321964 351.783959 351.740024 353.049808 354.428753
11.115000 349.791285 351.013000 352.416949 352.395454 353.684091 355.209461
11.155000 350.433861 351.640295 353.088440 353.096749 354.517889 356.033482
11.205000 351.241888 352.445748 353.919970 353.979949 355.492745 357.254730
11.245000 351.942814 353.159335 354.673183 354.781391 356.420434 358.211552
11.285000 352.578834 354.034395 355.681490 355.772464 357.606675 359.092266
11.325000 353.413569 354.948730 356.743485 356.783492 358.605549 360.055201
11.365000 354.327628 355.900791 357.966086 357.848832 359.723887 360.901990
11.405000 355.345702 357.219610 359.247231 359.081987 360.799340 362.089308
11.445000 356.785491 358.716349 360.554645 360.424050 362.044001 363.542207
11.485000 358.305169 360.158800 361.817363 361.748820 363.304578 364.797037
11.525000 359.767929 361.469419 362.970013 362.970642 364.481881 366.028851
11.565000 361.112917 362.650510 364.170579 364.164352 365.742388 367.334483
11.605000 362.124093 363.567634 365.143862 365.220899 366.840108 368.597707
11.645000 363.060626 364.505151 366.167111 366.252206 368.012739 369.670670
11.685000 364.166682 365.479116 367.145136 367.247261 369.025994 370.732562
11.725000 365.120344 366.471169 368.189305 368.258669 370.054329 371.749695
11.765000 365.975122 367.421354 369.284214 369.238685 371.018259 372.553775
11.805000 366.993975 368.383720 370.244918 370.221973 372.047940 373.485771
11.845000 367.977715 369.415032 371.249994 371.191214 372.893690 374.267513
11.885000 369.008458 370.540057 372.286065 372.169832 373.726544 375.136883
11.925000 370.092106 371.716560 373.218416 373.197000 374.658586 376.113166
11.965000 371.238188 373.002551 374.284602 374.321557 375.714642 377.344963
12.005000 372.707313 374.200001 375.611006 375.626598 377.006786 378.880174
12.045000 374.160976 375.554874 376.808456 377.035001 378.520142 380.974587
12.085000 375.443268 376.645279 378.190664 378.385704 380.381400 382.544861
12.125000 376.651354 377.806488 379.420566 379.750628 382.053573 384.097889
12.165000 377.660166 378.990935 380.793929 381.163099 383.760825 385.712421
12.205000 378.591577 380.041688 382.191059 382.439213 385.024548 386.788219
12.245000 379.622437 381.172987 383.483678 383.615354 386.191222 388.082394
12.285000 380.617237 382.351255 384.722449 384.779673 387.287825 389.085444
12.325000 381.615945 383.566727 385.919609 385.910553 388.341757 390.033386
12.365000 382.583868 384.764284 387.110677 387.051669 389.391387 390.756027
12.405000 383.787040 385.890433 388.322932 388.171278 390.312237 391.477382
12.445000 384.840990 387.132685 389.550728 389.243510 391.151974 392.137049
12.485000 386.229936 388.447656 390.697540 390.306864 391.937325 392.803156
12.525000 387.505390 389.795311 391.651388 391.311443 392.720119 393.496241
12.565000 388.839016 391.089469 392.521775 392.271290 393.390882 394.161059
12.605000 390.431992 392.106344 393.268745 393.115539 394.071513 394.867415
12.645000 391.879239 393.069506 394.034794 393.974708 394.842545 395.750062
12.685000 392.865343 394.020574 394.800241 394.788020 395.590614 396.487542
12.725000 393.894193 394.811100 395.598713 395.604270 396.479655 397.239613
12.765000 394.894442 395.672551 396.526621 396.530609 397.405374 398.187684
12.805000 395.630866 396.432236 397.254714 397.245759 398.099319 398.787335
12.845000 396.381990 397.180043 397.979457 397.968241 398.759335 399.490089
12.885000 397.003077 397.752266 398.564841 398.549043 399.362423 400.103268
12.925000 397.481066 398.219853 399.093316 399.070866 399.902454 400.687083
12.965000 397.973331 398.720537 399.553289 399.542504 400.362571 401.205591
13.005000 398.432254 399.194949 399.995299 400.011328 400.792137 401.627675
13.045000 398.886026 399.675205 400.461304 400.492665 401.314176 402.247728
13.085000 399.347628 400.165090 400.929299 400.966518 401.786293 402.728351
13.125000 399.976411 400.705959 401.447914 401.488440 402.289278 403.281030
13.165000 400.488380 401.321381 402.062710 402.095542 402.902722 403.814198
13.205000 401.031663 401.890062 402.608816 402.677457 403.533843 404.414442
13.245000 401.703401 402.432184 403.175408 403.234122 404.068473 404.946460
13.285000 402.191254 402.924958 403.701646 403.723245 404.548517 405.447872
13.325000 402.717231 403.392990 404.184254 404.187573 404.987457 405.886674
13.365000 403.160773 403.795975 404.640726 404.614213 405.406175 406.261050
13.405000 403.470537 404.178809 405.069880 405.032086 405.864556 406.672475
13.445000 403.866746 404.599868 405.475343 405.450084 406.286557 407.074267
13.485000 404.248486 405.004214 405.897718 405.868560 406.709436 407.392396
13.525000 404.705976 405.428238 406.327788 406.292400 407.141606 407.852464
13.565000 405.095547 405.864068 406.762913 406.707392 407.518864 408.223363
13.605000 405.464534 406.247494 407.181956 407.122430 407.929725 408.593706
13.645000 405.839346 406.678559 407.623662 407.552707 408.359910 408.995651
13.685000 406.278477 407.145881 408.057472 407.986265 408.793400 409.378010
13.725000 406.632075 407.611223 408.525813 408.442869 409.259862 409.841444
13.765000 407.107854 408.086327 408.970389 408.913026 409.710315 410.306175
13.805000 407.605007 408.680833 409.432243 409.419295 410.231511 410.831990
13.845000 408.183274 409.232488 409.980477 409.952848 410.716080 411.477377
13.885000 408.777033 409.769815 410.546792 410.542049 411.334042 412.186647
13.925000 409.549196 410.368027 411.158107 411.199222 412.043739 412.964098
13.965000 410.241145 410.989455 411.852204 411.879161 412.786353 413.800905
14.005000 410.818563 411.620634 412.566254 412.613454 413.641447 414.749115
14.045000 411.410084 412.305738 413.382193 413.441928 414.609822 415.928018
14.085000 411.897195 412.824778 413.971928 414.055301 415.240779 416.657005
14.125000 412.435208 413.363799 414.586070 414.646152 415.878899 417.294521
14.165000 413.016877 414.026453 415.309871 415.303450 416.532922 417.923662
14.205000 413.681019 414.573288 415.844233 415.883994 417.185997 418.448155
14.245000 414.198405 415.138940 416.499155 416.512161 417.789118 419.149612
14.285000 414.857615 415.824806 417.212057 417.212795 418.517114 419.706825
14.325000 415.495115 416.572464 417.996070 417.972314 419.342755 420.492470
14.365000 416.283068 417.540370 418.793362 418.796188 420.075147 421.273538
14.405000 417.079514 418.463324 419.697562 419.668402 420.907723 422.086667
14.445000 418.003841 419.292652 420.562489 420.548969 421.768368 422.969733
14.485000 418.907665 420.133335 421.396104 421.344560 422.594401 423.746344
14.525000 419.908256 421.037968 422.203572 422.220126 423.431258 424.583510
14.565000 420.624357 421.993043 423.176311 423.169245 424.348023 425.431689
14.605000 421.952745 423.236488 424.331789 424.330600 425.550711 426.591532
14.645000 423.160143 424.391695 425.595781 425.543171 426.652158 427.614919
14.685000 424.700340 425.901543 426.955265 426.886597 427.849804 428.580016
14.725000 426.112633 427.253956 428.158081 428.136289 429.057577 429.857741
14.765000 427.325023 428.219720 429.084841 429.051197 429.915990 430.717464
14.805000 428.181184 428.990817 429.813928 429.811709 430.636244 431.417865
14.845000 428.928961 429.762896 430.525896 430.552924 431.373325 432.325598
14.885000 429.492755 430.387265 431.163871 431.206349 432.042200 433.122131
14.925000 430.085152 430.998800 431.770848 431.815377 432.637094 433.861865
14.965000 430.820402 431.610132 432.385929 432.460915 433.264874 434.413561
15.005000 431.508189 432.262400 433.021459 433.099830 433.942742 435.102448
15.045000 432.119485 432.872311 433.675671 433.749643 434.699389 435.857110
15.085000 432.695521 433.462338 434.312587 434.399241 435.407462 436.463536
15.125000 433.337194 434.079868 434.976243 435.072240 436.142714 437.208247
15.165000 433.946821 434.692906 435.689895 435.768780 436.892053 438.020770
15.205000 434.668276 435.408742 436.541501 436.603946 437.791273 438.762454
15.245000 435.360038 436.294594 437.539879 437.532437 438.746746 439.713277
