depth(m) lower_95(kyr) lower_68(kyr) median(kyr) mean(kyr) upper_68(kyr) upper_95(kyr)
13.000000 302.630798 304.302834 305.924828 305.700070 306.984147 307.985431
13.020000 303.486649 305.053069 306.528846 306.335463 307.538024 308.448437
13.040000 304.192563 305.866747 307.081702 306.973753 308.052630 309.006666
13.060000 304.948642 306.532791 307.704331 307.619346 308.669880 309.819020
13.080000 305.877957 307.268897 308.289071 308.288237 309.283125 310.686878
13.100000 306.698282 307.830472 308.919217 308.920295 309.891486 311.493418
13.120000 307.529415 308.500937 309.484733 309.564235 310.563893 312.426232
13.140000 308.071791 309.051612 310.100823 310.198807 311.348328 313.103994
13.160000 308.700965 309.570362 310.726802 310.863217 312.181102 313.937470
13.180000 309.218926 310.110186 311.308062 311.461184 312.843575 314.588300
13.200000 309.758024 310.640596 311.863931 312.062473 313.551484 315.169046
13.220000 310.278740 311.213139 312.478220 312.670733 314.273863 315.805588
13.240000 310.855860 311.886853 313.072557 313.322859 314.990087 316.334019
13.260000 311.419193 312.551812 313.757369 313.963491 315.578174 316.984294
13.280000 312.059915 313.149031 314.379075 314.572003 316.176263 317.559182
13.300000 312.656971 313.731639 315.062746 315.204286 316.824277 318.250942
13.320000 313.191643 314.414968 315.726007 315.865764 317.442439 318.826992
13.340000 313.975819 315.134217 316.487107 316.547342 318.058531 319.220772
13.360000 314.756348 315.930715 317.287631 317.315691 318.758622 319.935765
13.380000 315.555551 316.785903 318.168770 318.157590 319.557126 320.555907
13.400000 316.476601 317.848583 319.076344 319.017306 320.263050 321.129120
13.420000 317.432610 318.867249 319.967757 319.901569 321.002868 321.791791
13.440000 318.528947 319.834245 320.866506 320.791057 321.771172 322.507211
13.460000 319.917364 320.993859 321.955040 321.844792 322.640227 323.425769
13.480000 320.982760 321.909295 322.631172 322.602277 323.307506 324.086965
13.500000 321.688851 322.515425 323.183703 323.208797 323.915282 324.705591
13.520000 322.469401 323.095190 323.704402 323.779512 324.522471 325.302810
13.540000 322.913443 323.624816 324.242725 324.308424 325.046826 325.927435
13.560000 323.620470 324.180402 324.793707 324.886770 325.659644 326.687636
13.580000 324.115884 324.684291 325.348437 325.473462 326.262884 327.341462
13.600000 324.679389 325.262052 326.008976 326.140998 327.040195 328.192506
13.620000 325.235411 325.910490 326.787273 326.898808 327.887451 329.207553
13.640000 325.801546 326.492646 327.481382 327.620745 328.826959 330.217773
13.660000 326.454461 327.198422 328.287174 328.436836 329.757285 331.125213
13.680000 327.130923 328.046335 329.237639 329.350701 330.667310 331.909861
13.700000 327.753706 329.028723 330.459585 330.404059 331.775074 332.814825
13.720000 328.759946 330.406050 331.752258 331.609994 332.822233 333.849481
13.740000 330.504549 331.975258 332.925104 332.880704 333.865861 334.682113
13.760000 332.086489 333.052313 333.934939 333.922796 334.809090 335.688780
13.780000 333.039496 333.866871 334.734884 334.744147 335.593012 336.528036
13.800000 333.817495 334.580443 335.460471 335.460656 336.309611 337.161119
13.820000 334.723915 335.473876 336.310512 336.320746 337.196117 337.965653
13.840000 335.394981 336.154504 336.964207 336.996732 337.837022 338.607161
13.860000 335.938293 336.792193 337.588756 337.584453 338.386124 339.083969
13.880000 336.798828 337.577628 338.324514 338.291391 339.022783 339.635303
13.900000 337.520593 338.244759 338.921132 338.905648 339.589882 340.184649
13.920000 338.184972 338.854439 339.502423 339.478657 340.132109 340.697021
13.940000 338.718609 339.322141 339.948654 339.949019 340.572069 341.142478
13.960000 339.167722 339.760958 340.373922 340.373454 340.987896 341.617324
13.980000 339.548089 340.180277 340.764646 340.757760 341.339360 341.951927
14.000000 339.967932 340.527805 341.136027 341.108902 341.694804 342.217055
14.030000 340.446993 341.010550 341.623240 341.594722 342.165281 342.642965
14.050000 340.816288 341.371872 341.918678 341.920840 342.476301 342.946577
14.080000 341.307065 341.833773 342.417994 342.393902 342.926890 343.405475
14.100000 341.662530 342.178346 342.719391 342.720484 343.276243 343.708566
14.130000 342.153545 342.668077 343.205860 343.198442 343.731053 344.202807
14.150000 342.472099 343.009688 343.529885 343.533559 344.073138 344.606614
14.180000 342.924597 343.483104 344.023109 344.040051 344.595461 345.152818
14.200000 343.309605 343.810152 344.365033 344.396995 344.991261 345.666091
14.230000 343.750135 344.293415 344.875943 344.948611 345.592767 346.474119
14.250000 344.076884 344.636682 345.276763 345.349815 346.053161 347.062964
14.280000 344.619821 345.207701 345.919832 346.045870 346.893479 348.128160
14.300000 344.983072 345.683096 346.456058 346.566991 347.465495 348.862007
14.330000 345.680046 346.343421 347.356069 347.446343 348.478347 349.653386
14.350000 346.107978 346.886007 348.018368 348.022328 349.099185 350.122546
14.380000 346.788990 347.679583 348.858036 348.841842 349.931196 350.985312
14.400000 347.161170 348.325166 349.423900 349.384793 350.426800 351.482152
14.430000 347.908228 349.164438 350.216484 350.188181 351.189094 352.274667
14.450000 348.471272 349.686305 350.718027 350.673850 351.634040 352.712397
14.480000 349.124149 350.393501 351.337354 351.338379 352.273648 353.343196
14.500000 349.608941 350.879695 351.768470 351.787033 352.737838 353.942555
14.530000 350.308482 351.543890 352.351914 352.436048 353.441023 354.738807
14.550000 350.872265 351.946199 352.774401 352.886989 354.005112 355.296057
14.580000 351.501473 352.541316 353.390779 353.562917 354.718019 356.178073
14.600000 351.929983 352.989075 353.848639 354.046093 355.253942 356.760906
14.630000 352.485922 353.620164 354.630809 354.809856 356.126715 357.693627
14.650000 353.023529 354.065147 355.230191 355.379680 356.762294 358.451783
14.680000 353.757467 354.792480 356.270240 356.348644 357.923688 359.381577
14.700000 354.251131 355.275004 356.943662 356.974355 358.678011 359.998954
14.730000 354.945286 356.048551 358.152887 357.967454 359.717703 360.980377
14.750000 355.462280 356.587488 358.847184 358.669624 360.434040 361.840450
14.780000 356.241855 357.678582 359.913300 359.725735 361.569700 362.850411
14.800000 356.703714 358.380196 360.514854 360.364512 362.177031 363.472051
14.830000 357.523126 359.415327 361.558302 361.366731 363.085165 364.870347
14.850000 358.150289 360.230396 362.136103 362.002064 363.767935 365.590846
14.880000 359.101521 361.266934 363.063374 363.003246 364.755101 366.745494
14.900000 359.865822 361.925836 363.662549 363.638477 365.392836 367.384919
14.930000 360.875233 362.806555 364.579032 364.617032 366.490992 368.410479
14.950000 361.406587 363.375062 365.255179 365.256853 367.338054 369.001510
14.980000 362.306863 364.232871 366.249696 366.217525 368.300707 369.921060
15.000000 363.002639 364.840334 366.925600 366.856426 368.917720 370.557878
15.030000 363.814905 365.699323 367.904300 367.786518 369.880545 371.351827
15.050000 364.173330 366.279069 368.507554 368.388996 370.446489 371.789261
15.080000 365.354427 367.165155 369.433435 369.269120 371.283492 372.553673
15.100000 365.968398 367.905032 370.058715 369.865872 371.836145 373.122017
15.130000 366.973342 368.811345 370.922287 370.733158 372.615702 373.797572
15.150000 367.711314 369.578358 371.533153 371.341346 373.103801 374.339117
15.180000 368.688561 370.553260 372.380584 372.231212 373.891501 375.203451
15.200000 369.595559 371.403600 373.074723 372.958293 374.516234 375.868625
15.230000 370.917683 372.734145 374.230609 374.138728 375.536792 376.804407
15.250000 372.119447 373.721552 375.024293 375.017817 376.318633 377.720603
15.280000 373.554365 375.029227 376.238782 376.277323 377.504757 379.246617
15.300000 374.714708 376.011294 377.207538 377.273698 378.539136 380.170344
15.330000 376.191770 377.172321 378.441827 378.549832 379.866761 381.576095
15.350000 376.952435 377.935027 379.278648 379.363636 380.746675 382.475321
15.380000 378.024475 379.015909 380.465252 380.551138 382.150575 383.807051
15.400000 378.689670 379.855800 381.242696 381.391577 382.997418 385.044874
15.420000 379.428935 380.614494 382.057765 382.228276 383.831017 386.280653
15.440000 380.191375 381.498836 382.955069 383.082305 384.551037 387.208354
15.450000 380.518001 381.959284 383.380612 383.521349 384.983987 387.647259
15.460000 380.981827 382.408766 383.841034 383.980612 385.491605 387.982502
15.480000 381.901681 383.382262 384.904192 384.984207 386.567712 388.688795
15.500000 382.877658 384.339904 385.770338 385.935900 387.592056 389.707961
15.520000 383.884649 385.190253 386.710065 386.868954 388.613042 390.460508
15.550000 384.974912 386.549246 388.205989 388.206644 389.970573 391.311421
15.560000 385.308860 386.956105 388.703615 388.652558 390.419029 391.681141
15.580000 386.083409 387.870607 389.708192 389.588657 391.296981 392.483918
15.600000 386.970266 388.800097 390.625261 390.463882 392.120164 393.057261
15.620000 388.169360 389.748952 391.545899 391.331633 392.860081 393.788911
15.640000 389.422686 390.940262 392.614043 392.380672 393.721106 394.639700
15.650000 389.966558 391.488696 393.087435 392.852545 394.113395 394.935214
15.660000 390.497036 391.948565 393.483223 393.285248 394.424925 395.372649
15.680000 391.826543 393.374148 394.409541 394.294312 395.229512 396.170172
15.700000 393.193762 394.364220 395.215531 395.163294 395.950872 396.772672
15.720000 394.425815 395.257953 396.003226 396.013428 396.803192 397.628351
15.740000 395.158303 395.927381 396.708692 396.709686 397.475812 398.210851
15.750000 395.551360 396.261069 397.052640 397.049556 397.814916 398.533970
15.760000 395.962064 396.643705 397.411157 397.404385 398.149932 398.967133
15.780000 396.535542 397.339253 398.062189 398.071145 398.783989 399.821117
15.800000 397.234212 397.945277 398.669692 398.713604 399.440378 400.533768
15.820000 397.870216 398.574516 399.274620 399.358215 400.172887 401.272201
15.840000 398.352087 399.124815 399.806998 399.944975 400.876085 401.965559
15.850000 398.623919 399.442067 400.105968 400.269366 401.219420 402.295213
15.860000 398.968998 399.709923 400.401186 400.595124 401.614126 402.701920
15.880000 399.601832 400.234239 400.975585 401.208033 402.349120 403.534213
15.900000 400.083608 400.699182 401.524670 401.739484 402.940380 404.156220
15.920000 400.630720 401.147724 402.041403 402.269015 403.536279 404.723547
15.940000 401.015018 401.609918 402.554194 402.775747 404.098794 405.288675
15.950000 401.229244 401.801779 402.797231 403.026240 404.392764 405.519217
15.980000 401.805447 402.421832 403.575766 403.778564 405.292375 406.250876
16.000000 402.158957 402.852110 404.173326 404.280932 405.852403 406.607561
16.020000 402.483148 403.309222 404.767401 404.775743 406.266954 407.011939
16.040000 402.922533 403.762834 405.345255 405.287723 406.783975 407.448602
16.050000 403.187145 404.012456 405.636868 405.535512 407.017063 407.638881
16.060000 403.399443 404.287539 405.940908 405.778605 407.227953 407.770309
16.080000 403.920880 404.811495 406.393170 406.252292 407.575690 408.116925
16.100000 404.420341 405.357111 406.946442 406.729709 407.951981 408.506598
16.120000 404.937553 405.924559 407.410728 407.210152 408.321173 408.846182
16.140000 405.473567 406.464169 407.899588 407.673819 408.689035 409.216026
16.150000 405.662684 406.713905 408.191125 407.911440 408.900163 409.420381
16.160000 405.947055 406.979887 408.436557 408.146985 409.105422 409.600053
16.180000 406.536111 407.516662 408.808138 408.586171 409.478047 410.032489
16.200000 407.149890 408.024105 409.193820 409.033753 409.849556 410.433707
16.220000 407.662301 408.582541 409.594586 409.457859 410.202374 410.751418
16.240000 408.106420 409.124748 410.008333 409.899731 410.651200 411.178862
16.250000 408.403122 409.393846 410.224661 410.132741 410.867339 411.415406
16.260000 408.597017 409.703084 410.448465 410.377024 411.064477 411.650659
16.280000 409.142797 410.182739 410.870468 410.817632 411.515920 412.085989
16.300000 409.582666 410.680866 411.296664 411.268666 411.932073 412.479718
16.320000 410.196238 411.109787 411.711564 411.713409 412.374425 412.940048
16.340000 410.723474 411.568300 412.189555 412.174267 412.842766 413.394708
16.360000 411.375036 412.016429 412.652545 412.632894 413.263725 413.808588
16.380000 411.743563 412.432686 413.122717 413.094115 413.772255 414.271046
16.400000 412.342011 412.935094 413.624835 413.595420 414.256527 414.855296
16.420000 412.739238 413.433570 414.121869 414.118838 414.784498 415.515331
16.440000 413.217460 413.956437 414.677345 414.673415 415.356172 416.152928
16.460000 413.874214 414.491595 415.210644 415.227015 415.899000 416.810136
16.480000 414.391326 415.004241 415.673335 415.740821 416.463674 417.457038
16.500000 414.902535 415.541494 416.185386 416.304745 417.142123 418.095138
16.520000 415.398352 416.067747 416.793940 416.907092 417.787793 418.923277
16.540000 415.871119 416.579481 417.419332 417.545014 418.478615 419.810400
16.560000 416.473182 417.214714 418.122317 418.252854 419.348799 420.820268
16.580000 416.970523 417.877860 418.875683 419.023597 420.213191 421.667617
16.600000 417.634893 418.617870 419.758943 419.868527 421.180834 422.425995
16.620000 418.394614 419.483913 420.686989 420.799336 422.199277 423.450998
16.640000 419.219777 420.455673 421.759618 421.785949 423.141873 424.370555
16.660000 420.281381 421.491035 422.875712 422.861775 424.236447 425.358933
16.680000 421.600809 422.879344 424.147443 424.147289 425.456863 426.450368
16.700000 423.249309 424.519128 425.686204 425.661356 426.799193 427.749366
16.720000 424.865413 426.089984 427.082415 427.052457 428.040494 428.864181
16.740000 426.404666 427.299648 428.148195 428.152732 429.056950 429.772768
16.760000 427.327887 428.189224 429.020845 429.011959 429.825332 430.578319
16.780000 428.319415 429.104312 429.904387 429.922940 430.702897 431.634993
16.800000 429.131090 429.880101 430.617693 430.672385 431.505290 432.375051
16.820000 429.721303 430.491105 431.230040 431.286736 432.130456 433.001885
16.840000 430.235100 431.077965 431.838299 431.885444 432.738865 433.592604
16.860000 430.866345 431.674569 432.405655 432.452453 433.286825 434.117902
16.880000 431.441712 432.146425 432.943548 432.966413 433.757210 434.585362
16.900000 431.944942 432.667549 433.410658 433.447593 434.253886 435.130812
16.920000 432.361457 433.127107 433.875769 433.907228 434.701265 435.623841
16.940000 432.823103 433.582574 434.354555 434.380860 435.187952 436.055821
16.960000 433.288123 434.002000 434.816798 434.841455 435.651182 436.510625
16.980000 433.809290 434.442284 435.308167 435.307343 436.122148 436.994124
17.000000 434.257616 434.924507 435.760360 435.779400 436.647977 437.433279
17.030000 434.825782 435.629998 436.476962 436.493849 437.361875 438.140267
17.050000 435.339694 436.063882 436.976818 436.966321 437.844681 438.614434
17.080000 435.998491 436.848253 437.717120 437.704542 438.548606 439.254001
17.100000 436.475916 437.445276 438.302770 438.263579 439.095509 439.846116
17.130000 437.322702 438.294272 439.189886 439.149882 439.963149 440.952504
17.150000 437.868414 438.863082 439.719313 439.737281 440.567311 441.694024
17.180000 438.986305 439.757853 440.617850 440.662499 441.544744 442.668914
17.200000 439.639654 440.362708 441.224427 441.314879 442.253885 443.497338
17.230000 440.379215 441.241351 442.237164 442.312653 443.402475 444.810478
17.250000 440.969348 441.838141 442.947991 443.014868 444.171906 445.630993
17.280000 441.709019 442.753309 443.950066 444.038683 445.303582 446.722244
17.300000 442.295374 443.353514 444.624367 444.716742 446.054225 447.737134
17.330000 442.985646 444.181292 445.615313 445.671714 447.106634 448.895315
17.350000 443.547981 444.748285 446.241936 446.301243 447.821868 449.671407
17.380000 444.287460 445.691973 447.249395 447.305649 448.950430 450.776920
17.400000 444.781475 446.331134 447.860083 447.951902 449.648421 451.267645
17.430000 445.518138 447.309797 448.853561 448.936837 450.706828 452.205835
17.450000 446.066739 447.889315 449.592332 449.597164 451.419529 452.909992
17.480000 446.927360 448.857908 450.646040 450.584988 452.431010 453.681595
17.500000 447.499325 449.567487 451.360572 451.256971 453.054504 454.330495
17.550000 449.362009 451.325326 452.998915 452.882030 454.436635 455.601585
17.580000 450.419602 452.470277 454.119983 453.924914 455.418038 456.477326
17.600000 450.950445 453.270460 454.836555 454.661365 456.068186 457.048043
17.630000 452.631819 454.540416 455.929264 455.816875 457.061257 458.142147
17.650000 453.353445 455.319740 456.678512 456.532253 457.752771 458.792155
17.680000 454.563321 456.332817 457.558585 457.466596 458.685110 459.756851
17.700000 455.219229 456.925108 458.168815 458.095467 459.300886 460.438311
17.730000 456.376628 457.844638 459.079794 459.024522 460.220399 461.347464
17.750000 456.878630 458.516748 459.666495 459.652782 460.801082 462.091905
17.780000 458.030351 459.438504 460.597543 460.605244 461.813054 463.110608
17.800000 458.759298 460.101348 461.230479 461.293903 462.537743 463.931631
17.830000 459.757248 461.045355 462.196816 462.288217 463.556139 465.361505
17.850000 460.528257 461.817630 462.962140 463.073131 464.373267 466.218781
17.880000 461.736564 462.969192 464.209208 464.368628 465.843128 467.353236
17.900000 462.751179 463.857154 465.230704 465.350896 466.887176 468.499599
17.930000 464.145802 465.260084 466.833731 466.965528 468.618536 470.962512
17.950000 464.936875 466.293894 468.134413 468.196381 469.994460 472.175500
17.980000 466.067909 467.613568 469.513962 469.593075 471.595713 473.830161
18.000000 467.061186 468.541052 470.533926 470.611005 472.751861 474.948368
18.030000 468.061248 469.675390 471.845918 471.968936 474.180788 476.293485
18.050000 469.052927 470.671040 472.756740 472.896902 475.128771 477.086352
18.080000 469.956474 471.997974 474.184593 474.200608 476.480081 478.071143
18.100000 470.759776 472.870041 475.043353 475.045949 477.366201 478.753673
18.130000 472.167023 474.052082 476.376884 476.237009 478.388926 479.804535
18.150000 472.899467 474.935150 477.145222 476.991096 478.987619 480.425459
18.180000 474.040355 476.101960 478.107899 478.031226 479.983599 481.414770
18.200000 474.889189 476.800014 478.816824 478.710293 480.572678 481.906739
18.230000 475.863136 477.828062 479.671152 479.622735 481.397551 482.613675
18.250000 476.682544 478.500778 480.310412 480.224480 482.012028 483.064300
18.280000 477.791250 479.542762 481.223763 481.106147 482.802673 483.695016
18.300000 478.511403 480.051540 481.747283 481.659885 483.281609 484.176006
18.330000 479.348545 480.889004 482.651549 482.457123 483.946126 484.832825
18.350000 479.904584 481.463805 483.137784 482.972045 484.409771 485.242267
18.380000 480.827817 482.252126 483.936029 483.745893 485.115357 485.949723
18.400000 481.441487 482.838187 484.368657 484.242321 485.559968 486.512994
18.430000 482.233878 483.603261 485.100580 484.958496 486.186873 487.353152
18.450000 482.772215 484.144846 485.588987 485.470424 486.661733 487.958216
18.480000 483.495709 484.867435 486.302561 486.203286 487.302619 488.662602
18.500000 484.129518 485.384017 486.757334 486.664071 487.782183 489.165863
18.530000 484.793270 486.046424 487.375754 487.336990 488.445673 489.940177
18.550000 485.229663 486.518748 487.843890 487.787927 488.941209 490.547350
18.580000 485.793513 487.153829 488.475578 488.475158 489.714983 491.395308
18.600000 486.364677 487.700949 488.948889 488.976197 490.217840 492.000184
18.630000 487.108180 488.509411 489.663836 489.752280 491.115685 492.762762
18.650000 487.595227 488.976991 490.122246 490.256406 491.688643 493.375279
18.680000 488.320897 489.621042 490.802940 490.989114 492.570098 494.202116
18.700000 488.872251 490.097272 491.210416 491.471172 493.073430 494.782554
18.730000 489.552331 490.784542 491.917904 492.179614 493.792486 495.480314
