depth(m) lower_95(kyr) lower_68(kyr) median(kyr) mean(kyr) upper_68(kyr) upper_95(kyr)
2.620000 306.240003 309.554328 311.667973 311.660322 314.020285 316.099017
2.645000 308.164778 310.864698 313.186291 313.132861 315.477779 317.464791
2.670000 309.705505 312.118083 314.658010 314.519679 316.909026 319.068048
2.695000 311.504609 313.409231 316.039386 315.960939 318.479178 320.593138
2.720000 312.821023 314.745601 317.438455 317.431338 319.909408 322.512363
2.745000 314.664353 316.458821 319.011436 319.076751 321.337234 324.347292
2.770000 317.225331 319.550157 321.486921 321.664789 323.839781 327.517113
2.795000 321.895267 323.790693 325.590655 325.835839 328.028374 330.725530
2.845000 328.354326 330.356159 332.199130 332.040530 333.751480 335.113122
2.870000 330.591522 332.483899 334.027249 333.941786 335.423630 336.585478
2.895000 333.485013 334.881551 336.147569 336.085625 337.298483 338.378225
2.920000 336.213210 337.432345 338.432235 338.477728 339.568542 340.614971
2.945000 338.645767 339.862588 341.054822 341.089018 342.271039 343.664179
2.970000 340.675565 342.385549 343.600245 343.635497 344.954638 346.646558
2.995000 342.691603 344.901306 346.411779 346.363296 347.905793 349.482197
3.020000 344.555013 346.512794 348.219112 348.215821 349.861154 351.819113
3.045000 345.877656 347.912997 349.898062 349.871861 351.835460 353.672131
3.070000 347.576103 349.285835 351.288969 351.349104 353.475386 355.536152
3.095000 348.971311 350.729174 352.717957 352.820650 354.888141 357.412685
3.120000 350.296206 352.142593 354.138450 354.271134 356.387406 359.047487
3.145000 351.619054 353.510819 355.737397 355.769841 357.980363 360.699514
3.195000 353.725204 356.066089 358.506147 358.596815 360.982472 364.694925
3.220000 355.454941 357.747094 360.194974 360.476742 363.096859 367.588999
3.245000 356.891285 359.783597 362.319351 362.664805 365.744626 369.835261
3.270000 358.875040 362.100279 365.268987 365.383958 368.906635 371.761209
3.295000 361.175304 364.379737 368.557581 368.172160 371.571632 373.935912
3.345000 366.062140 371.119910 374.091700 373.811586 376.397023 380.838868
3.395000 374.051933 376.799377 378.863149 379.529305 383.300153 386.534576
3.420000 376.278143 378.863222 380.933849 381.953014 386.026974 388.614528
3.445000 378.157424 380.540445 382.970811 384.030672 388.397802 390.450648
3.470000 380.038642 382.061970 385.639412 386.142909 390.651846 392.308767
3.495000 381.823128 383.655509 388.530003 388.095436 392.474847 394.195631
3.520000 383.327252 385.191422 391.346981 390.136050 394.463634 396.126650
3.550000 384.929132 386.652146 394.031377 392.246602 395.908815 397.789971
3.570000 385.749368 387.698173 395.295772 393.439000 396.938861 398.777630
3.595000 387.099663 389.031777 396.375888 394.705379 398.038990 399.724183
3.620000 388.351001 390.337879 397.467132 395.892492 399.174574 400.767694
3.645000 389.864188 391.973952 398.507122 397.068173 400.239251 401.729643
3.670000 391.386291 393.615654 399.608001 398.397376 401.438037 403.066076
3.695000 394.623304 397.427551 401.001245 400.408905 402.859799 404.761288
3.720000 396.769295 399.789222 402.777121 402.429486 404.650771 406.798088
3.745000 398.403798 401.434318 404.360918 404.081611 406.574435 408.544743
3.795000 401.607915 405.003592 407.684971 407.458541 409.985306 411.496853
3.820000 403.544981 406.980325 409.390166 409.175996 411.491638 413.009932
3.845000 406.362044 408.882200 411.240262 411.037701 413.197699 414.953306
3.870000 408.749208 410.918831 413.150304 413.028888 415.106625 416.858257
3.895000 412.664334 414.526883 416.170300 416.153133 417.878055 419.224906
3.920000 414.390511 416.112013 417.822306 417.756164 419.472735 420.632404
3.945000 415.672557 417.383771 419.124551 419.098097 420.819927 422.000774
3.970000 417.258646 418.734463 420.413847 420.383042 422.086897 423.233026
3.995000 418.774072 420.135587 421.801515 421.721119 423.285663 424.389219
4.020000 420.296918 421.695830 423.305430 423.177682 424.571380 425.622146
4.045000 421.777736 423.434384 424.938692 424.818604 426.148076 427.346202
4.070000 423.886681 425.272309 426.562541 426.598227 427.900674 429.578119
4.095000 425.512748 426.637792 427.881752 427.972243 429.251052 430.988520
4.120000 427.287285 428.273037 429.605908 429.901436 431.621628 434.228982
4.145000 428.495268 429.701263 431.059381 431.454986 433.508237 436.223964
4.170000 429.763272 431.198455 432.902881 433.195070 435.512879 437.585553
4.195000 431.524079 433.019088 434.948988 435.022821 437.038546 438.729846
4.220000 433.204503 435.080326 436.952473 436.879137 438.591593 440.335187
4.245000 434.858118 436.990030 438.655510 438.553037 440.030018 441.908477
4.270000 436.952101 438.790952 440.355611 440.369194 441.877589 443.724776
4.295000 438.845217 440.307279 441.763889 441.992328 443.732022 446.433668
4.320000 440.237294 441.687029 443.246282 443.567819 445.531045 448.549089
4.345000 441.279370 442.929649 444.649039 445.077241 447.414438 450.369063
4.370000 442.426324 444.216920 446.346127 446.588582 449.083416 451.941715
4.395000 443.654629 445.577037 448.113646 448.211020 450.955404 453.259867
4.420000 445.112487 447.026137 449.945811 449.903614 452.691329 454.974689
4.445000 446.435413 448.601636 451.825901 451.588184 454.340359 456.181772
4.470000 448.113259 450.671412 453.941106 453.501497 455.990061 457.830241
4.495000 449.565346 452.639987 455.973720 455.421233 457.751098 459.500768
4.520000 451.130894 454.672236 457.599462 457.130008 459.345152 461.051632
4.540000 452.772244 456.077557 458.813424 458.455242 460.574369 462.463571
4.565000 454.495291 457.807364 460.420158 460.144873 462.269404 464.287838
4.590000 456.804592 459.838590 462.187043 462.060291 464.233043 466.773064
4.615000 458.825355 461.929283 464.198788 464.260426 466.629625 469.710267
4.640000 461.071555 464.516198 466.810900 467.028756 469.664380 473.348381
4.665000 466.376728 468.644466 470.781155 471.036516 473.563800 476.868775
4.690000 468.757173 471.517481 474.403004 474.300579 476.872770 479.623203
4.715000 471.355587 474.364976 477.762338 477.456377 480.374828 483.386747
4.730000 472.619294 476.021944 479.397776 479.117642 482.038699 484.751569
4.765000 475.727422 478.795852 482.273198 482.119251 485.070789 487.986077
4.790000 477.763293 480.844247 484.263974 484.221030 487.403823 490.772485
4.815000 479.623309 482.807720 486.003371 486.101791 489.390080 493.423760
4.830000 480.836467 484.070070 487.243168 487.360821 490.676144 494.226640
4.890000 484.823569 488.039730 492.123314 491.765825 495.082345 497.715009
4.915000 486.503591 490.222929 493.930049 493.608101 496.667358 499.260664
4.940000 488.144360 492.526886 495.696092 495.348181 498.154630 500.736114
4.965000 489.944388 494.340504 497.242026 496.994269 499.690608 501.983166
4.990000 492.055395 496.152209 498.675106 498.518089 501.121112 503.444102
5.015000 494.135078 497.692296 500.101069 499.985677 502.388388 504.883009
5.050000 497.262575 499.770807 502.064364 502.045812 504.343676 506.786741
5.070000 498.835176 501.158278 503.423221 503.447732 505.592872 508.042348
5.095000 501.492604 503.642482 505.629997 505.706967 507.779731 510.142185
5.120000 503.948957 505.837837 508.003838 508.042942 510.261197 512.748289
5.145000 505.802889 508.146939 510.371852 510.408656 512.710194 514.898299
5.170000 507.122678 510.009854 512.710891 512.527480 515.003900 517.284193
5.195000 508.809629 511.727217 514.618032 514.382937 516.886025 518.974058
5.220000 510.778207 513.550343 516.274935 516.095395 518.435624 520.315321
5.245000 512.953255 515.701809 517.898176 517.810859 520.179500 521.841348
5.270000 515.327079 517.965719 519.807739 519.812463 521.865681 523.468750
5.295000 517.911055 519.639527 521.326046 521.373912 523.275234 524.836855
5.320000 519.959633 521.502709 523.003784 523.024185 524.604602 526.022742
5.345000 521.422117 523.008501 524.630858 524.555446 525.971738 527.507404
5.370000 523.145122 524.617648 526.083812 526.031031 527.340623 528.750744
5.395000 524.406638 526.268438 527.532493 527.516581 528.787092 530.444401
5.420000 525.683920 527.713405 529.039200 529.044437 530.464541 532.033905
5.445000 527.232955 528.975542 530.396878 530.403704 531.880724 533.487133
5.495000 529.998594 531.654858 533.313056 533.356684 535.055738 537.411335
5.520000 531.574643 533.299929 534.960694 535.297088 537.486244 540.233850
5.545000 534.590132 536.282546 539.066135 539.552451 543.242399 546.373125
5.570000 536.998281 539.727409 543.707776 543.684214 547.618272 550.380721
5.595000 539.770978 544.217100 548.318910 548.076316 551.987587 554.275210
5.620000 544.562821 548.816285 552.529799 552.321776 555.801153 558.250215
5.645000 553.186029 555.704540 558.187598 558.021056 560.184472 562.223649
5.670000 557.138342 559.893600 562.219327 562.011003 563.863407 566.284724
5.695000 559.892869 563.118672 565.439307 565.296531 567.284003 569.782860
5.720000 562.783892 566.241596 568.579033 568.802720 571.283952 577.321148
5.745000 565.130012 569.185402 571.862827 572.522222 576.673652 581.033798
5.820000 571.404863 577.706272 582.645078 582.543756 587.671778 590.734807
5.845000 573.969244 579.937572 585.597165 585.276425 590.794302 593.361781
5.870000 577.180657 582.666717 588.451053 587.839516 592.999280 595.603360
5.895000 579.439260 585.168292 591.363281 590.562018 595.159773 597.911674
5.920000 581.853572 587.663275 594.240581 593.043334 597.254262 599.929274
5.945000 584.082634 590.112128 596.962431 595.621084 599.642230 601.985920
5.970000 586.474313 593.789888 599.865423 598.462097 602.368213 605.348575
5.995000 589.460882 597.766293 603.386615 602.568614 607.266681 612.001878
6.015000 592.097950 600.482022 606.714322 606.377065 613.106655 617.126606
6.045000 595.379264 604.749300 614.675759 612.452893 618.592909 620.720331
6.070000 600.877007 613.873797 619.075228 617.491486 621.685097 623.449961
6.095000 607.194941 619.658337 622.790747 621.956444 625.114593 627.151922
6.120000 618.317699 622.689378 625.223799 625.136765 627.847988 630.731638
6.145000 625.389666 627.524396 629.760442 630.016842 632.404858 636.926715
6.170000 628.329328 631.033521 633.995619 634.184636 637.110993 641.137127
6.195000 631.556266 634.579323 637.485416 637.862987 641.116427 645.377495
6.220000 635.085700 637.846043 640.727852 641.239492 644.642943 649.672162
6.245000 638.587655 641.448702 644.271830 644.976842 648.873223 654.015430
6.270000 641.724068 644.564171 648.433190 648.963430 653.539438 658.510805
6.295000 644.995937 648.298884 653.143172 653.290953 658.476567 662.771999
6.320000 648.372211 652.085326 657.236227 657.219220 662.241437 666.148389
6.345000 652.220762 656.203267 661.050502 660.939254 665.605577 669.219907
6.370000 656.056546 660.330924 664.356160 664.298342 668.446189 671.737699
6.395000 659.484591 664.033404 667.775599 667.527838 671.050657 673.857173
6.420000 663.059323 666.874890 670.329812 670.092877 673.150157 675.761205
6.445000 666.098556 669.904312 672.747031 672.536701 675.220008 677.749736
6.465000 668.441887 671.643221 674.123135 674.125994 676.670193 679.131040
6.490000 671.117671 673.539742 675.841373 675.837151 678.218529 680.701582
6.515000 672.555474 675.189671 677.269255 677.351839 679.583809 681.916133
6.540000 674.342021 676.696872 678.600495 678.777474 681.021960 683.143531
6.565000 675.903806 678.034538 679.967711 680.094950 682.365357 684.395205
6.590000 677.394011 679.277516 681.298942 681.386882 683.647684 685.769049
6.615000 678.599650 680.566351 682.679382 682.693049 684.939324 686.857160
6.640000 680.062845 681.866621 684.207377 684.164998 686.382247 688.395257
6.665000 681.449842 683.360987 685.995927 686.037598 688.543784 690.504808
6.690000 682.911139 685.319104 688.405621 688.573122 691.967247 695.141885
