depth(m) lower_95(kyr) lower_68(kyr) median(kyr) mean(kyr) upper_68(kyr) upper_95(kyr)
2.920000 298.446527 302.750227 306.225041 306.209257 309.823359 313.862560
3.020000 307.582594 310.115128 312.909462 313.102923 316.355968 319.012297
3.070000 310.329714 313.057006 316.332905 316.179486 319.180566 321.300602
3.130000 313.414693 316.986450 319.822681 319.723436 322.442157 325.020831
3.170000 316.308185 319.534347 322.012686 322.057358 324.537962 328.196818
3.220000 320.220266 322.404579 324.972202 325.336348 328.480190 331.981358
3.270000 323.010178 325.922149 330.485570 329.975713 333.390714 335.957528
3.320000 333.945851 336.523563 346.589159 344.300038 350.568724 356.984446
3.370000 338.564878 348.459842 356.327821 354.725570 360.474830 363.246023
3.420000 348.580630 355.691991 362.125396 360.687965 364.788353 366.717988
3.470000 355.462044 359.933800 365.203177 364.201578 367.287797 369.164917
3.570000 361.830465 365.748605 369.322303 368.898850 371.573927 374.171952
3.620000 364.398714 368.721223 371.615466 371.337207 373.785955 377.093595
3.670000 368.573049 371.677485 374.071683 374.158813 376.297321 380.710860
3.720000 372.289538 375.082216 377.373657 377.830167 381.124363 385.238247
3.770000 376.865572 378.928077 382.087079 382.426739 386.074515 389.361906
3.820000 380.068664 382.601535 386.062251 386.199595 389.978856 392.416298
3.870000 383.749765 386.150887 389.896792 389.668148 393.160030 395.210842
3.920000 386.848333 389.958397 393.087992 392.790033 395.458217 397.428057
3.970000 391.008916 393.640933 395.854920 395.750425 397.959588 399.706681
4.070000 398.130217 399.983667 401.764674 401.798144 403.559258 406.068373
4.120000 400.988669 402.814830 404.495086 404.566994 406.424338 408.439898
4.170000 403.732844 405.452236 407.178094 407.251891 409.124461 410.721053
4.220000 406.678020 408.574373 410.282637 410.292348 411.998834 414.002584
4.270000 410.719862 412.440869 414.066865 414.082250 415.713469 417.823381
4.320000 414.254490 415.900500 417.572458 417.613628 419.458910 421.186063
4.370000 417.031809 418.552151 420.314072 420.322198 422.075976 423.759636
4.420000 419.576176 421.187474 422.897848 422.881454 424.558695 425.964338
4.500000 423.877174 425.399840 426.945160 426.921614 428.444735 429.806577
4.570000 427.854996 429.389906 430.990539 431.512795 433.558371 437.557267
4.620000 431.023059 432.570443 434.630245 435.156435 437.599252 443.223504
4.670000 435.127284 437.998997 441.415843 442.301514 447.482839 452.550218
4.720000 442.123269 445.539621 451.407729 451.687077 457.814044 462.070624
4.770000 449.650206 454.719171 460.803860 460.819273 466.346781 472.196279
4.820000 463.325918 467.343753 470.644712 471.634158 477.021901 483.017813
4.870000 469.967532 472.722001 476.998834 478.070840 484.286890 490.308161
4.970000 477.924072 480.692419 484.149259 486.233798 494.091511 499.319369
5.020000 482.078838 484.788627 488.583456 490.487394 497.817853 502.217979
5.095000 488.201871 491.329105 496.385192 496.513488 501.856683 505.090455
5.170000 494.672281 498.331386 502.445349 502.084802 505.673486 507.839960
5.220000 498.986445 503.059744 505.707905 505.462778 507.996212 509.598122
5.270000 501.540313 505.558083 507.984892 507.671329 509.914502 511.273921
5.370000 505.730824 508.432067 510.688569 510.463705 512.477596 514.234868
5.470000 508.512137 511.003629 513.098682 512.978631 514.854776 516.574394
5.570000 511.487594 513.678400 515.685699 515.536686 517.284003 518.966700
5.620000 513.236094 515.413787 517.194764 517.142434 518.885145 520.731797
5.670000 515.714515 517.493644 519.104051 519.137481 520.866337 522.501294
5.720000 518.372525 519.971709 521.708948 521.609535 523.231303 524.571417
5.770000 520.339862 522.140146 523.714543 523.597077 525.021912 526.297676
5.820000 522.524808 524.086056 525.357692 525.303587 526.509766 527.535189
5.870000 524.458249 525.748532 526.842198 526.834673 527.931760 529.316000
5.920000 525.990999 527.143792 528.321442 528.343120 529.520150 530.800706
5.970000 527.067998 528.319869 529.515221 529.504111 530.708715 531.995336
6.020000 528.149821 529.310693 530.561100 530.564764 531.816257 532.936375
6.070000 529.238206 530.319809 531.576588 531.601363 532.861364 533.900389
6.120000 530.211707 531.316097 532.567906 532.572560 533.806338 534.814563
6.170000 531.166770 532.335751 533.664143 533.616175 534.851438 536.070992
6.220000 532.199146 533.387218 534.753994 534.819301 536.100074 538.372450
6.270000 533.048228 534.226825 535.616684 535.793199 537.228026 540.142819
6.320000 533.797777 535.157737 536.566882 536.881194 538.631171 541.892055
6.370000 534.712762 536.002956 537.594852 538.050118 540.195917 543.530612
6.470000 536.238269 537.952439 540.230660 540.879392 544.406321 547.053513
6.520000 537.188144 539.267962 542.243437 542.679236 546.450398 549.273807
6.570000 538.473704 541.176753 544.437103 544.704794 548.354635 552.099579
6.670000 544.756553 549.861078 553.509596 553.362113 556.974897 560.410638
6.720000 556.296630 558.813003 561.148615 561.256016 563.525976 567.610916
6.770000 561.642129 564.712252 567.039727 567.103470 569.196691 573.849762
6.820000 569.049020 571.604351 575.179625 575.067931 578.384179 580.929712
6.870000 578.076355 581.035595 582.992793 583.243595 585.555650 589.666388
6.920000 583.416420 585.907780 587.982771 588.424279 590.745629 596.025884
7.020000 592.303778 596.331629 600.025068 599.861497 603.370596 607.073482
7.070000 603.276073 607.318595 609.719919 609.692515 612.427042 614.991063
7.170000 616.524211 618.433012 620.006285 620.015050 621.754641 623.587675
7.220000 620.857961 622.422884 624.220617 624.880398 626.628983 635.737506
7.270000 623.703775 625.772856 630.767575 631.970569 639.144799 643.359662
7.320000 625.606008 628.990642 638.361267 637.169558 644.462291 647.661252
7.370000 628.152411 633.277697 642.632459 640.910052 647.965856 651.635443
7.420000 632.594431 637.601043 645.081619 644.093926 650.552916 654.154075
7.470000 638.014854 641.597428 647.580405 647.219231 652.935563 656.173528
7.520000 641.863072 644.522736 649.996308 649.849623 655.144246 658.179091
7.570000 644.320257 646.942492 651.924251 651.919456 656.795495 659.687786
7.670000 647.449228 650.278266 655.341553 655.235031 660.184599 662.646038
7.720000 649.157022 651.959957 657.250812 657.028558 661.865139 664.408553
7.770000 651.061493 653.675276 659.201384 658.867946 663.693053 665.926744
7.820000 652.790583 655.535731 661.040992 660.699523 665.452896 667.849088
7.870000 654.402496 657.528353 663.138843 662.682635 667.305377 670.232334
7.920000 656.205902 659.700621 665.042191 664.548065 668.939305 671.942211
7.970000 658.039123 661.752472 667.042168 666.436824 670.504247 673.464303
8.070000 662.764292 666.748308 671.071533 670.619877 674.235868 677.209711
8.120000 665.835539 669.713275 673.493546 673.245412 676.581283 679.404933
8.170000 669.103902 672.788132 676.043631 676.026130 679.389833 682.170457
8.220000 672.075290 675.613025 678.938657 678.750861 682.105156 684.588412
8.270000 674.924717 678.148394 681.651398 681.543340 684.832435 687.335768
8.320000 677.054643 680.675495 684.264943 684.101814 687.429991 689.843043
8.360000 679.019253 682.598022 686.287835 686.078675 689.424225 692.312737
