depth(m) lower_95(kyr) lower_68(kyr) median(kyr) mean(kyr) upper_68(kyr) upper_95(kyr)
19.330000 298.770852 299.964780 301.851395 301.647878 303.087063 303.894429
19.350000 299.096199 300.273205 302.182004 301.964146 303.374400 304.134718
19.370000 299.491009 300.614442 302.556310 302.306736 303.690718 304.420813
19.390000 299.884660 300.970079 302.917217 302.644859 303.991235 304.691337
19.410000 300.163597 301.233659 303.236529 302.956188 304.286811 304.912910
19.430000 300.534375 301.594387 303.526107 303.268150 304.568972 305.230821
19.450000 300.884161 301.877793 303.875495 303.568672 304.842661 305.473359
19.470000 301.230231 302.269220 304.197140 303.875090 305.126973 305.666024
19.490000 301.534773 302.617231 304.471599 304.170757 305.381275 305.936782
19.510000 301.796726 302.982125 304.823860 304.479363 305.645171 306.204313
19.530000 302.064706 303.409015 305.113342 304.788963 305.936594 306.496631
19.550000 302.427645 303.751770 305.412071 305.102907 306.208305 306.770770
19.570000 302.852875 304.092594 305.744829 305.431703 306.477437 307.115019
19.590000 303.130513 304.506130 306.088591 305.756477 306.728261 307.391883
19.610000 303.433138 304.883351 306.387160 306.079954 306.984791 307.752463
19.630000 303.897331 305.313364 306.690540 306.402439 307.260819 308.005890
19.650000 304.307195 305.691324 306.996885 306.724259 307.531987 308.266966
19.670000 304.626387 306.070454 307.283424 307.055229 307.828694 308.719736
19.690000 305.088110 306.444422 307.564178 307.378088 308.132989 309.100508
19.710000 305.642141 306.847465 307.850782 307.723018 308.454450 309.509244
19.730000 305.948342 307.204756 308.145059 308.066754 308.816957 309.902721
19.750000 306.405749 307.533490 308.442402 308.404193 309.194830 310.364062
19.770000 306.921091 307.879104 308.736652 308.747872 309.595438 310.773313
19.790000 307.287728 308.225122 309.047614 309.112525 310.101848 311.381578
19.810000 307.570645 308.530347 309.346190 309.466621 310.488715 311.780388
19.830000 307.955136 308.912436 309.675201 309.872159 310.979421 312.297533
19.870000 308.662699 309.561610 310.426976 310.713914 311.960717 313.782988
19.890000 309.009790 309.906565 310.776787 311.118831 312.528038 314.288068
19.910000 309.371707 310.269579 311.177321 311.530802 313.016330 314.691120
19.930000 309.656398 310.607999 311.615788 311.942812 313.627147 315.158965
19.950000 309.945431 310.924821 312.017151 312.362201 314.087711 315.661693
19.970000 310.262359 311.275684 312.491044 312.788813 314.632904 316.285229
19.990000 310.660552 311.614231 312.939115 313.218240 315.069123 316.760510
20.010000 311.087452 311.997077 313.365425 313.652770 315.575594 317.115122
20.030000 311.464747 312.368584 313.791884 314.079382 316.047102 317.460485
20.050000 311.873964 312.777843 314.226418 314.515829 316.435455 317.793147
20.070000 312.252030 313.268966 314.721423 314.963447 316.814920 318.092631
20.090000 312.573552 313.715470 315.197773 315.404049 317.203089 318.367531
20.110000 313.072522 314.266441 315.799560 315.844416 317.600174 318.631185
20.130000 313.466181 314.724780 316.263675 316.279131 318.068955 318.856149
20.150000 313.983488 315.193523 316.755387 316.715665 318.459108 319.046795
20.170000 314.543092 315.668047 317.150623 317.132550 318.767068 319.302496
20.190000 314.992800 316.118310 317.651464 317.554146 319.053247 319.555063
20.210000 315.464209 316.717619 318.066799 317.973700 319.350245 319.804176
20.230000 315.952198 317.204720 318.503730 318.394039 319.621200 320.050110
20.250000 316.369819 317.723699 318.882980 318.779477 319.869171 320.297758
20.270000 316.940844 318.196415 319.222921 319.133659 320.098888 320.604271
20.290000 317.389399 318.603124 319.590209 319.477040 320.330392 320.875722
20.310000 317.822551 319.051069 319.959413 319.837890 320.585576 321.106864
20.330000 318.364726 319.495317 320.323928 320.195693 320.848412 321.440922
20.350000 318.755610 319.866157 320.639784 320.515490 321.127698 321.724323
20.370000 319.191892 320.244614 320.912453 320.822479 321.375432 322.066013
20.390000 319.522965 320.561173 321.177049 321.101405 321.611979 322.316923
20.410000 319.912062 320.902997 321.425297 321.377312 321.890113 322.570157
20.430000 320.244580 321.165440 321.674034 321.640337 322.150614 322.799629
20.450000 320.559820 321.413750 321.930234 321.904079 322.435339 323.087478
20.470000 320.767452 321.670978 322.172089 322.167742 322.687892 323.353382
20.530000 322.077741 322.505906 322.962324 323.022002 323.544143 324.244814
20.550000 322.346849 322.791282 323.260761 323.307078 323.819664 324.523634
20.570000 322.625206 323.067112 323.543268 323.584025 324.077629 324.957726
20.590000 322.905541 323.328657 323.824865 323.852162 324.312984 325.162156
20.610000 323.180441 323.613266 324.084953 324.119417 324.556631 325.359107
20.630000 323.436905 323.893878 324.357948 324.379930 324.821985 325.615739
20.650000 323.717031 324.157206 324.595847 324.642031 325.097442 325.831204
20.670000 323.984756 324.412286 324.830869 324.898911 325.377564 326.057513
20.690000 324.262948 324.674134 325.080299 325.150132 325.654327 326.319990
20.710000 324.463848 324.912374 325.324276 325.382040 325.878896 326.522793
20.730000 324.668532 325.153288 325.563797 325.614447 326.114364 326.746026
20.750000 324.944950 325.375168 325.791134 325.846325 326.370822 326.932941
20.770000 325.122250 325.571814 326.027634 326.073541 326.614804 327.129191
20.790000 325.302503 325.783999 326.255124 326.304517 326.867634 327.331519
20.810000 325.520155 326.032246 326.514936 326.541948 327.111004 327.502425
20.830000 325.767207 326.245783 326.789459 326.781963 327.353905 327.676813
20.850000 325.930916 326.475878 327.023388 327.007452 327.564145 327.857899
20.870000 326.177365 326.707605 327.268280 327.238178 327.748596 328.055176
20.890000 326.417457 326.957336 327.546949 327.468367 327.941526 328.246210
20.910000 326.605322 327.204285 327.762958 327.686575 328.150419 328.419024
20.930000 326.800932 327.454949 327.981706 327.907569 328.338665 328.590361
20.950000 327.066855 327.724208 328.209287 328.130457 328.523586 328.760778
20.970000 327.275483 328.005030 328.416686 328.343269 328.693484 328.929389
20.990000 327.636206 328.245528 328.627319 328.557717 328.871116 329.100744
21.010000 327.815913 328.467046 328.815629 328.748256 329.035241 329.249030
21.030000 328.003726 328.696847 328.998373 328.935961 329.210157 329.432696
21.050000 328.245305 328.882912 329.166085 329.116282 329.370398 329.592921
21.070000 328.492536 329.059324 329.327673 329.284341 329.532415 329.799438
21.090000 328.678981 329.246897 329.485056 329.455666 329.687514 329.984135
21.110000 328.968174 329.418971 329.643345 329.618690 329.843629 330.148486
21.130000 329.193006 329.608985 329.799737 329.784386 330.013704 330.336288
21.150000 329.359318 329.757394 329.946993 329.942515 330.167260 330.516143
21.170000 329.547835 329.914201 330.094781 330.098703 330.309980 330.708340
21.190000 329.719720 330.050939 330.248368 330.254912 330.481624 330.870936
21.210000 329.916165 330.210379 330.392400 330.414580 330.661620 331.041111
21.230000 330.075009 330.348614 330.543746 330.570704 330.840144 331.211256
21.250000 330.208613 330.500362 330.700963 330.730897 331.017925 331.434774
21.270000 330.390852 330.645892 330.841016 330.885576 331.184866 331.596680
21.310000 330.661111 330.905830 331.107240 331.171590 331.521863 331.911903
21.330000 330.817920 331.051123 331.254972 331.327180 331.690466 332.098237
21.350000 330.966000 331.204233 331.414788 331.488006 331.849047 332.269573
21.370000 331.124229 331.354484 331.572242 331.652361 332.042496 332.489377
21.390000 331.275212 331.506485 331.735860 331.821099 332.224982 332.684821
21.410000 331.407271 331.652308 331.921169 332.003996 332.422785 332.892062
21.430000 331.582191 331.818246 332.119339 332.193721 332.635578 333.116918
21.450000 331.727213 331.986883 332.338496 332.407405 332.865833 333.416185
21.470000 331.899083 332.178292 332.601089 332.656670 333.140845 333.776672
21.593333 332.826347 333.445052 334.585955 334.728791 336.113423 337.556061
21.716667 334.253615 335.671502 337.159585 337.027704 338.349659 339.274771
21.840000 338.055264 338.766691 339.406362 339.392257 340.041001 340.582077
21.860000 338.515389 339.126205 339.746130 339.732127 340.326525 340.818426
21.880000 338.932009 339.486953 340.026011 340.030207 340.602805 341.092235
21.900000 339.226055 339.785441 340.291258 340.297638 340.856841 341.295358
21.920000 339.534305 340.054554 340.527341 340.554583 341.090021 341.525239
21.940000 339.821995 340.316053 340.802003 340.805446 341.312076 341.757483
21.960000 340.121657 340.551476 341.046870 341.044162 341.529037 341.941479
21.980000 340.325848 340.787019 341.294987 341.275956 341.735493 342.139239
22.000000 340.579264 341.027756 341.536805 341.507950 341.966260 342.309052
22.020000 340.813283 341.271149 341.775848 341.745820 342.180423 342.563598
22.040000 341.112968 341.531973 342.012766 341.983132 342.411094 342.779364
22.060000 341.307531 341.797222 342.228244 342.212044 342.625720 343.008216
22.080000 341.572642 342.056151 342.462315 342.449237 342.841605 343.254448
22.100000 341.832482 342.267767 342.685129 342.678026 343.072708 343.457443
22.120000 342.089420 342.526179 342.921111 342.919191 343.319358 343.681884
22.140000 342.334987 342.797434 343.168970 343.168329 343.556578 343.916905
22.160000 342.629853 343.034495 343.445010 343.430749 343.816444 344.143475
22.180000 342.939800 343.300258 343.735966 343.709628 344.087488 344.424915
22.200000 343.212623 343.587712 344.025999 344.002056 344.394667 344.722595
22.220000 343.464897 343.873718 344.301738 344.277982 344.659802 345.013471
22.240000 343.749056 344.144837 344.553832 344.532948 344.905131 345.325617
22.280000 344.209150 344.618840 344.979619 344.981376 345.351291 345.750977
22.300000 344.434279 344.846474 345.228634 345.224710 345.587435 346.048116
22.320000 344.695873 345.094499 345.461688 345.488244 345.876763 346.330221
22.340000 344.975639 345.341437 345.721894 345.766388 346.208081 346.649527
22.360000 345.244880 345.618800 346.033103 346.067106 346.512318 347.020802
22.380000 345.521505 345.889315 346.330925 346.370988 346.845143 347.397818
22.400000 345.795325 346.175751 346.670586 346.687012 347.209163 347.671455
22.440000 346.266718 346.682052 347.222945 347.237128 347.774764 348.259687
22.460000 346.495330 346.967178 347.524012 347.529539 348.084597 348.547956
22.480000 346.783792 347.228168 347.815222 347.809242 348.353293 348.801802
22.520000 347.309640 347.798407 348.356633 348.334676 348.854984 349.245276
22.540000 347.501869 348.058070 348.619335 348.590490 349.102921 349.488899
22.560000 347.725811 348.322581 348.913900 348.856769 349.354600 349.761937
22.580000 347.976598 348.588818 349.165328 349.113445 349.595978 350.018242
22.600000 348.320602 348.860813 349.414108 349.359474 349.800582 350.293737
22.640000 348.814677 349.327768 349.862824 349.825224 350.252460 350.703551
22.660000 349.110114 349.618826 350.103700 350.091278 350.518893 350.966472
22.680000 349.388266 349.893869 350.353300 350.354165 350.770325 351.260400
22.700000 349.701497 350.188805 350.616410 350.624926 351.063220 351.601188
22.720000 349.966349 350.423659 350.873852 350.879788 351.296646 351.836646
22.740000 350.340610 350.704649 351.120989 351.148130 351.573862 352.021534
22.760000 350.609713 350.983145 351.413387 351.421041 351.813980 352.298022
22.780000 350.891486 351.227607 351.663122 351.673276 352.062314 352.525261
22.800000 351.099638 351.473197 351.898357 351.920244 352.291603 352.805641
22.820000 351.378981 351.740950 352.162162 352.179852 352.546996 353.113814
22.840000 351.637131 352.023641 352.419459 352.445758 352.810044 353.467505
22.860000 351.942067 352.288238 352.685227 352.711697 353.068667 353.829538
22.880000 352.170410 352.556667 352.931625 352.968978 353.338822 354.094543
22.900000 352.430897 352.810837 353.175316 353.232145 353.598416 354.539542
22.920000 352.659652 353.059799 353.415500 353.493252 353.846928 355.060667
22.940000 352.925261 353.299121 353.658763 353.746179 354.119711 355.354738
22.960000 353.158260 353.521022 353.902239 353.991618 354.382756 355.664001
22.980000 353.413290 353.743635 354.145340 354.239080 354.631997 356.031616
23.000000 353.628021 353.960118 354.401234 354.497149 354.912732 356.358418
23.020000 353.890642 354.217863 354.644321 354.750394 355.179847 356.645824
23.040000 354.129165 354.449578 354.907169 355.020261 355.479932 356.974672
23.060000 354.377614 354.715876 355.155635 355.298562 355.787460 357.240606
23.080000 354.597392 354.971175 355.437562 355.585005 356.130767 357.540937
23.100000 354.860044 355.255245 355.693600 355.877471 356.518106 357.884457
23.120000 355.122465 355.517795 355.969931 356.167911 356.890239 358.171401
23.140000 355.367206 355.766221 356.239282 356.453431 357.179108 358.537026
23.180000 355.822066 356.236177 356.773379 357.019823 357.882462 359.225348
23.200000 356.103759 356.505851 357.107303 357.323576 358.230205 359.620989
23.220000 356.358464 356.776722 357.451904 357.631205 358.538277 360.012407
23.240000 356.624789 357.029306 357.769201 357.950527 358.898290 360.366381
23.260000 356.869516 357.266281 358.118281 358.270592 359.221594 360.684362
23.280000 357.128139 357.544367 358.456048 358.586680 359.559905 360.937212
23.300000 357.403846 357.834437 358.856974 358.914336 359.906001 361.295944
23.320000 357.676693 358.156188 359.213937 359.261275 360.223622 361.581910
23.340000 357.937734 358.499718 359.602534 359.615580 360.589379 361.918214
23.360000 358.284060 358.867531 359.970966 359.980799 360.911190 362.222567
23.380000 358.580714 359.253692 360.350620 360.374333 361.314986 362.748177
23.400000 358.911878 359.677221 360.738463 360.773055 361.752031 363.161039
23.420000 359.283453 360.084572 361.161390 361.185617 362.172501 363.552467
23.440000 359.738327 360.469429 361.580127 361.618467 362.630745 363.915248
23.460000 360.085416 360.980899 362.054840 362.080857 363.155855 364.472751
23.480000 360.653103 361.509559 362.516794 362.591337 363.680992 364.967100
23.500000 361.132271 361.977254 362.996970 363.100594 364.225017 365.539079
23.520000 361.558869 362.494795 363.569504 363.624339 364.767676 366.037031
23.540000 362.083879 363.006983 364.083322 364.140566 365.254806 366.575476
23.560000 362.573910 363.581715 364.618410 364.673103 365.832657 367.146554
23.620000 364.130166 365.009694 366.200142 366.337399 367.715217 369.286933
23.640000 364.609700 365.484256 366.696529 366.851888 368.237617 369.915370
23.660000 365.046479 365.911234 367.254743 367.369042 368.859750 370.380417
23.680000 365.518251 366.370876 367.769293 367.882505 369.423020 370.767566
23.700000 365.930333 366.802852 368.335664 368.377735 369.972861 371.196811
23.720000 366.332878 367.232199 368.908678 368.878524 370.532841 371.597707
23.740000 366.821877 367.686399 369.504031 369.386335 370.987993 372.072028
23.760000 367.234126 368.253630 370.023850 369.918392 371.452360 372.491710
23.780000 367.726913 368.851842 370.547306 370.446908 371.893839 372.966783
23.820000 368.839783 370.225099 371.672336 371.536043 372.769596 373.807213
23.840000 369.320286 370.828780 372.299251 372.093590 373.263137 374.340076
23.860000 369.919989 371.439343 372.800952 372.645320 373.755056 374.705473
23.880000 370.570494 372.143060 373.286646 373.195756 374.223672 375.234295
23.900000 371.202973 372.748665 373.800025 373.758953 374.820551 375.729390
23.920000 371.987970 373.400874 374.341276 374.327127 375.322838 376.361184
23.940000 372.708525 374.001882 374.888491 374.901028 375.953024 377.022872
23.960000 373.417475 374.547191 375.399496 375.475286 376.551496 377.565027
23.980000 374.104440 375.056967 375.988261 376.059233 377.120937 378.267844
24.000000 374.706386 375.563579 376.549205 376.595219 377.701343 378.765195
24.020000 375.241337 375.977069 377.033102 377.086704 378.247602 379.239382
24.040000 375.690559 376.422427 377.454584 377.553029 378.757283 379.776592
24.060000 376.150306 376.854231 377.930050 378.029840 379.252504 380.219476
24.080000 376.522220 377.255510 378.416330 378.494715 379.672102 380.880628
24.100000 376.943735 377.680047 378.892896 378.948382 380.098886 381.467700
24.120000 377.370964 378.061347 379.310272 379.362671 380.506682 381.923817
24.140000 377.749498 378.497909 379.713517 379.791605 380.947163 382.424763
24.160000 378.162390 378.913797 380.185639 380.223058 381.328137 383.325082
24.180000 378.550569 379.374391 380.620301 380.639870 381.685068 383.737813
24.220000 379.191265 380.116598 381.441575 381.441670 382.469862 384.809976
24.240000 379.519526 380.544721 381.852693 381.838358 382.837102 385.281255
24.260000 379.839285 380.953566 382.234281 382.213084 383.161373 385.702726
24.280000 380.212177 381.406278 382.603527 382.610049 383.473221 386.007545
24.300000 380.670327 381.934799 382.977549 383.000736 383.795587 386.311200
24.320000 381.112898 382.361296 383.336609 383.383773 384.125823 386.612243
24.340000 381.494272 382.845385 383.690103 383.762479 384.465824 386.861331
24.360000 381.882559 383.309632 384.034085 384.139772 384.861652 387.399910
24.380000 382.341162 383.683862 384.414546 384.516669 385.285067 387.891359
24.400000 382.691679 384.024808 384.743792 384.869326 385.703456 388.331807
24.420000 383.020178 384.351292 385.073125 385.224046 386.115644 388.825924
24.440000 383.427521 384.685360 385.429884 385.579562 386.486814 389.094045
24.460000 383.836753 385.029645 385.776858 385.949371 386.840045 389.501850
24.480000 384.199845 385.371211 386.170433 386.316874 387.205268 389.843447
24.500000 384.545533 385.713336 386.529310 386.686230 387.620539 390.201423
24.520000 384.922119 386.030126 386.879330 387.038998 387.972802 390.483694
24.540000 385.290905 386.366789 387.270773 387.417285 388.381404 390.746979
24.560000 385.705132 386.689858 387.671833 387.792091 388.775957 390.986338
24.580000 386.122766 387.053009 388.079786 388.187840 389.246169 391.318383
24.600000 386.399943 387.403607 388.519249 388.581951 389.640032 391.546503
24.620000 386.838133 387.819021 388.939229 388.996322 390.117764 391.768818
24.640000 387.186300 388.222312 389.335164 389.378991 390.519857 392.006289
24.660000 387.560510 388.644297 389.725875 389.779747 390.944054 392.259581
24.680000 388.041285 389.077886 390.109021 390.163905 391.308394 392.487820
24.700000 388.376488 389.540476 390.515325 390.551451 391.653126 392.754088
24.740000 389.548905 390.443483 391.319227 391.336257 392.310161 393.213537
24.760000 389.998306 390.847700 391.714798 391.733461 392.613096 393.482705
24.780000 390.375150 391.241316 392.100994 392.102315 392.984098 393.772845
24.800000 390.840209 391.662973 392.476614 392.469892 393.278373 393.992057
24.820000 391.339100 392.155193 392.892409 392.893207 393.668587 394.300723
24.840000 391.806946 392.598991 393.302518 393.298833 394.007452 394.608881
24.860000 392.302153 393.052242 393.758657 393.718962 394.399671 394.949372
24.880000 392.785424 393.495758 394.215799 394.180984 394.835611 395.384032
24.900000 393.413015 394.037372 394.633908 394.610362 395.204730 395.674141
24.920000 393.802012 394.475749 395.025291 395.011066 395.552099 396.051774
24.940000 394.321821 394.912643 395.436056 395.413984 395.936742 396.426724
24.960000 394.723667 395.269169 395.766573 395.753468 396.229659 396.701266
24.980000 395.124845 395.635240 396.101041 396.088633 396.524288 396.972304
25.000000 395.521885 395.953030 396.408828 396.397067 396.845692 397.235155
25.020000 395.833171 396.238005 396.697603 396.695683 397.124809 397.630470
25.040000 396.113165 396.569972 396.963397 396.980283 397.397028 397.941471
25.060000 396.431480 396.824884 397.241821 397.252234 397.667559 398.209150
25.080000 396.703978 397.096048 397.508225 397.527911 397.975270 398.421654
25.100000 396.980261 397.373710 397.815922 397.818034 398.283652 398.676800
25.120000 397.240458 397.650664 398.104044 398.095667 398.563314 398.934364
25.140000 397.504180 397.919388 398.376218 398.368357 398.815724 399.199152
