depth(m) lower_95(kyr) lower_68(kyr) median(kyr) mean(kyr) upper_68(kyr) upper_95(kyr)
26.820000 537.757193 540.618985 543.274619 543.112450 545.644489 547.165018
26.890000 538.893144 541.582966 544.142232 543.956472 546.299479 547.845377
27.020000 540.382982 543.518938 545.696508 545.535534 547.673467 549.040840
27.110000 541.891543 544.673012 546.789299 546.617747 548.615995 549.893749
27.200000 543.163050 545.728139 547.843715 547.672213 549.664916 550.848223
27.320000 545.133477 547.232650 549.243234 549.113949 550.973506 552.277086
27.400000 546.407591 548.521455 550.356700 550.254940 552.036675 553.476526
27.520000 548.694118 550.614981 552.259499 552.292940 554.063752 555.528707
27.610000 550.766247 552.464724 554.373449 554.391613 556.246339 558.473617
27.720000 553.977534 555.760052 557.596042 557.803941 559.881533 562.773594
27.820000 557.894408 559.501841 561.466876 561.721940 564.127311 566.675567
27.850000 559.113894 560.764871 562.716503 562.933682 565.296759 567.865515
27.900000 560.909672 562.582886 564.470684 564.653345 566.922305 569.025964
28.020000 564.309597 566.226447 568.099123 568.042937 569.715600 571.349905
28.100000 567.148086 568.840692 570.356574 570.322278 571.782276 573.381219
28.200000 569.671491 571.200567 572.641399 572.664288 574.148728 575.759159
28.315000 571.958367 573.394321 574.914429 574.912408 576.503090 577.854808
28.400000 573.639969 575.022554 576.632276 576.633485 578.193425 579.581006
28.515000 576.171757 577.885771 579.427942 579.338025 580.663285 582.188158
28.600000 580.308882 581.435564 582.647681 582.760439 584.064612 585.835784
28.650000 581.778681 582.889840 584.335270 584.397046 585.945038 587.727148
28.720000 583.153317 584.599702 586.272286 586.338199 588.058313 590.095074
28.850000 585.284405 587.356907 589.633493 589.698309 591.975163 594.223133
28.960000 587.134971 589.354405 591.904742 591.898024 594.545511 596.751989
29.070000 588.819910 591.171429 594.066905 593.979336 596.602970 598.836517
29.150000 590.421579 592.789920 595.664680 595.512533 598.090965 600.027874
29.220000 591.759937 594.197752 597.097458 596.874125 599.446478 601.146290
29.310000 593.343673 595.991202 598.797150 598.509868 600.853176 602.473106
29.400000 594.900526 597.647031 600.418167 600.080223 602.220480 603.719749
29.510000 597.090921 600.101024 602.290367 602.016860 603.850034 605.398929
29.600000 599.201833 601.982547 603.770604 603.564115 605.254384 606.598209
29.700000 601.533729 603.755685 605.430270 605.273745 606.780372 608.152058
29.815000 603.993625 605.582507 607.024062 606.966937 608.343059 609.914599
29.900000 605.452801 606.980164 608.194536 608.202184 609.442544 611.111836
30.030000 608.387170 609.400356 610.407322 610.546299 611.772148 613.265722
30.100000 609.435819 610.478270 611.603904 611.759580 613.128621 614.857811
30.150000 610.252447 611.275176 612.526376 612.652902 614.104305 615.752755
30.270000 611.934613 613.125085 614.653511 614.712490 616.297648 617.624026
30.360000 613.485186 615.036438 616.565855 616.524735 618.044849 619.311541
30.450000 615.272381 616.928271 618.457826 618.380662 619.872944 620.958576
30.525000 617.024151 618.585573 619.979048 619.927070 621.244075 622.477766
30.600000 618.776402 620.179693 621.532776 621.427757 622.599945 623.698554
30.650000 619.917671 621.273802 622.526031 622.490286 623.724926 624.963805
30.680000 620.430337 621.777311 623.064225 623.025335 624.198619 625.474488
30.765000 622.352296 623.572420 624.799100 624.827716 626.049874 627.411644
30.820000 623.349436 624.605299 625.708831 625.816072 627.121718 628.693256
30.900000 625.359369 626.294157 627.510836 627.663874 629.064027 630.733015
31.015000 627.002607 628.234949 629.743526 629.797712 631.364683 632.851285
31.100000 628.199914 629.634008 631.249417 631.291066 632.859938 634.556187
31.200000 629.736875 631.236343 632.940372 632.956758 634.692372 636.533516
31.315000 631.275319 632.783228 634.613717 634.679116 636.591678 638.285006
31.400000 632.504189 633.980680 635.799403 635.910522 637.871108 639.704301
31.520000 634.153537 635.667950 637.573331 637.574996 639.446977 641.355548
31.610000 635.197699 636.845806 638.741396 638.793983 640.600385 642.801178
31.700000 636.323706 638.049426 639.962659 640.057738 641.873724 644.604898
31.810000 637.785904 639.565727 641.392745 641.596557 643.422771 646.841281
31.900000 639.014479 641.075179 642.692804 643.043772 645.170659 648.975687
31.975000 640.229591 642.171516 644.010571 644.380782 646.672564 650.446630
32.050000 641.618977 643.418894 645.444787 645.816775 648.310856 652.159419
32.150000 643.118136 644.995536 647.363554 647.791911 650.814273 654.312741
32.225000 644.217522 646.163487 649.002532 649.366086 652.621677 656.333815
32.300000 645.249915 647.374795 650.698093 650.951757 654.599860 658.329117
32.400000 646.748101 649.166925 652.993874 653.113643 656.895312 660.471649
32.480000 647.840315 650.745741 654.919518 654.913309 659.000588 662.027279
32.560000 649.615236 652.544789 656.679687 656.697056 660.836839 663.714996
32.640000 651.236264 654.618694 658.837453 658.678157 662.706905 665.798324
32.770000 653.875321 657.556971 662.058791 661.678114 665.496930 668.531011
32.850000 655.564625 659.490485 664.006650 663.627099 667.353433 670.831281
32.940000 658.004182 662.051867 666.134852 665.889664 669.547093 673.030402
33.040000 661.222476 664.992528 668.642741 668.556848 672.131134 675.934113
33.150000 664.725727 668.147393 671.766544 671.797524 675.550072 679.636236
33.240000 667.758866 671.261032 675.055563 675.169301 679.179162 683.093712
33.300000 670.315903 673.590277 677.644719 677.680504 681.841340 685.102371
33.400000 674.990320 678.649622 682.561592 682.415595 685.999878 688.239594
33.540000 680.509241 684.299682 687.371203 686.949126 689.515611 691.167864
33.660000 685.235212 688.005734 690.202646 689.947009 691.890958 693.095982
33.800000 688.454817 690.879896 692.675268 692.424773 693.979419 695.165411
33.900000 690.434534 692.534731 694.134335 693.901631 695.281945 696.338812
34.002500 691.922999 693.897478 695.458362 695.225278 696.562229 697.457945
34.105000 693.350154 695.212658 696.833737 696.569318 697.851150 698.580882
34.230000 694.922980 696.914827 698.498611 698.198753 699.499153 699.905360
