depth(m) lower_95(kyr) lower_68(kyr) median(kyr) mean(kyr) upper_68(kyr) upper_95(kyr)
15.200000 298.929716 302.860277 305.927327 305.694146 308.802902 310.911846
15.300000 301.509590 305.019068 307.732475 307.573590 310.336465 312.311159
15.400000 304.723761 307.229222 309.651598 309.610784 312.183166 314.081583
15.500000 306.453130 309.197190 311.579317 311.495033 313.952570 315.838771
15.600000 308.651967 311.259086 313.533483 313.445224 315.661350 317.679311
15.700000 310.727653 313.202399 315.318673 315.280034 317.400627 319.302158
15.800000 312.432864 314.864223 317.041231 316.977756 319.067706 320.931758
15.900000 314.438032 316.693330 318.671453 318.586172 320.610606 322.185542
16.000000 316.048458 318.241483 320.156692 320.077662 322.064436 323.579452
16.100000 317.948086 319.820879 321.596019 321.529008 323.291134 324.721326
16.200000 320.160223 321.768752 323.230442 323.172815 324.695767 325.855760
16.300000 322.128559 323.640685 325.018329 324.953972 326.312417 327.459541
16.400000 323.914326 325.025036 326.465973 326.423496 327.724830 328.945018
16.500000 325.299797 326.516735 327.846062 327.818479 329.084392 330.369365
16.600000 326.869785 327.929351 329.292724 329.211416 330.440115 331.578241
16.700000 328.011369 329.416208 330.729467 330.677830 331.882313 333.247962
16.800000 329.745981 331.094365 332.415815 332.441656 333.801532 335.369563
16.900000 332.500638 333.820434 335.518890 335.831781 337.904084 340.643159
17.000000 334.248700 335.577544 337.620298 337.977275 340.319835 344.398962
17.100000 336.906257 338.884880 341.425233 341.848362 345.047068 348.561711
17.200000 339.258412 341.653903 344.986129 345.199182 348.735198 351.762697
17.300000 340.960109 344.552612 348.413612 348.225720 351.807716 354.863012
17.400000 343.184879 347.191297 350.909812 350.690318 354.060539 357.168622
17.500000 345.376238 349.749319 352.901972 352.930389 356.165274 359.094998
17.600000 348.904575 352.131965 355.021282 355.078859 358.249667 360.866994
17.700000 351.585389 354.158612 357.072149 357.072511 360.058515 362.465611
17.800000 353.786268 356.156726 358.955033 358.989077 361.892297 364.089686
17.900000 355.913562 358.276986 361.025713 360.985023 363.611759 365.621420
18.000000 357.957615 360.653047 363.392613 363.231553 365.647151 368.096315
18.100000 360.719442 363.599193 366.132585 366.073477 368.392549 370.805081
18.200000 363.789329 366.135877 368.514272 368.464421 370.766155 372.975803
18.300000 366.087593 368.274630 370.613169 370.629704 372.973888 375.069315
18.400000 368.068423 370.097464 372.442144 372.446458 374.776258 376.973570
18.500000 369.784796 371.779669 374.109762 374.164125 376.436354 378.739631
18.600000 371.453735 373.602797 375.880784 375.877443 378.225994 380.313082
18.700000 373.160600 375.350253 377.603974 377.618581 379.853503 381.973036
18.800000 374.873966 377.026507 379.552122 379.491310 381.802436 384.534708
18.900000 376.627291 378.867575 381.371190 381.377643 383.877665 386.390968
19.000000 378.176402 380.847330 383.429943 383.424912 385.990298 388.537713
19.100000 380.812752 383.248778 385.813829 385.745321 388.249931 390.782500
19.200000 382.985221 385.476980 388.063864 387.962544 390.421250 392.551632
19.300000 384.901121 387.413378 390.057722 389.900433 392.233173 394.155481
19.400000 387.199532 389.349261 391.828222 391.655394 393.928881 395.812649
19.500000 388.703328 391.056098 393.409792 393.259467 395.435689 397.179439
19.600000 390.446004 392.894223 395.141444 394.972199 396.990493 398.531582
19.700000 392.828982 395.256528 397.231908 397.028666 398.808328 400.139244
19.800000 396.795067 398.449373 399.896832 399.843180 401.297717 402.633933
19.900000 399.463897 400.658289 401.962639 401.987135 403.342059 404.785413
20.000000 401.220111 402.379845 403.690424 403.755836 405.110840 406.677449
20.100000 402.756447 404.000121 405.285984 405.365807 406.745706 408.182314
20.200000 404.306278 405.469168 406.930515 406.956308 408.374667 409.838286
20.300000 405.832996 407.057298 408.630120 408.670764 410.200996 412.020081
20.400000 407.535251 408.839946 410.575856 410.710815 412.593515 414.490725
20.500000 409.963514 411.666569 413.775016 414.032066 416.459920 419.898221
20.600000 413.085739 414.992218 418.196275 418.426593 421.934114 424.882907
20.700000 419.282473 422.679811 425.596001 425.102877 427.360520 428.696711
20.800000 424.220339 426.870444 428.344964 428.226777 429.622620 430.964485
20.900000 427.980389 429.315695 430.586125 430.622441 431.893091 433.467754
21.000000 429.812202 430.900375 432.300097 432.367788 433.738585 435.436208
21.100000 431.216758 432.347425 433.844270 433.879694 435.432634 437.065577
21.200000 432.454884 433.793366 435.334962 435.371070 437.027243 438.552308
21.300000 433.859216 435.320772 436.771458 436.837167 438.437423 440.039552
21.400000 435.282502 436.767210 438.261660 438.339160 439.934227 441.876564
21.500000 436.684144 438.238689 439.771802 439.901313 441.575629 443.362849
21.600000 438.111226 439.714852 441.396200 441.478146 443.273696 445.065227
21.700000 439.562520 441.376097 443.023768 443.049064 444.771771 447.098572
21.800000 441.542252 443.068361 444.672835 444.896461 446.684831 449.368531
21.900000 443.274394 444.805455 446.708074 447.003628 448.999641 452.787734
22.000000 445.274557 446.797840 448.786613 449.312888 451.980373 455.714123
22.100000 447.026501 448.566776 450.892060 451.525547 454.540604 458.743380
22.200000 448.650970 450.280585 452.924169 453.568369 457.318526 460.804339
22.300000 450.255409 452.135139 454.926433 455.574612 459.607255 462.842914
22.400000 452.016074 453.996941 457.138637 457.697923 461.898466 464.718994
22.500000 453.634989 455.850476 459.435713 459.753010 464.028251 466.510866
22.600000 455.327075 457.671946 461.458254 461.674511 465.864231 468.171640
22.700000 457.330620 459.546982 463.621615 463.587085 467.594512 469.874269
22.800000 459.114092 461.613224 465.554220 465.577854 469.440396 471.643992
22.900000 461.247822 463.809380 467.894744 467.646870 471.133020 473.426234
23.000000 463.301927 466.247104 470.177539 469.724878 472.912032 474.736767
23.100000 465.502552 468.661374 472.095312 471.700954 474.535479 476.410367
23.200000 467.922978 471.040598 474.095556 473.744210 476.306296 478.015823
23.300000 470.761144 473.587221 476.098580 475.881825 478.102366 479.735632
23.400000 474.016089 476.211119 478.226811 478.114662 480.050213 481.395918
23.500000 476.986143 478.684392 480.526820 480.434752 482.258966 483.608734
23.600000 479.237936 480.842028 482.527956 482.467287 484.147881 485.709907
23.700000 480.974980 482.657242 484.337710 484.292971 486.006234 487.373185
23.800000 482.741481 484.415606 486.096058 486.123478 487.774631 489.538735
23.900000 484.542174 486.091254 487.803281 487.821909 489.433037 491.531576
24.000000 486.072875 487.587731 489.389296 489.400753 491.126167 493.120963
24.100000 487.646454 489.187243 491.013907 490.984661 492.621252 494.867154
24.200000 489.380248 490.945336 492.533343 492.609483 494.234008 496.223657
24.300000 490.997635 492.611057 494.262743 494.307506 495.980518 498.000930
24.400000 492.713151 494.386844 496.094488 496.124903 497.828437 499.722831
24.500000 494.365755 496.075276 497.773835 497.816027 499.585735 501.564440
24.600000 496.109823 497.638378 499.395465 499.483855 501.283009 503.198299
24.700000 497.697823 499.418523 501.125472 501.204699 502.972837 504.834531
24.800000 499.189989 501.343240 502.990404 503.073361 504.884832 506.780720
24.900000 501.591147 503.627684 505.381108 505.449868 507.368655 509.739699
25.000000 504.404695 506.498401 508.750110 508.911244 511.435600 513.894159
25.100000 506.921429 509.211726 511.852174 511.896277 514.541737 517.399342
25.200000 508.840287 511.532779 514.700101 514.572112 517.434342 519.830861
25.300000 510.886773 514.000261 517.177178 516.926029 519.806354 521.816785
25.400000 512.880924 516.566262 519.214026 519.089499 521.727594 523.744600
25.500000 515.766262 518.869426 521.296987 521.192068 523.611821 525.617107
25.600000 518.336331 520.727356 523.241897 523.066008 525.328229 527.267721
25.700000 519.799945 522.662856 525.057126 524.891735 527.140924 529.050967
25.800000 521.704514 524.595914 526.983222 526.804910 529.121099 530.764155
25.900000 523.672023 526.530742 528.888711 528.792833 531.124875 533.220586
26.000000 526.184026 528.754345 531.124320 531.008783 533.214460 535.431427
26.100000 529.096769 531.510386 533.671651 533.701425 535.843766 538.356578
26.200000 531.849839 533.996146 536.096614 536.195666 538.568764 541.200823
26.300000 533.846060 535.933206 538.153582 538.328519 540.793144 543.616237
26.400000 535.747000 537.766960 540.169454 540.313390 542.973167 546.016021
26.500000 537.422366 539.487800 542.339811 542.332554 545.076221 547.889112
26.600000 539.316245 541.349744 544.456777 544.408714 547.303660 549.875933
26.700000 540.981030 543.434344 546.563763 546.537250 549.591153 552.091175
26.800000 542.731291 545.741455 548.818607 548.771941 551.756179 554.608405
26.900000 545.176651 548.284888 551.123367 551.107854 554.008855 556.564598
27.000000 547.704502 550.919015 553.481869 553.532946 556.355952 558.941303
27.100000 550.277732 553.474881 556.124707 556.159316 558.981078 561.738431
27.200000 553.218058 556.381127 559.307023 559.303648 562.328059 565.292845
27.300000 556.542406 559.776389 563.285864 563.275690 566.568913 570.082076
27.400000 560.795785 564.210741 567.482622 567.290880 570.474925 572.688096
27.500000 566.163368 569.090759 571.836755 571.661905 574.096340 576.191870
27.600000 570.329075 572.643463 574.821035 574.658853 576.777491 578.569506
27.700000 573.241816 575.537341 577.463903 577.378099 579.182722 581.005716
27.800000 576.390756 578.812159 580.621374 580.633713 582.346020 585.167463
27.900000 580.805264 582.655878 584.738790 585.121080 587.429771 592.131354
28.000000 583.555942 585.691486 588.459094 588.722567 591.733624 595.743327
28.100000 586.297376 588.775875 592.003657 592.283737 595.856462 599.386955
28.200000 588.981912 592.161947 595.681844 595.727357 599.402421 602.452591
28.300000 591.684599 595.304179 598.744225 598.680072 602.352914 604.816227
28.400000 594.406704 598.076377 601.567056 601.444507 604.765833 607.229311
28.500000 596.685753 600.521003 604.402924 603.973840 607.153578 609.200549
28.600000 599.671475 603.111835 607.008230 606.452496 609.338334 610.914576
28.700000 602.202932 606.201858 609.563272 609.005079 611.602304 613.377742
28.800000 604.770695 609.084817 611.691191 611.275216 613.498166 615.084496
28.900000 608.665329 611.631783 613.759428 613.505421 615.370058 616.575281
29.000000 611.869439 614.122410 615.828170 615.680248 617.239814 618.370353
29.100000 614.671521 616.782056 618.246720 618.095898 619.353013 620.474913
29.200000 618.123722 619.799271 620.933794 621.091189 622.142079 624.695001
29.300000 621.042519 622.316551 624.121835 626.304385 632.836237 639.510976
29.400000 622.958488 625.061726 634.091997 633.366091 640.535714 644.534307
29.500000 625.683277 632.898117 640.780455 639.549474 645.413686 648.850015
29.600000 632.023960 639.855000 645.088608 644.367125 648.816134 652.159521
29.700000 638.199547 644.481132 648.545275 648.254979 651.932517 655.939343
29.800000 643.604557 647.322721 651.224510 651.290168 654.976443 659.006202
29.900000 647.275421 650.356094 654.011468 654.180240 658.035018 662.075857
30.000000 650.016557 653.095542 656.987478 657.044405 660.821381 665.130525
30.100000 653.052718 655.559940 659.607147 659.606530 663.377668 667.450432
30.200000 655.804962 658.465481 662.315719 662.384549 666.247658 670.175496
30.300000 658.124511 661.024467 664.849901 664.881914 668.729908 672.095370
30.400000 660.368897 663.401978 667.079779 667.148081 670.966312 674.349224
30.500000 662.502809 665.668215 669.391338 669.355221 673.163254 675.949820
30.600000 664.750798 668.337138 671.699184 671.651661 675.167845 677.934226
30.700000 667.233850 670.823589 674.111906 674.028270 677.381510 679.801880
30.800000 669.460601 673.458264 676.570575 676.439622 679.608740 681.701269
30.900000 672.732151 676.067629 679.178470 678.956910 681.964148 683.799772
31.000000 675.586725 678.701501 681.524424 681.333047 683.913859 685.942682
31.100000 678.828047 681.564969 684.051589 683.915598 686.182355 688.205059
31.200000 681.843679 684.429050 686.571914 686.458035 688.588871 690.462521
31.300000 684.727057 686.913477 688.855184 688.900342 690.890531 692.857062
31.400000 686.915467 689.140900 691.001198 691.056578 693.024992 695.051061
31.500000 689.165253 691.265748 693.048650 693.090355 694.959223 697.029263
31.600000 691.093952 693.092510 694.931690 694.999043 696.858641 698.995997
31.700000 692.843757 694.949107 696.827564 696.875279 698.959071 700.932982
31.800000 694.877030 696.789473 698.784108 698.899653 700.973902 703.236604
31.900000 697.342342 699.108178 701.382122 701.389705 703.664504 705.832403
32.000000 699.916824 702.177674 704.754568 704.820415 707.454944 710.046145
32.100000 702.555091 705.224637 708.190474 708.137995 710.867411 713.455730
32.200000 708.181694 711.245779 713.662382 713.466058 715.609887 718.144523
32.300000 713.261226 715.127244 717.038091 717.035217 718.925007 720.920296
32.400000 716.099808 717.819838 719.566188 719.613437 721.364146 723.218574
32.500000 718.353355 720.356050 722.100975 721.999233 723.740519 725.154492
32.600000 720.772309 722.836158 724.587152 724.470275 725.977182 727.768884
32.700000 723.962543 725.572220 727.057521 727.130491 728.774881 731.015670
32.800000 726.389195 727.728981 729.216896 729.470605 731.227076 734.213230
32.900000 728.438866 729.872870 731.277949 731.662269 733.634672 736.754497
33.000000 730.497439 731.800132 733.613708 734.029644 736.363358 739.400596
33.100000 732.316865 733.968521 736.558933 736.759971 739.599656 742.266457
33.200000 734.812004 736.973801 740.180375 740.130724 743.170262 745.637907
33.300000 737.400837 740.292876 743.233696 743.152024 745.899083 748.540828
33.400000 740.166875 742.823864 745.606262 745.575380 748.253648 750.975477
33.500000 742.093153 744.910760 747.829908 747.811467 750.687962 753.115246
33.600000 744.183021 746.961181 749.939879 749.940928 752.741372 755.414413
33.700000 746.167477 749.113777 752.164282 752.095775 754.900859 757.877251
33.800000 748.509457 751.424413 754.371532 754.387965 757.238547 760.460932
33.900000 751.472266 754.399485 757.329899 757.326711 760.137954 763.397431
34.000000 755.176245 758.189111 761.162172 761.220245 764.233656 768.012064
34.100000 759.249377 762.084026 765.036485 765.197103 768.575617 771.418332
34.200000 762.564281 765.900424 768.991125 768.865850 771.924430 774.234989
34.300000 765.982169 769.295775 772.514462 772.087836 774.672473 776.501479
34.400000 769.617132 772.847020 775.324826 774.986777 776.973153 778.787006
34.500000 772.763197 775.769210 777.635311 777.465390 779.320575 780.894166
34.600000 775.991459 777.915252 779.476415 779.477582 781.179250 782.730927
34.700000 778.110165 779.881256 781.279576 781.334797 782.943022 784.444933
34.800000 780.165171 781.847242 783.256300 783.302030 784.859560 786.728719
34.900000 782.455012 784.129037 785.668645 785.781171 787.457305 789.604248
35.000000 786.090297 787.940821 789.895983 789.877604 791.762248 793.632404
35.100000 790.542641 792.602441 794.306528 794.268136 795.923143 797.529421
35.200000 793.622025 795.334621 796.780581 796.825064 798.467269 800.002297
35.300000 795.623931 797.234545 798.794445 798.796061 800.367017 801.956232
35.400000 797.204643 799.017835 800.680582 800.601114 802.190628 803.687852
35.500000 798.826008 800.661514 802.386788 802.343178 803.935622 805.704841
35.600000 800.510376 802.446543 804.089278 804.071512 805.783742 807.483125
35.700000 802.235573 804.169914 805.775248 805.782048 807.433362 809.169396
35.800000 804.095758 805.924114 807.558555 807.556018 809.133041 810.844444
35.900000 805.835901 807.694893 809.445959 809.442009 811.067506 812.926116
36.000000 807.823808 809.665653 811.563983 811.612731 813.434764 816.122406
36.100000 809.783194 811.536906 813.726995 814.041533 816.213972 821.274259
36.200000 812.064552 813.842643 816.878690 817.767879 822.534971 826.832181
36.300000 813.879382 815.871845 820.448868 821.286515 827.326588 831.346071
36.400000 815.439316 817.855375 825.105333 824.560694 830.812737 835.418980
36.500000 817.368214 820.135627 828.912824 827.747557 833.950956 838.079290
36.600000 819.655925 822.792279 831.696458 830.757762 837.068089 841.326874
36.700000 821.915435 825.650574 834.493831 833.702102 839.934268 843.969970
36.800000 824.408346 830.039145 837.095292 836.546901 842.532891 846.195888
36.900000 827.773754 833.985449 839.632351 839.456586 845.180979 848.934233
37.000000 831.922029 837.799496 842.975964 842.808786 848.336836 850.949669
37.100000 836.378938 841.305545 845.888072 845.932645 850.999963 853.019940
37.200000 840.572560 844.854791 850.145196 849.281871 853.374586 854.943856
37.300000 844.689691 848.755584 853.560402 852.582577 855.620129 856.975916
37.400000 848.166486 852.971513 856.042110 855.339370 857.496492 858.620004
37.500000 850.915308 856.036286 858.027149 857.532272 859.289266 860.345106
37.600000 853.926133 857.888708 859.796826 859.387024 860.960153 861.845593
37.700000 857.760829 859.960354 861.521926 861.249172 862.557986 863.317801
37.800000 861.593344 862.747776 863.832524 863.731407 864.706115 865.378047
37.900000 864.913847 866.017773 866.967743 866.996892 868.059489 869.114335
38.000000 868.146414 869.092557 870.194321 870.268115 871.355785 872.781588
38.100000 869.913760 871.052326 872.192055 872.275200 873.519847 875.078606
38.200000 871.586158 872.600251 873.783452 873.881391 875.233787 876.706426
38.300000 872.857252 874.077314 875.257576 875.373245 876.777980 878.256013
38.400000 874.142628 875.484700 876.711367 876.850257 878.212737 880.015396
38.500000 875.608765 876.816229 878.194464 878.356348 879.854951 882.057768
38.600000 877.154085 878.199466 879.700566 879.989967 881.617705 884.435953
38.700000 878.491097 879.726818 881.470324 881.851372 883.894417 887.701908
38.800000 880.037621 881.573934 883.803778 884.232142 887.007724 890.718583
38.900000 881.978994 884.047363 887.062160 887.267603 890.562787 893.391424
39.000000 884.698960 887.777330 891.369840 891.185450 894.405035 897.618016
39.100000 888.859437 893.439477 896.424672 896.348204 899.348736 902.417844
39.200000 895.198603 897.835917 900.462324 900.488160 903.043388 906.122836
39.300000 899.170822 901.460187 903.826878 904.003955 906.704217 909.164956
39.400000 902.092437 904.471745 907.002733 907.005720 909.592426 911.492318
39.500000 904.681790 907.359096 909.963858 909.743117 912.059733 913.404361
39.600000 907.293510 910.494991 912.760281 912.501506 914.435556 915.766310
39.700000 911.167405 913.721425 915.458952 915.501401 917.142751 920.324475
39.800000 914.704425 916.598770 918.640435 919.008516 921.486934 925.107646
39.900000 917.736837 920.065470 922.781193 922.812543 925.281946 928.785707
40.000000 922.576998 925.004588 927.643691 927.590359 930.100857 932.768262
40.100000 926.684059 929.231797 931.731996 931.808088 934.392445 937.034795
40.200000 931.096305 933.157134 935.442416 935.616240 938.379477 940.281663
40.300000 934.015090 935.436102 938.253074 938.077858 940.607177 942.086939
40.400000 935.792030 937.286880 940.172320 939.926561 942.340368 943.622656
40.500000 937.512233 939.108323 942.127398 941.773473 944.001646 945.177886
40.600000 939.807110 941.407821 944.237839 943.822570 945.766353 946.819749
40.700000 941.648361 944.097046 946.427221 946.083727 947.878024 949.069569
40.800000 943.844119 946.416112 948.339766 948.050960 949.622888 950.721843
40.900000 947.109733 948.895755 950.458812 950.287291 951.612880 952.709612
41.000000 949.566653 951.091764 952.399136 952.329401 953.588104 954.611609
41.100000 951.707545 953.005963 954.293622 954.232271 955.418473 956.374064
41.200000 953.881858 955.291333 956.340327 956.313043 957.383472 958.448982
41.300000 957.624967 958.461217 959.516985 959.833150 961.036782 964.734133
