depth(m) lower_95(kyr) lower_68(kyr) median(kyr) mean(kyr) upper_68(kyr) upper_95(kyr)
17.300000 285.977740 290.497795 293.901241 293.717957 297.027129 300.214741
17.400000 287.564524 292.089423 295.388267 295.163551 298.228591 301.459129
17.500000 289.142316 293.614716 296.776833 296.532829 299.487670 302.728269
17.600000 290.788883 295.265980 298.237350 297.980171 300.722269 304.006835
17.700000 292.436590 296.942968 299.617325 299.373530 301.893669 305.130388
17.800000 293.732925 298.608457 300.908038 300.748181 303.097308 306.132851
17.900000 295.701727 300.034028 302.096255 302.013214 304.184687 307.314265
18.000000 298.359737 301.427017 303.298469 303.291927 305.333554 308.343877
18.100000 299.842929 302.635289 304.466535 304.471637 306.511558 309.401751
18.200000 301.052887 303.792090 305.577103 305.613572 307.655537 310.360270
18.300000 302.392113 304.982554 306.651034 306.755009 308.706848 311.642544
18.400000 303.536255 306.146558 307.725184 307.863551 309.829711 312.768871
18.500000 304.755998 307.197261 308.794759 308.941239 310.938071 313.777463
18.600000 305.671996 308.260798 309.841623 309.989634 311.894647 314.741076
18.700000 306.800373 309.271397 310.932590 311.080878 313.067497 315.759837
18.800000 307.722722 310.444239 312.052147 312.234088 314.392110 317.036660
18.900000 308.987913 311.502161 313.244237 313.409914 315.548100 318.079205
19.033333 310.653591 313.067863 314.816717 315.004094 317.279656 319.568210
19.166667 312.239230 314.498217 316.346922 316.573220 318.978898 321.200222
19.300000 313.740665 315.998681 318.018369 318.161086 320.666110 322.933740
19.420000 315.127611 317.417109 319.532777 319.717172 322.237658 324.463166
19.540000 316.600453 318.889812 321.132575 321.335597 323.982014 326.726437
19.660000 318.216495 320.239831 322.767535 322.960506 325.707355 328.401084
19.780000 319.870813 321.863341 324.384809 324.624308 327.564504 330.030294
19.900000 321.636252 323.619391 326.134961 326.367655 329.327394 331.926340
20.000000 323.515673 325.677041 328.133220 328.189809 330.722160 333.356017
20.120000 325.445023 327.583866 330.251215 330.363480 332.762952 336.683738
20.240000 327.162450 329.753535 332.434516 332.651527 334.855072 342.629055
20.360000 329.123657 331.779435 334.336202 334.750941 336.812696 345.998256
20.480000 331.502602 334.124678 336.122328 336.959759 339.145746 349.124709
20.600000 335.134937 336.410919 337.902552 339.227196 341.556627 350.997172
20.700000 336.639419 338.019658 339.592851 341.086583 344.753414 352.704231
20.800000 338.016482 339.334250 341.216428 342.912531 347.635088 354.323574
20.925000 339.757417 341.363081 344.062027 345.493973 351.219156 356.416109
21.050000 341.505301 343.742785 347.458060 348.322210 353.743597 358.736130
21.175000 343.634130 346.532974 350.797926 351.177615 355.976575 360.473411
21.300000 345.851306 349.915444 353.957151 354.075978 358.455205 362.275949
21.400000 347.811962 352.211354 356.350647 356.305128 360.416870 363.944995
21.500000 350.092033 354.777816 358.465014 358.502107 362.277296 366.088165
21.600000 352.262743 356.928107 360.807687 360.830313 364.463356 369.242583
21.700000 355.006772 359.859127 363.644257 364.037228 368.304982 374.556639
21.800000 357.975902 362.765437 366.859268 367.463958 372.103210 379.999668
21.925000 362.772192 367.641671 373.845856 374.453293 381.478313 390.089433
22.050000 367.217898 372.861628 380.622789 381.423110 390.326776 400.067064
22.175000 372.309598 379.431988 387.075516 388.497352 398.525565 409.140339
22.300000 376.963089 386.620484 393.507487 395.596572 410.675531 413.972315
22.400000 383.797645 391.638685 397.579739 399.958851 413.210045 415.550163
22.500000 387.674813 397.466141 405.949209 405.481711 414.813832 416.969443
22.600000 391.823145 401.885240 413.843877 411.048553 416.641276 418.388740
22.700000 396.633984 412.785842 416.238305 414.472531 418.174689 419.589560
22.800000 400.517198 415.821743 418.142835 417.129464 419.708274 421.043051
22.900000 413.029718 417.724701 419.653904 418.906591 421.080616 422.518336
23.000000 415.831438 419.404079 421.130067 420.502433 422.550709 423.857665
23.100000 417.985640 420.970834 422.589606 422.055845 423.897206 425.376377
23.200000 420.342508 422.525524 424.070030 423.586114 425.370942 426.573703
23.300000 421.924257 424.018609 425.583692 425.153243 426.935126 428.122165
23.400000 423.495121 425.561474 427.031818 426.670788 428.441642 429.966895
23.525000 424.981341 427.346719 428.895915 428.791277 430.643068 433.133098
23.650000 426.834355 428.976783 430.816073 430.891283 433.109434 436.101991
23.775000 428.662569 430.813056 432.771572 433.027628 435.409205 438.933562
23.900000 430.732875 432.776363 434.887316 435.193540 437.861958 441.000765
24.000000 432.402092 434.370302 436.775679 436.994132 439.758964 442.753030
24.133333 434.625968 436.464675 439.309220 439.755128 443.146665 446.988312
24.266667 436.673047 438.694109 442.240629 442.551605 446.530822 449.967283
24.400000 438.510526 441.030815 445.171307 445.321212 449.530840 453.298653
24.533333 440.521831 443.335607 447.400477 447.623913 452.156175 456.220645
24.666667 442.412977 445.431294 449.716090 449.816904 454.521705 458.589654
24.800000 444.303086 447.484914 451.751617 451.941087 456.653526 460.680766
24.900000 445.831695 448.906935 453.280007 453.556549 458.406039 461.977071
25.000000 447.163371 450.375785 455.089091 455.230475 460.203720 463.972781
25.100000 448.952963 452.264310 456.860630 456.941693 461.948691 465.653088
25.200000 450.294247 453.883936 458.483133 458.612060 463.780284 467.275166
25.300000 451.818011 455.661006 460.079635 460.291598 465.243397 468.641512
25.400000 453.612093 457.411520 461.861015 462.042962 466.780471 470.190981
25.500000 455.518044 459.702661 463.883697 463.958757 468.638453 471.609838
25.600000 457.558164 461.727664 466.027592 465.983572 470.545841 473.328543
25.700000 459.558995 463.912787 468.295069 468.093813 472.484352 474.968575
25.800000 462.045988 466.125183 470.501740 470.299723 474.545331 476.927808
25.900000 465.416035 468.808001 473.148614 472.988683 476.769719 480.110567
26.000000 468.501031 471.850670 475.675080 475.733027 479.195696 484.003834
26.100000 471.375323 475.086920 478.258706 478.598996 481.907959 488.554314
26.200000 474.389278 477.956787 481.170314 482.034689 486.722327 493.625105
26.300000 477.893244 480.580930 484.091312 485.748940 492.955792 497.496605
26.400000 480.224092 482.742232 486.962749 488.918600 496.889623 500.903830
26.500000 482.671542 485.410011 490.638180 492.180396 499.823514 503.472400
26.600000 487.266960 489.867685 495.041615 495.941571 502.235586 505.764537
26.700000 490.536327 495.034229 500.921757 500.323926 505.071722 508.510871
26.800000 495.404524 500.933943 506.168373 505.603814 509.744099 514.307660
26.900000 498.496809 504.800205 508.655218 508.820322 513.232537 518.930562
27.000000 502.316359 507.076080 510.886413 511.578937 516.692394 523.072979
27.100000 506.062329 509.102309 512.863724 514.175642 520.420722 526.406466
27.200000 508.474783 511.106990 514.900586 516.685101 524.437110 529.702634
27.300000 510.257978 512.916871 517.243290 519.092063 527.450583 531.565819
27.400000 511.660929 514.603359 520.109759 521.618917 529.641708 533.536655
27.500000 513.447077 516.643976 524.072157 524.134014 531.625323 535.184746
27.600000 515.178962 518.906771 527.329266 526.632929 533.533497 536.672380
27.700000 517.027668 521.559043 530.271527 529.091605 535.260556 538.695590
27.800000 518.519480 524.680527 532.515659 531.293566 537.025364 540.571353
27.900000 520.845073 527.313449 534.461316 533.391255 538.767445 541.997544
28.033333 524.211326 530.428373 536.880859 536.016120 540.980587 544.123900
28.166667 527.972087 533.406081 539.397068 538.631889 543.328522 546.162842
28.300000 532.286761 536.456147 542.021178 541.317010 545.448704 548.279917
28.400000 535.492738 539.300975 544.002170 543.481402 547.221010 549.890889
28.500000 537.680625 541.609725 546.014027 545.496711 549.017629 551.631263
28.600000 540.077143 544.162695 548.037306 547.620601 550.840934 553.212788
28.700000 542.334198 546.951133 550.338844 549.862798 552.779540 555.068294
28.800000 544.885965 549.394308 552.558159 552.099459 554.772001 557.144187
28.900000 547.986308 551.977799 554.762689 554.643814 557.346259 560.035369
29.000000 551.411140 554.836454 557.515018 557.472780 560.074381 563.320395
29.100000 554.030615 557.101654 559.795918 560.007088 562.768494 566.863001
29.200000 556.982986 559.582396 562.092378 562.608065 565.534014 570.577676
29.300000 559.433552 562.102900 564.352273 565.390493 568.903385 577.652256
29.400000 561.796183 564.136279 566.348953 568.091104 573.297945 581.849621
29.500000 563.731641 565.809187 568.077382 571.044309 581.399846 589.464168
29.600000 565.683070 567.822572 570.273746 573.642596 585.228375 594.024248
29.700000 567.838605 570.063755 572.594356 576.338603 589.419807 597.398441
29.800000 569.903467 572.388641 575.013134 579.063098 593.465182 599.594504
29.900000 572.122448 574.634392 577.572786 581.855295 596.990810 601.894336
30.000000 574.775299 577.330627 580.118228 584.957961 599.836542 604.040927
30.100000 578.068347 580.047092 583.814778 588.458056 601.978716 605.808178
30.200000 581.499907 583.924661 591.744932 593.366983 604.182171 607.813723
30.300000 584.668661 589.660440 598.608328 598.301632 606.936606 609.711415
30.400000 589.762390 595.509348 604.786820 603.097090 609.523619 611.593922
30.500000 595.662681 601.845726 609.058810 607.508378 612.030943 613.853381
30.600000 600.920794 607.539427 612.075344 611.049527 614.250670 615.711380
30.700000 605.846972 611.687471 614.658887 613.921800 616.258523 617.443596
30.800000 611.114064 615.182611 617.036655 616.616739 618.280762 619.289329
30.900000 616.237040 618.335922 619.655051 619.472535 620.613900 621.949017
31.000000 619.676210 620.922229 622.107915 622.391577 623.569281 627.556441
31.100000 621.679373 622.923773 624.366861 625.677411 628.145051 639.220236
31.200000 623.278672 625.085138 627.553565 629.565503 635.270762 644.474631
31.300000 625.160172 627.220713 632.228353 633.577784 640.629607 648.393642
31.400000 627.193026 629.516798 636.139589 637.099448 644.910653 652.128398
31.500000 629.292979 632.707227 640.177943 640.713244 648.607463 655.254213
31.600000 632.046671 636.191743 644.275863 644.251569 651.762121 658.733273
31.700000 634.749995 639.562092 647.860086 647.688986 655.018040 663.145975
31.800000 638.977777 644.997695 652.275962 652.431799 659.672189 667.099921
31.925000 644.970864 651.401258 659.477287 659.435572 667.294756 674.456320
32.050000 651.020682 659.153101 667.160297 666.796163 674.055912 680.219333
32.175000 660.050737 667.228144 673.926448 673.726195 679.811905 686.673089
32.300000 670.703917 675.642542 680.021332 680.391486 684.765188 694.821849
32.400000 674.595381 678.969508 683.400810 683.983411 688.127427 700.592264
32.500000 677.517894 681.749815 686.460192 687.399042 692.145885 704.024054
32.600000 679.964795 684.371576 689.048761 690.598461 695.974987 711.304754
32.733333 684.094067 688.258722 692.649894 694.911571 699.624364 719.100686
32.866667 688.326232 692.843103 697.348844 699.570579 703.154596 725.426086
33.000000 693.398887 697.915857 701.780764 704.193661 706.107512 729.816201
33.100000 698.534608 703.072828 705.669654 708.171223 709.337809 732.160223
33.200000 703.380828 706.032094 708.471504 711.241991 712.594295 734.275704
33.300000 706.108896 708.501469 710.905789 714.076343 724.086151 736.323315
33.400000 708.317325 710.697504 713.159534 716.665877 727.946801 738.340722
33.544444 711.455330 713.984806 717.700935 721.072363 732.072480 741.286945
33.688889 714.424072 717.451543 723.150425 725.663598 736.902341 744.065341
33.833333 717.240947 721.244523 729.125598 730.198136 740.916567 746.932938
33.977778 720.178960 725.632131 734.657465 734.889407 744.440641 749.607512
34.122222 723.700181 730.694244 740.064644 739.459264 747.928162 752.151046
34.266667 728.720310 736.136564 745.078818 744.052128 751.286499 755.039734
34.411111 734.402480 742.444017 749.904373 748.762051 754.798110 758.196904
34.555556 739.689345 748.376257 754.184252 753.225339 757.714255 761.404466
34.700000 746.930748 754.461974 758.134135 757.592665 761.077566 764.126449
34.800000 752.646781 757.561627 760.627840 760.340436 763.478629 766.279016
34.900000 756.510676 759.937635 762.759331 762.700503 765.619054 768.282763
35.000000 759.575642 762.460687 765.276878 765.165531 767.856735 770.235020
35.100000 761.744434 764.575082 767.429950 767.287441 769.940856 772.254583
35.200000 764.099230 766.666602 769.434346 769.316857 771.945020 774.317541
35.300000 766.034052 768.790788 771.312411 771.227543 773.745465 776.026989
35.400000 767.877469 771.048712 773.313580 773.305530 775.529487 778.066362
35.500000 771.615871 773.786929 775.779329 775.833225 777.980117 780.361696
35.600000 774.641843 776.605339 778.785100 778.745331 780.918220 782.903879
35.700000 777.172560 779.219465 781.477017 781.319805 783.371657 785.062401
35.800000 779.967488 781.930079 784.021410 783.883389 785.768504 787.034450
35.900000 783.822030 785.764049 787.317570 787.194430 788.709975 789.865427
36.000000 787.350117 788.586983 789.887266 789.828884 791.036912 792.186261
36.020000 787.813283 789.054923 790.312702 790.292813 791.481269 792.700629
36.120000 789.551150 790.802417 792.076600 792.033955 793.260011 794.412280
36.220000 791.138715 792.403967 793.731159 793.715299 794.938590 796.419771
36.348571 792.942171 794.432868 795.916219 795.911235 797.374834 799.022023
36.477143 795.013948 796.513722 798.075174 798.127050 799.601376 801.639913
36.605714 797.114974 798.564121 800.187525 800.280499 801.803296 804.177199
36.734286 798.925165 800.600037 802.274340 802.437264 804.100365 806.613612
36.862857 800.936616 802.672826 804.413120 804.648122 806.360591 809.585910
36.991429 803.248523 804.800346 806.588679 806.814253 808.483049 812.249564
37.120000 805.203854 806.975653 808.799305 809.032251 810.708057 814.332119
37.220000 806.968931 808.604419 810.497124 810.670191 812.275675 815.885694
37.320000 808.435439 810.341709 812.120382 812.318046 813.984652 818.265707
37.420000 810.064220 812.008241 813.684418 813.917068 815.462580 819.571539
37.520000 811.886259 813.565756 815.296267 815.610846 817.207736 823.125822
37.620000 813.433652 815.203049 817.110274 817.522320 819.232067 826.524225
37.720000 815.190175 816.907609 818.973731 819.491312 821.327390 829.589523
37.820000 817.435498 819.218872 821.074592 821.762330 823.734441 831.854222
37.920000 819.468228 821.064637 823.138112 824.031677 826.802917 834.828998
38.020000 821.303427 823.042714 825.251757 826.334225 829.896411 837.257385
38.120000 823.256818 825.315569 827.883691 828.889071 832.828864 839.258054
38.220000 825.108993 827.328848 830.883586 831.611493 835.825020 841.597979
38.320000 827.217343 829.818109 833.961890 834.490401 838.606009 845.664060
38.420000 829.215860 832.473746 837.412693 837.918820 842.672322 851.277787
38.564444 832.164168 837.069132 844.061087 845.451233 853.918797 866.565183
38.708889 835.536344 842.679421 852.576314 853.586175 864.808197 876.742881
38.853333 839.097926 848.469337 861.490933 861.764682 874.704066 886.468954
38.997778 842.880716 855.395281 870.419494 870.042735 883.622453 897.504420
39.142222 846.083420 863.328158 879.139208 878.268483 892.747702 907.683086
39.286667 851.124866 871.202171 887.786755 886.392541 901.400258 916.293574
39.431111 855.287250 878.451405 895.533578 894.151342 909.856646 924.158848
39.575556 860.163298 887.818662 902.977394 902.268636 921.345386 930.758181
39.720000 865.818815 900.494759 909.557321 909.966820 929.277980 936.001378
39.862857 873.465870 905.388443 916.813953 916.858307 934.351567 939.286399
40.005714 884.158683 911.592000 924.172411 923.060610 938.226671 942.759055
40.148571 893.859785 917.911193 931.620486 929.230664 941.377250 945.553017
40.291429 908.047407 924.684791 937.831220 935.191827 944.964257 948.684588
40.434286 917.863503 932.451567 943.305802 941.044832 948.472720 952.191327
40.577143 928.852653 941.235507 947.964573 946.749756 951.846368 954.844546
40.720000 941.376431 949.119037 952.269852 952.134403 955.302422 957.443794
40.840000 945.967892 952.045043 955.097169 955.370257 958.501249 969.538287
40.960000 950.105287 954.723566 957.995974 958.500296 961.782012 975.548003
41.080000 953.883266 957.054628 960.684404 961.535370 965.106325 982.285882
41.200000 957.038739 959.413835 963.266061 964.309198 967.898955 984.728919
41.320000 959.627338 961.767805 965.973222 967.264370 970.693219 989.499888
41.462857 961.946528 964.573592 969.228848 970.743796 974.796012 995.701161
41.605714 964.233613 967.191312 972.279908 974.067756 978.708014 1000.668461
41.748571 966.575957 969.966834 975.445973 977.366527 982.394299 1005.731675
41.891429 969.005790 972.634986 978.541518 980.694885 986.333761 1009.594963
42.034286 971.420735 975.221253 981.648786 984.007010 989.843598 1013.791432
42.177143 973.740201 978.221997 984.922245 987.244379 992.672432 1017.552159
42.320000 976.250854 981.225767 988.337266 990.595140 996.713357 1020.954234
42.420000 978.006228 983.350481 990.880944 993.098715 999.112018 1023.600531
42.560000 980.523319 986.306388 994.203918 996.482275 1003.554893 1028.192115
42.700000 982.642965 989.625454 997.379382 999.825179 1008.705634 1031.001606
42.840000 985.907785 993.032422 1000.420004 1003.232084 1013.815180 1033.868007
42.980000 988.398863 996.377003 1003.992824 1006.848451 1019.242417 1036.791291
43.120000 991.209137 999.864000 1007.167658 1010.394728 1024.690175 1039.962468
43.260000 994.196486 1003.151432 1010.740730 1013.975089 1030.808499 1042.839428
43.400000 997.568853 1006.515748 1014.378809 1017.741329 1036.061908 1045.538424
43.540000 1000.690457 1010.194174 1017.766612 1021.592433 1041.111410 1048.678956
43.680000 1004.429892 1014.260008 1021.882437 1025.641554 1045.949886 1051.646926
43.820000 1007.213862 1017.887068 1026.578234 1029.754473 1049.938715 1054.529258
43.953333 1009.865771 1020.493404 1034.754455 1035.808897 1053.302890 1056.740765
44.086667 1012.797327 1022.637614 1046.892857 1042.583049 1056.667791 1059.356880
44.220000 1016.638161 1024.972123 1055.210076 1048.807387 1059.895535 1061.806059
44.320000 1019.914877 1026.590549 1059.001062 1051.907636 1061.957706 1063.509816
44.420000 1022.666656 1028.824921 1061.718778 1054.529957 1063.906031 1065.337139
44.520000 1025.688664 1031.115528 1063.797769 1056.792215 1065.681547 1067.130599
44.645000 1030.843653 1044.765937 1066.024164 1060.670503 1068.077832 1069.840111
44.770000 1037.582480 1054.378559 1068.285878 1064.450588 1070.401145 1072.349490
44.895000 1047.543851 1065.206716 1070.676470 1068.410824 1072.874200 1074.797411
45.020000 1055.861969 1070.676224 1073.409676 1072.379324 1075.344398 1076.993414
45.120000 1062.377519 1073.114788 1075.870456 1075.023876 1078.080073 1080.490255
45.220000 1064.295918 1074.925087 1077.961644 1077.355715 1080.818478 1084.606469
45.320000 1066.054047 1076.784120 1079.979419 1079.663992 1083.300870 1088.861085
45.420000 1068.757926 1078.861565 1082.317363 1082.170964 1086.091772 1092.926942
45.540000 1071.496146 1081.194008 1085.670870 1085.854851 1090.994687 1098.480284
45.660000 1073.919298 1083.572306 1090.149287 1089.779550 1096.605008 1101.820022
45.780000 1075.784513 1085.808584 1094.845604 1093.855599 1101.127103 1104.847532
45.900000 1077.740838 1088.192375 1100.210698 1097.826528 1104.856548 1107.667996
46.020000 1079.851678 1090.447197 1105.141449 1101.823294 1108.050313 1110.844792
46.120000 1082.818708 1092.749829 1107.781672 1104.465409 1110.624596 1113.973463
