depth(m) lower_95(kyr) lower_68(kyr) median(kyr) mean(kyr) upper_68(kyr) upper_95(kyr)
3361.250000 294.457887 295.619978 296.545466 296.494895 297.358745 298.395334
3361.392857 294.475622 295.639061 296.566711 296.515221 297.383844 298.421085
3361.535714 294.493676 295.656134 296.595130 296.534552 297.398566 298.441422
3361.678571 294.535965 295.676957 296.616365 296.553966 297.421685 298.461420
3361.821429 294.558307 295.690341 296.637797 296.573584 297.437350 298.472488
3361.964286 294.570950 295.709099 296.662216 296.593601 297.451435 298.484912
3362.107143 294.633337 295.730491 296.675726 296.613332 297.467049 298.516726
3362.250000 294.672393 295.753332 296.692234 296.632515 297.489863 298.549875
3362.392857 294.693233 295.776902 296.708401 296.652151 297.501595 298.563007
3362.535714 294.717093 295.793703 296.724635 296.671507 297.512280 298.580258
3362.678571 294.742999 295.810305 296.739765 296.690391 297.534268 298.592330
3362.821429 294.760797 295.838272 296.757022 296.709640 297.568480 298.606324
3362.964286 294.778638 295.855976 296.771265 296.729405 297.588499 298.620825
3363.107143 294.802321 295.880196 296.788488 296.748349 297.611332 298.634481
3363.250000 294.852118 295.900543 296.804851 296.767970 297.629146 298.657851
3363.392857 294.871526 295.921446 296.823237 296.787436 297.642021 298.674929
3363.535714 294.894518 295.942945 296.843121 296.806766 297.657030 298.698017
3363.678571 294.911858 295.958118 296.856669 296.825219 297.667153 298.728408
3363.821429 294.921502 295.973041 296.871134 296.844218 297.680558 298.737475
3363.964286 294.934139 295.987970 296.886544 296.863773 297.695875 298.756783
3364.107143 294.944064 296.007035 296.902160 296.882940 297.727072 298.779392
3364.250000 294.956077 296.019068 296.923240 296.902544 297.752433 298.794045
3364.392857 294.962581 296.029814 296.940840 296.920922 297.778063 298.810802
3364.535714 294.977796 296.047394 296.956095 296.939840 297.790595 298.833400
3364.678571 295.002443 296.059577 296.976496 296.958862 297.811044 298.850034
3364.821429 295.048383 296.075693 296.995616 296.977228 297.829769 298.872460
3364.964286 295.108516 296.095205 297.011379 296.996706 297.848958 298.887552
3365.107143 295.133460 296.118667 297.030305 297.016686 297.876102 298.912508
3365.250000 295.173317 296.142783 297.047631 297.036302 297.889597 298.942481
3365.392857 295.205929 296.156319 297.061804 297.055897 297.905947 298.961492
3365.535714 295.217573 296.172368 297.079145 297.076998 297.937344 298.978214
3365.678571 295.233088 296.184661 297.098602 297.096409 297.949707 298.991807
3365.821429 295.243611 296.209369 297.119721 297.115943 297.963082 299.004745
3365.964286 295.252821 296.231650 297.137220 297.134380 297.973941 299.023371
3366.107143 295.273074 296.250842 297.156243 297.153687 297.989439 299.046328
3366.250000 295.283336 296.265236 297.165887 297.173238 298.001932 299.061445
3366.392857 295.323561 296.281649 297.188476 297.193615 298.023645 299.080495
3366.535714 295.338138 296.293522 297.203089 297.212920 298.054139 299.096183
3366.678571 295.395491 296.307373 297.218915 297.231835 298.070035 299.120611
3366.821429 295.425564 296.321382 297.230695 297.251521 298.089168 299.134284
3366.964286 295.440824 296.334667 297.246861 297.270213 298.107560 299.152372
3367.107143 295.466049 296.350280 297.259600 297.288948 298.135484 299.166055
3367.250000 295.507668 296.360663 297.274153 297.308059 298.169412 299.182694
3367.392857 295.520635 296.372358 297.288519 297.328325 298.191955 299.203007
3367.535714 295.537184 296.387844 297.302384 297.347445 298.200264 299.220782
3367.678571 295.546893 296.404142 297.317688 297.366703 298.221959 299.248303
3367.821429 295.574319 296.419547 297.330583 297.385967 298.249750 299.263769
3367.964286 295.601330 296.444580 297.342954 297.405798 298.282922 299.295126
3368.107143 295.636130 296.461953 297.360463 297.425895 298.311405 299.322705
3368.250000 295.653674 296.476551 297.380655 297.445672 298.326830 299.337377
3368.392857 295.679914 296.494752 297.398102 297.465297 298.353776 299.348750
3368.535714 295.701862 296.511931 297.416414 297.484304 298.372435 299.365575
3368.678571 295.744567 296.531737 297.431265 297.504623 298.406829 299.384289
3368.821429 295.772773 296.546553 297.448898 297.524557 298.437298 299.395194
3368.964286 295.797753 296.567691 297.465526 297.543803 298.450960 299.409495
3369.107143 295.811288 296.592400 297.482157 297.564880 298.480969 299.422503
3369.250000 295.825477 296.609607 297.497132 297.585179 298.518455 299.435202
3369.392857 295.836882 296.630390 297.516372 297.605288 298.567050 299.447229
3369.535714 295.858462 296.647634 297.533963 297.624994 298.584233 299.464766
3369.678571 295.889316 296.662942 297.552505 297.645119 298.602469 299.474091
3369.821429 295.933096 296.693565 297.573828 297.665991 298.617240 299.483897
3369.964286 295.947908 296.714958 297.593957 297.685860 298.631620 299.503677
3370.107143 295.975896 296.743798 297.610004 297.704641 298.652866 299.515523
3370.250000 295.986644 296.757882 297.627502 297.724523 298.683835 299.528660
3370.392857 296.020538 296.780033 297.645269 297.744999 298.705146 299.544937
3370.535714 296.042733 296.799644 297.659444 297.765170 298.724887 299.569384
3370.678571 296.081037 296.821163 297.683024 297.785314 298.743258 299.584622
3370.821429 296.114949 296.840293 297.703632 297.805066 298.771938 299.598437
3370.964286 296.142815 296.858729 297.718664 297.824689 298.794615 299.615020
3371.107143 296.209708 296.876918 297.730618 297.845059 298.816283 299.634080
3371.250000 296.239289 296.899100 297.760399 297.865096 298.848626 299.653604
3371.392857 296.254873 296.924782 297.783567 297.885008 298.870297 299.669894
3371.535714 296.281613 296.961936 297.797747 297.904448 298.883221 299.685708
3371.678571 296.301929 296.981351 297.824234 297.924370 298.924479 299.696065
3371.821429 296.321055 297.014626 297.841167 297.945275 298.939887 299.711322
3371.964286 296.336950 297.031719 297.856521 297.966245 298.973624 299.725976
3372.107143 296.357125 297.044484 297.872399 297.986611 298.999815 299.737518
3372.250000 296.369026 297.073855 297.885554 298.006569 299.038671 299.753468
3372.392857 296.389071 297.097622 297.898325 298.026769 299.067072 299.769633
3372.535714 296.405866 297.127796 297.916622 298.046119 299.076950 299.788333
3372.678571 296.423458 297.160369 297.933791 298.066288 299.109277 299.808893
3372.821429 296.445737 297.172762 297.946031 298.087001 299.129633 299.835547
3372.964286 296.465308 297.197764 297.963163 298.107096 299.155367 299.870043
3373.107143 296.485309 297.243038 297.980035 298.127521 299.165200 299.894290
3373.250000 296.498893 297.261491 298.002225 298.147296 299.187924 299.954768
3373.392857 296.526217 297.280620 298.027153 298.167672 299.208325 299.994835
3373.535714 296.556120 297.311041 298.049181 298.187456 299.221803 300.005349
3373.678571 296.571530 297.330084 298.072847 298.207894 299.235698 300.020922
3373.821429 296.595685 297.352974 298.104462 298.227820 299.258525 300.033738
3373.964286 296.609131 297.388630 298.128137 298.247873 299.278047 300.045841
3374.107143 296.631991 297.415885 298.142842 298.269008 299.317874 300.067547
3374.250000 296.667413 297.438840 298.167450 298.289349 299.346023 300.118478
3374.392857 296.691391 297.462676 298.182343 298.309653 299.362594 300.135456
3374.535714 296.737346 297.488450 298.206272 298.329704 299.371799 300.166141
3374.678571 296.753919 297.512869 298.230199 298.349591 299.393865 300.185088
3374.821429 296.762095 297.531600 298.252344 298.370047 299.414277 300.203286
3374.964286 296.774796 297.562752 298.272014 298.389987 299.433145 300.219146
3375.107143 296.787815 297.584177 298.292131 298.411291 299.462695 300.232149
3375.250000 296.806875 297.622758 298.311332 298.432158 299.481549 300.243526
3375.392857 296.829253 297.638305 298.333607 298.453310 299.493641 300.258074
3375.535714 296.842301 297.659485 298.355585 298.474370 299.527667 300.271181
3375.678571 296.862981 297.701175 298.380958 298.495486 299.546318 300.287007
3375.821429 296.877764 297.717471 298.402733 298.517110 299.563717 300.311751
3375.964286 296.901120 297.733386 298.419507 298.537729 299.586665 300.343300
3376.107143 296.931412 297.752505 298.433271 298.557885 299.614771 300.376586
3376.250000 296.946946 297.770387 298.453002 298.578355 299.632507 300.395179
3376.392857 296.965881 297.785493 298.471939 298.598745 299.652166 300.417807
3376.535714 296.994646 297.800461 298.489349 298.619733 299.669340 300.437502
3376.678571 297.015910 297.823112 298.510643 298.640758 299.697070 300.456484
3376.821429 297.044953 297.847566 298.531578 298.661062 299.715617 300.484019
3376.964286 297.060594 297.860949 298.558605 298.681915 299.730493 300.498128
3377.107143 297.081770 297.884385 298.576946 298.703803 299.743096 300.509757
3377.250000 297.096113 297.906530 298.589951 298.725776 299.772011 300.535897
3377.392857 297.119837 297.928695 298.614706 298.748095 299.787308 300.583594
3377.535714 297.141235 297.944334 298.633498 298.769313 299.813357 300.602150
3377.678571 297.193443 297.963300 298.656341 298.791188 299.827747 300.629439
3377.821429 297.214618 297.976214 298.683475 298.812708 299.850360 300.651355
3377.964286 297.237195 297.999399 298.712646 298.834547 299.869475 300.673016
3378.107143 297.266097 298.015395 298.735395 298.857005 299.890274 300.699843
3378.250000 297.283714 298.036459 298.759015 298.879055 299.912437 300.731092
3378.392857 297.294779 298.057085 298.771875 298.901296 299.935198 300.742921
3378.535714 297.319211 298.075019 298.805669 298.922822 299.968551 300.749401
3378.678571 297.339575 298.086653 298.826520 298.944199 299.978159 300.767030
3378.821429 297.369438 298.101534 298.845724 298.966453 299.994413 300.806280
3378.964286 297.385380 298.123435 298.866720 298.989786 300.014762 300.833275
3379.107143 297.402534 298.140096 298.887424 299.012436 300.028800 300.856876
3379.250000 297.433725 298.156292 298.906796 299.034433 300.046649 300.897560
3379.392857 297.457353 298.177377 298.921161 299.056605 300.069403 300.917121
3379.535714 297.486253 298.188482 298.951933 299.078475 300.098221 300.937995
3379.678571 297.502831 298.211798 298.971682 299.100761 300.132067 300.963769
3379.821429 297.518192 298.231244 298.989459 299.122832 300.150431 300.995035
3379.964286 297.548182 298.249324 299.012326 299.144595 300.166272 301.022612
3380.107143 297.583173 298.267018 299.042960 299.166865 300.192267 301.043992
3380.250000 297.595987 298.286004 299.058991 299.188989 300.209113 301.057436
3380.392857 297.602575 298.307823 299.078021 299.211815 300.228600 301.081179
3380.535714 297.634453 298.317595 299.111543 299.234195 300.269234 301.107143
3380.678571 297.656153 298.348889 299.132240 299.256261 300.289494 301.133241
3380.821429 297.677699 298.369796 299.152244 299.279758 300.309543 301.169872
3380.964286 297.691783 298.412159 299.177118 299.302800 300.334148 301.192943
3381.107143 297.708360 298.433424 299.195608 299.327134 300.348992 301.233891
3381.250000 297.719294 298.449021 299.220317 299.350739 300.371178 301.246072
3381.392857 297.729408 298.479037 299.241481 299.373637 300.384805 301.263706
3381.535714 297.743567 298.517597 299.259386 299.398056 300.415250 301.273980
3381.678571 297.758608 298.533579 299.280922 299.419769 300.435333 301.287919
3381.821429 297.772717 298.555580 299.295542 299.442649 300.459079 301.299820
3381.964286 297.786875 298.576078 299.315658 299.464754 300.476321 301.338289
3382.107143 297.809842 298.593144 299.331199 299.487118 300.495839 301.363495
3382.250000 297.821282 298.614006 299.343709 299.510158 300.516474 301.404553
3382.392857 297.837057 298.637305 299.367523 299.534376 300.540849 301.443401
3382.535714 297.863651 298.659307 299.390645 299.556616 300.563367 301.500567
3382.678571 297.897054 298.674977 299.421243 299.580304 300.591071 301.532048
3382.821429 297.925243 298.691510 299.452808 299.603739 300.610599 301.551865
3382.964286 297.950374 298.710883 299.484983 299.626681 300.629345 301.566161
3383.107143 297.972490 298.731447 299.506388 299.650473 300.652751 301.578356
3383.250000 298.000248 298.742568 299.527601 299.674395 300.673184 301.593477
3383.392857 298.017538 298.763540 299.569388 299.699234 300.712029 301.602677
3383.535714 298.024403 298.778670 299.598123 299.722588 300.734667 301.635828
3383.678571 298.044388 298.801387 299.626297 299.746570 300.770728 301.692653
3383.821429 298.087877 298.819364 299.651011 299.770005 300.785094 301.733066
3383.964286 298.131523 298.848736 299.674813 299.793839 300.799158 301.742853
3384.107143 298.162218 298.868748 299.702200 299.817793 300.826871 301.754409
3384.250000 298.200649 298.889545 299.740326 299.840397 300.849186 301.787983
3384.392857 298.225173 298.903269 299.769781 299.863921 300.866337 301.797226
3384.535714 298.252370 298.922998 299.804259 299.888075 300.888483 301.826201
3384.678571 298.269956 298.953180 299.827220 299.911974 300.915734 301.852540
3384.821429 298.286518 298.981304 299.852626 299.935627 300.931627 301.896058
3384.964286 298.312773 299.002833 299.872704 299.959383 300.952576 301.941177
3385.107143 298.353908 299.021229 299.888920 299.983111 300.971066 301.962690
3385.250000 298.367209 299.054274 299.917815 300.008108 301.003326 301.981115
3385.392857 298.386061 299.075745 299.932804 300.032173 301.018171 301.992473
3385.535714 298.400629 299.113352 299.955349 300.056095 301.047356 302.050861
3385.678571 298.421502 299.139208 299.981781 300.080394 301.073339 302.067403
3385.821429 298.449074 299.162573 299.998893 300.104161 301.085077 302.101804
3385.964286 298.477053 299.190861 300.029208 300.128662 301.098466 302.132226
3386.107143 298.497375 299.214441 300.060731 300.152030 301.126744 302.173728
3386.250000 298.515255 299.235445 300.092755 300.175919 301.142252 302.193026
3386.392857 298.527895 299.275301 300.124149 300.199261 301.162787 302.212579
3386.535714 298.545984 299.292671 300.148322 300.223096 301.176934 302.249039
3386.678571 298.584581 299.325600 300.176784 300.246601 301.191465 302.303778
3386.821429 298.600584 299.350238 300.195688 300.271631 301.210164 302.333454
3386.964286 298.616280 299.385703 300.227481 300.295625 301.237109 302.352413
3387.107143 298.626168 299.402351 300.249218 300.320853 301.255853 302.366066
3387.250000 298.644093 299.421140 300.267332 300.344686 301.288131 302.387147
3387.392857 298.672085 299.473903 300.288231 300.370371 301.311589 302.412777
3387.535714 298.683167 299.504767 300.307629 300.396232 301.327122 302.456623
3387.678571 298.696624 299.525843 300.333868 300.420817 301.338065 302.483677
3387.821429 298.729178 299.568032 300.356414 300.445814 301.359816 302.502289
3387.964286 298.773610 299.586121 300.384860 300.470795 301.393073 302.531030
3388.107143 298.794381 299.607117 300.403892 300.495474 301.418569 302.551806
3388.250000 298.812243 299.650345 300.423483 300.519988 301.439837 302.570629
3388.392857 298.846345 299.670962 300.447368 300.544753 301.490091 302.589987
3388.535714 298.885902 299.692651 300.475298 300.569531 301.518149 302.642302
3388.678571 298.907285 299.720174 300.503863 300.594954 301.539404 302.667133
3388.821429 298.960579 299.748848 300.531154 300.620536 301.559739 302.708594
3388.964286 299.001064 299.784347 300.558208 300.645773 301.583215 302.749734
3389.107143 299.028323 299.810599 300.588691 300.672096 301.600180 302.788110
3389.250000 299.044042 299.830883 300.619186 300.697527 301.613899 302.812900
3389.392857 299.077987 299.857138 300.642783 300.723832 301.632941 302.839036
3389.535714 299.096047 299.879362 300.675337 300.749978 301.652523 302.867011
3389.678571 299.124539 299.901669 300.693859 300.775076 301.682872 302.907896
3389.821429 299.151533 299.920634 300.717598 300.799818 301.705247 302.940952
3389.964286 299.201410 299.947935 300.746555 300.825406 301.721165 302.954910
3390.107143 299.235491 299.967501 300.768920 300.851640 301.737562 302.974105
3390.250000 299.248541 299.984782 300.796713 300.877700 301.760938 302.999207
3390.392857 299.277397 300.005743 300.837886 300.904576 301.774786 303.042991
3390.535714 299.297537 300.026625 300.873492 300.931218 301.787361 303.075509
3390.678571 299.318672 300.045046 300.907662 300.959242 301.810059 303.089076
3390.821429 299.341571 300.068344 300.934293 300.986134 301.835998 303.101906
3390.964286 299.390909 300.093200 300.960612 301.013386 301.869713 303.115457
3391.107143 299.413072 300.117944 300.989235 301.040435 301.898739 303.131352
3391.250000 299.433962 300.131999 301.019321 301.067704 301.923732 303.146723
3391.392857 299.463268 300.160695 301.046742 301.094772 301.960991 303.170385
3391.535714 299.500115 300.178983 301.073479 301.121533 301.996718 303.193432
3391.678571 299.516183 300.194150 301.091975 301.148595 302.031078 303.233525
3391.821429 299.531140 300.220644 301.119862 301.176475 302.058261 303.278208
3391.964286 299.551883 300.258229 301.136954 301.204304 302.096372 303.309345
3392.107143 299.563089 300.290754 301.168614 301.230930 302.126671 303.340388
3392.250000 299.574346 300.328932 301.195549 301.257706 302.158889 303.363828
3392.392857 299.615374 300.363381 301.229169 301.285522 302.195003 303.400361
3392.535714 299.654938 300.394674 301.256693 301.312224 302.212780 303.418539
3392.678571 299.673616 300.411849 301.281875 301.339920 302.230216 303.433889
3392.821429 299.716488 300.462074 301.307972 301.368714 302.278034 303.472847
3392.964286 299.743675 300.491855 301.340635 301.395705 302.293652 303.498113
3393.107143 299.756889 300.507446 301.362252 301.422794 302.312353 303.525215
3393.250000 299.772910 300.519141 301.384875 301.450424 302.345357 303.541130
3393.392857 299.798432 300.542268 301.410155 301.477932 302.367736 303.572480
3393.535714 299.830438 300.564083 301.427973 301.505543 302.392700 303.593117
3393.678571 299.848633 300.605567 301.453303 301.531835 302.424220 303.607928
3393.821429 299.879367 300.630813 301.479623 301.559161 302.448268 303.625846
3393.964286 299.917721 300.657713 301.507678 301.586808 302.479424 303.671783
3394.107143 299.934935 300.685334 301.527362 301.614308 302.520247 303.688112
3394.250000 299.957355 300.713548 301.544808 301.640188 302.544134 303.702937
3394.392857 300.001438 300.744586 301.569653 301.667730 302.572261 303.717238
3394.535714 300.029769 300.777443 301.585587 301.693812 302.600908 303.726625
3394.678571 300.091161 300.798670 301.609337 301.719898 302.631829 303.751289
3394.821429 300.125746 300.823483 301.628509 301.747778 302.681178 303.766360
3394.964286 300.149306 300.847103 301.660762 301.774686 302.712404 303.774892
3395.107143 300.177156 300.875514 301.686522 301.801396 302.733253 303.804666
3395.250000 300.209965 300.900363 301.712767 301.828684 302.775611 303.818235
3395.392857 300.224765 300.929771 301.739096 301.854968 302.806746 303.839911
3395.535714 300.246603 300.954296 301.762006 301.881235 302.822891 303.848350
3395.678571 300.277276 300.990158 301.776042 301.909345 302.877861 303.862506
3395.821429 300.302077 301.012916 301.829203 301.935885 302.899345 303.884058
3395.964286 300.329672 301.050679 301.849291 301.961839 302.920971 303.907895
3396.107143 300.348390 301.082310 301.866128 301.988215 302.937420 303.926256
3396.250000 300.384224 301.105524 301.895826 302.014653 302.971399 303.964203
3396.392857 300.398319 301.127442 301.934212 302.040774 303.007378 304.001779
3396.535714 300.408922 301.151562 301.974207 302.067937 303.040439 304.022840
3396.678571 300.440963 301.170107 302.020118 302.095681 303.077588 304.043771
3396.821429 300.479070 301.191202 302.058535 302.121818 303.100067 304.091476
3396.964286 300.510036 301.220066 302.093005 302.148634 303.116206 304.120663
3397.107143 300.537530 301.243103 302.126379 302.175459 303.155688 304.137639
3397.250000 300.564639 301.257773 302.153611 302.202505 303.181363 304.150234
3397.392857 300.596782 301.273857 302.180615 302.229616 303.205000 304.158489
3397.535714 300.613381 301.296693 302.212993 302.255956 303.231422 304.181168
