depth(m) lower_95(kyr) lower_68(kyr) median(kyr) mean(kyr) upper_68(kyr) upper_95(kyr)
7.100000 302.319255 305.832871 309.583459 309.483279 313.313572 316.601564
7.200000 307.229919 310.077444 313.196404 313.232508 316.450055 318.933470
7.250000 309.603494 312.110241 315.208748 315.077430 318.019440 320.062141
7.300000 311.481884 313.947459 317.009042 316.814723 319.607995 321.166848
7.350000 313.467617 315.986128 318.893022 318.551625 321.047401 322.329295
7.400000 315.420775 317.929589 320.526354 320.131440 322.150578 323.131764
7.450000 317.505892 319.723988 321.753937 321.453725 323.104039 323.982021
7.500000 318.973455 321.381837 322.924324 322.680166 324.004408 324.916678
7.550000 320.869208 322.607972 323.843455 323.709682 324.825423 325.738777
7.600000 322.094862 323.613709 324.759012 324.667456 325.741504 326.487271
7.650000 323.527540 324.589711 325.680838 325.593220 326.569088 327.296707
7.700000 324.524740 325.619490 326.617416 326.528097 327.450407 328.170590
7.750000 325.296976 326.486738 327.473381 327.390093 328.242402 329.014880
7.800000 326.298469 327.297746 328.299013 328.222670 329.074354 329.850409
7.850000 327.195299 328.203013 329.127414 329.058489 329.872931 330.614853
7.900000 328.046163 329.077470 329.980220 329.901077 330.715256 331.393212
7.950000 329.027641 329.978087 330.789109 330.734763 331.504240 332.172289
8.000000 330.013097 330.971776 331.647569 331.626443 332.369465 333.037079
8.050000 331.098188 331.845515 332.488366 332.496118 333.182885 333.839585
8.100000 332.061728 332.752056 333.389155 333.391490 334.035802 334.723044
8.150000 333.088239 333.694515 334.310067 334.317885 334.969700 335.693158
8.200000 334.003402 334.607257 335.211330 335.261131 335.910048 336.756115
8.250000 334.972356 335.587898 336.158048 336.229825 336.960754 337.703041
8.350000 336.606894 337.307326 338.010867 338.054611 338.825564 339.642121
8.400000 337.413570 338.128535 338.855598 338.904855 339.727630 340.592391
8.450000 338.225638 338.921326 339.637191 339.709200 340.499685 341.485032
8.500000 338.941899 339.640801 340.411502 340.476279 341.298364 342.349858
8.550000 339.807044 340.403354 341.189399 341.257903 342.108314 343.161087
8.600000 340.527280 341.215491 342.000462 342.045983 342.875912 343.914532
8.650000 341.276982 341.947477 342.775347 342.806666 343.625617 344.661468
8.700000 342.022860 342.682266 343.460850 343.552710 344.391196 345.414523
8.750000 342.715276 343.381843 344.216647 344.274727 345.203894 346.281133
8.800000 343.347851 344.062489 344.935265 344.999192 345.958402 347.130601
8.900000 344.523462 345.300445 346.223527 346.291674 347.252625 348.569505
8.950000 345.148297 346.015337 346.949921 347.037917 348.032863 349.445073
9.000000 345.911794 346.703131 347.708606 347.802516 348.870888 350.158614
9.050000 346.679935 347.444746 348.494130 348.615399 349.774473 351.246025
9.100000 347.386135 348.231268 349.358865 349.471996 350.652485 352.328885
9.200000 348.747132 349.692516 350.923508 351.190666 352.758694 355.160988
9.250000 349.562029 350.539150 351.866163 352.195856 354.067307 356.416594
9.300000 350.377574 351.513783 352.906041 353.275604 355.271668 357.500752
9.350000 351.124599 352.513081 354.051037 354.403758 356.597999 358.786884
9.400000 352.027733 353.561913 355.254456 355.561223 357.846979 359.819817
9.450000 353.038719 354.655963 356.593667 356.764844 359.000160 360.997347
9.500000 354.177530 355.737887 357.851271 357.935319 360.156433 362.176988
9.550000 355.218417 356.866387 359.159256 359.116510 361.367654 363.304662
9.600000 356.161982 358.145870 360.433256 360.328123 362.456939 364.432171
9.650000 357.129199 359.374010 361.664542 361.618993 363.822927 365.916631
9.700000 358.617433 360.702889 362.985546 362.989690 365.245456 367.439693
9.750000 359.914714 362.184632 364.496400 364.451341 366.840000 369.175746
9.800000 361.358890 363.717086 365.960507 366.012086 368.356338 370.657055
9.900000 364.494661 367.090480 369.486043 369.676606 372.373224 375.750033
9.950000 366.489648 368.958796 371.613651 371.699148 374.561218 377.625998
10.000000 368.071877 370.699932 373.560393 373.563730 376.313080 379.503696
10.050000 369.912497 372.440110 375.339101 375.310877 378.085574 381.132542
10.100000 371.715245 374.005723 376.898166 376.913373 379.785113 382.463102
10.150000 373.368221 375.630578 378.549770 378.558753 381.473662 383.541648
10.200000 375.040335 377.473339 380.201338 380.217591 383.009959 384.871300
10.250000 376.752895 379.383779 382.099810 381.952371 384.558633 386.437459
10.300000 378.852127 381.324230 383.792968 383.711911 386.123624 388.259070
10.350000 380.575073 382.977285 385.523503 385.421834 387.778389 389.832210
10.400000 382.578706 384.723346 387.088371 387.005416 389.336724 391.381444
10.450000 383.820132 386.210621 388.298854 388.362470 390.646888 392.916711
10.500000 385.287054 387.550827 389.647471 389.692527 391.977552 394.298274
10.550000 386.623060 388.742774 390.823602 390.904741 393.156438 395.754765
10.600000 387.783230 389.856896 392.029255 392.098138 394.352775 396.974076
10.650000 389.062815 391.067760 393.141290 393.333144 395.652836 398.803360
10.700000 389.954955 392.080430 394.180747 394.561283 396.892732 401.026037
10.750000 391.120392 393.072849 395.313443 395.934838 398.378039 406.046573
10.800000 392.093452 394.224578 396.523542 397.598782 400.240134 411.544789
10.850000 393.320742 395.393538 397.778395 399.610188 405.624825 413.579728
10.900000 394.338184 396.489782 399.756117 402.222696 411.350271 414.727192
10.950000 395.683446 397.888517 404.791668 405.419728 413.801508 415.907900
11.000000 397.214306 399.915621 410.887730 408.799068 415.219136 416.804780
11.050000 398.828237 406.420413 414.075311 412.061599 416.383243 417.868197
11.100000 403.787940 412.261688 415.635257 414.697848 417.484298 418.862322
11.150000 410.541931 414.832202 416.898899 416.495498 418.428453 419.799052
11.200000 413.910254 416.242577 417.973775 417.770525 419.324181 420.698601
11.250000 415.651226 417.347046 418.880138 418.805548 420.296428 421.577317
11.300000 416.814101 418.267173 419.785714 419.718220 421.168537 422.384896
11.350000 417.913361 419.181503 420.675234 420.614690 422.009726 423.282768
11.400000 418.741924 420.131540 421.537584 421.487083 422.824821 424.106702
11.450000 419.593498 421.034227 422.364299 422.332344 423.637429 424.959376
11.500000 420.449420 421.777257 423.180512 423.174326 424.475374 425.773638
11.550000 421.301622 422.632207 424.020311 424.086240 425.426296 427.243596
11.610000 422.333521 423.636936 425.071553 425.328412 426.569608 430.991479
11.650000 423.183523 424.432790 425.904255 426.388765 427.720564 433.532021
11.700000 424.180985 425.583119 427.309271 428.937877 433.592331 441.228250
11.750000 425.478116 427.204367 432.520346 433.559387 440.584536 447.666379
11.800000 426.753798 430.587253 439.541839 439.192014 446.558787 451.301411
11.850000 429.059112 437.966461 445.608064 444.502142 450.384393 453.934128
11.900000 436.975202 444.738306 449.237309 448.686717 453.140354 457.173661
11.950000 442.860514 448.268470 452.080278 451.951317 455.895642 459.293589
12.000000 447.199424 450.834517 454.329170 454.573027 458.454166 462.467050
12.050000 449.684085 452.889566 456.372174 456.710128 460.890057 464.504270
12.100000 451.359825 454.692182 458.331849 458.630809 462.977035 466.162982
12.150000 453.174272 456.170007 460.219813 460.371226 464.651341 467.352532
12.200000 454.653545 457.740735 461.941779 461.949108 466.196292 468.948145
12.250000 456.035526 459.195177 463.477774 463.424886 467.526671 470.249931
12.300000 457.322002 460.861635 464.913861 464.810053 468.751267 471.443875
12.350000 458.608662 462.341937 466.280863 466.140483 469.905521 472.674929
12.400000 459.927431 463.573585 467.525640 467.383336 471.224450 473.895567
12.450000 461.231156 464.883889 468.637290 468.538679 472.351875 475.350653
12.500000 462.402969 466.027194 469.794861 469.724021 473.406093 476.536683
12.550000 463.831504 467.236605 471.154405 470.942582 474.487164 477.368597
12.600000 465.079926 468.493959 472.463687 472.235699 475.809431 478.602287
