depth(m) lower_95(kyr) lower_68(kyr) median(kyr) mean(kyr) upper_68(kyr) upper_95(kyr)
98.030000 1500.544289 1503.837551 1507.473447 1507.421754 1510.564466 1515.001975
98.130000 1502.433233 1505.859143 1509.472498 1509.406161 1512.489538 1516.914472
98.266000 1504.460162 1508.736907 1512.633300 1512.534227 1515.951684 1520.757671
98.402000 1506.645616 1511.834657 1515.845210 1515.721559 1519.773381 1523.811728
98.538000 1509.199485 1515.175436 1519.212565 1518.973319 1522.789513 1526.694542
98.674000 1511.679253 1518.839744 1522.388608 1522.058233 1525.554847 1528.675202
98.810000 1513.766523 1522.116434 1525.295720 1525.001942 1528.315109 1530.813268
98.930000 1516.802577 1524.484548 1527.439711 1527.107515 1530.131882 1532.516385
99.070000 1520.279955 1526.553783 1529.716245 1529.507909 1532.578445 1535.364446
99.210000 1523.976178 1528.763044 1531.888677 1531.818394 1534.909315 1537.815140
99.350000 1526.832760 1531.060461 1534.183389 1534.148967 1537.237586 1540.565087
99.490000 1529.628892 1533.344142 1536.511335 1536.454564 1539.379821 1543.028715
99.630000 1532.507413 1535.687284 1538.881631 1538.820423 1541.671301 1545.538242
99.763333 1534.657624 1537.824258 1541.234947 1541.396261 1544.868017 1549.004779
99.896667 1537.108021 1540.150541 1543.618206 1543.972284 1547.615462 1552.232655
100.030000 1539.216057 1542.606498 1546.065104 1546.534429 1550.623415 1555.496584
100.163333 1542.015475 1545.051385 1548.577493 1549.089350 1553.551247 1558.308958
100.296667 1544.640234 1547.558302 1551.017320 1551.590762 1556.053827 1560.823049
100.430000 1546.793922 1549.801059 1553.456373 1553.996895 1558.707465 1562.843495
100.570000 1548.767540 1551.978802 1556.021993 1556.301207 1560.975940 1564.601846
100.710000 1550.588960 1553.981210 1558.385870 1558.506898 1563.200545 1566.484095
100.850000 1552.423025 1555.924767 1560.912234 1560.675521 1565.387253 1568.404731
100.990000 1554.407468 1557.866388 1563.157542 1562.751559 1567.265294 1570.378868
101.130000 1556.636709 1559.935622 1565.622431 1564.771006 1569.119433 1572.033886
101.263333 1558.429823 1561.947226 1567.262940 1566.628664 1570.724693 1573.638398
101.396667 1560.321412 1564.084460 1568.902246 1568.436510 1572.218698 1575.641127
101.530000 1562.399728 1566.371422 1570.564834 1570.222827 1573.597881 1577.679920
101.663333 1564.762336 1568.452305 1572.117376 1572.028980 1575.124460 1579.228516
101.796667 1567.580464 1570.624938 1573.817340 1573.858294 1576.600395 1581.223991
101.930000 1570.260301 1573.069952 1575.680200 1575.849303 1578.514251 1583.243051
102.050000 1571.584634 1574.742290 1577.508532 1577.888491 1581.082395 1586.227476
102.170000 1573.104325 1576.528946 1579.582317 1579.943958 1583.571907 1588.316135
102.290000 1575.239286 1578.339694 1581.560381 1582.118417 1586.265692 1590.445373
102.410000 1577.359453 1580.274828 1583.794925 1584.326612 1588.851254 1592.706039
102.530000 1579.720189 1582.260677 1586.040884 1586.601588 1591.251618 1594.915256
102.663333 1581.735189 1584.849406 1589.081776 1589.299467 1593.669533 1597.584976
102.796667 1583.892024 1587.520085 1592.182299 1592.036945 1596.319998 1600.409860
102.930000 1586.642172 1590.610108 1594.804684 1594.829081 1599.150375 1602.807556
103.063333 1588.970397 1593.564707 1597.563675 1597.562293 1601.542625 1605.138537
103.196667 1592.667340 1597.040196 1600.382711 1600.391789 1604.139707 1607.429041
103.330000 1597.066459 1600.267039 1603.005939 1603.377926 1606.792586 1610.429651
103.400000 1598.648909 1601.800756 1604.625611 1604.945522 1608.310654 1611.761590
103.526000 1601.053819 1604.261882 1607.464519 1607.732281 1611.224014 1615.257963
103.652000 1603.673296 1606.473324 1610.561073 1610.622443 1614.560247 1619.533412
103.778000 1605.866902 1609.129973 1613.476253 1613.539575 1617.711871 1622.315858
103.904000 1608.145569 1612.031557 1616.578793 1616.526822 1620.858093 1625.495922
104.030000 1610.646590 1615.057503 1619.729142 1619.641947 1623.946528 1628.853113
104.115000 1612.290285 1617.223970 1621.795160 1621.774439 1626.362062 1630.816633
104.200000 1614.157752 1619.360651 1623.864165 1623.744026 1628.189948 1632.604683
104.326000 1617.500743 1622.127246 1626.495718 1626.527438 1630.939359 1635.296635
104.452000 1620.142133 1624.621590 1629.168786 1629.269649 1633.934748 1638.808008
104.578000 1622.336967 1627.172992 1632.113290 1632.090728 1636.927634 1641.632273
104.704000 1625.238017 1629.691616 1634.835031 1634.816835 1639.802160 1644.408409
104.830000 1628.027827 1632.364219 1637.739200 1637.619394 1642.763874 1647.169094
104.970000 1631.129704 1635.586209 1640.995660 1640.955069 1646.235819 1650.277533
105.110000 1634.383777 1639.521544 1644.339251 1644.330564 1649.223681 1653.452314
105.250000 1638.282097 1642.958816 1647.796863 1647.670661 1652.357081 1656.392134
105.390000 1642.058368 1646.343878 1651.080860 1650.989602 1655.736551 1659.615286
105.530000 1645.178269 1649.697100 1654.289232 1654.132911 1658.407294 1662.831990
105.663333 1647.844739 1652.427128 1657.383079 1657.096735 1661.452491 1665.724137
105.796667 1650.590057 1655.427095 1660.332843 1660.060808 1664.472242 1668.700362
105.930000 1653.797543 1658.840757 1663.226199 1663.053937 1667.160911 1671.812367
106.063333 1656.818596 1662.174916 1665.939550 1665.908327 1669.796449 1674.515674
106.196667 1660.161919 1665.209725 1668.623185 1668.688763 1672.342287 1677.217175
106.330000 1664.593869 1668.042678 1671.297543 1671.482981 1674.986579 1680.604251
106.466364 1667.126106 1670.555978 1674.100979 1674.380320 1678.241961 1683.902508
106.602727 1669.842344 1673.042546 1676.904077 1677.249749 1681.607249 1687.156937
106.739091 1672.176760 1675.638497 1679.717934 1680.231714 1685.095238 1690.680906
106.875455 1674.033303 1678.412346 1682.885341 1683.262386 1688.421355 1693.387188
107.011818 1676.723039 1681.359664 1686.039192 1686.330773 1691.705550 1696.814773
107.148182 1679.466194 1684.432778 1689.088374 1689.427062 1694.747981 1700.277085
107.284545 1682.651784 1687.419567 1692.208984 1692.517899 1697.799583 1703.265110
107.420909 1685.690839 1690.709482 1695.423447 1695.686150 1700.796846 1706.466970
107.557273 1689.680263 1693.879285 1698.831056 1698.933162 1704.018809 1709.676616
107.693636 1693.520592 1697.627156 1702.122163 1702.406364 1707.067339 1713.819251
107.830000 1698.142640 1701.387580 1705.603406 1706.215176 1710.915980 1719.182710
107.970000 1701.584900 1705.661990 1710.998177 1711.307097 1716.735140 1724.288336
108.110000 1705.071717 1710.473475 1717.072526 1716.911885 1723.071324 1730.464336
108.250000 1709.193275 1715.644681 1723.274958 1722.550425 1728.892930 1735.092920
108.390000 1713.111433 1721.835848 1728.918805 1728.300885 1734.216691 1740.371157
108.530000 1718.035255 1729.226126 1734.789710 1734.120455 1739.183910 1745.424293
108.580000 1720.216686 1731.772463 1736.854427 1736.298400 1741.300049 1747.665157
108.705000 1726.851868 1736.500191 1741.976677 1741.855444 1747.923540 1754.877510
108.830000 1733.084701 1741.062374 1747.201232 1747.425339 1754.572076 1761.105965
108.955000 1738.377645 1746.076251 1752.709486 1752.991573 1760.701557 1766.136055
109.080000 1744.678810 1751.451014 1758.671591 1758.467430 1765.720632 1771.261407
109.205000 1749.749606 1757.037320 1764.348904 1763.908678 1770.849109 1775.583878
109.330000 1756.107925 1762.187682 1770.284671 1769.253586 1775.930623 1779.703764
109.380000 1758.472944 1764.191693 1772.602971 1771.425548 1777.889771 1781.377062
109.520000 1764.645996 1770.744043 1777.635362 1776.588696 1782.123301 1784.783442
109.660000 1769.854621 1776.231183 1781.948360 1781.130192 1785.761511 1787.967022
109.800000 1775.533391 1781.457018 1786.195335 1785.303029 1788.767025 1790.524725
109.940000 1782.391201 1787.182763 1789.850330 1789.229476 1791.394394 1792.755300
110.080000 1790.908520 1792.011615 1792.974252 1792.960313 1793.947671 1794.954315
110.213333 1792.995299 1794.290038 1795.660702 1796.101074 1797.808573 1801.860861
110.346667 1795.018852 1796.367492 1798.347583 1799.154501 1802.117573 1806.500197
110.480000 1797.001379 1798.690228 1801.395101 1802.226427 1806.109654 1810.777364
110.613333 1799.261246 1801.258006 1804.582658 1805.283269 1809.323157 1814.312956
110.746667 1801.508163 1803.809342 1807.621632 1808.140466 1812.556137 1817.145302
110.880000 1803.985713 1806.394443 1810.490009 1810.902065 1815.534885 1820.137206
111.022000 1806.435362 1809.218816 1813.493668 1813.882901 1818.795239 1822.786528
111.164000 1808.844785 1812.065307 1816.892729 1816.876298 1821.690329 1825.097824
111.306000 1810.843250 1815.039369 1819.900008 1819.730697 1824.368112 1827.461899
111.448000 1813.454585 1818.021115 1823.009631 1822.558287 1827.014470 1829.564725
111.590000 1816.582391 1820.859435 1825.759789 1825.227006 1829.380166 1831.468170
111.723333 1819.448540 1823.617125 1828.376409 1827.703289 1831.465564 1833.571610
111.856667 1821.795775 1826.705489 1830.811150 1830.238472 1833.616625 1835.510327
111.990000 1824.713134 1829.700629 1833.385276 1832.747849 1835.829649 1837.347802
112.123333 1828.768573 1832.830172 1835.960079 1835.376385 1837.896356 1839.183318
112.256667 1833.506548 1836.498906 1838.353817 1838.132624 1839.830279 1841.331984
112.390000 1839.310109 1840.138470 1841.081636 1841.109494 1842.036663 1843.069816
112.523333 1841.666016 1843.124425 1845.497172 1847.496108 1852.818985 1860.766304
112.656667 1844.035481 1847.178554 1853.935264 1855.070791 1863.349855 1870.546758
112.790000 1847.339852 1854.220365 1862.557968 1862.620494 1871.314660 1877.223510
112.896667 1851.340169 1860.076223 1868.922291 1868.347230 1876.428109 1882.187915
113.003333 1857.776972 1866.440436 1874.569380 1873.787674 1880.885899 1886.472964
113.110000 1864.794434 1872.550784 1879.620077 1879.037778 1885.343372 1891.040268
113.230000 1870.882985 1878.020049 1884.816982 1884.251521 1890.016133 1895.766965
113.350000 1876.435984 1883.366299 1889.946850 1889.324156 1895.082874 1900.870416
113.470000 1882.379957 1889.014178 1894.895852 1894.614780 1900.519196 1905.436588
113.590000 1889.545721 1895.588712 1901.878290 1901.178435 1906.409284 1909.856991
113.696667 1898.746758 1904.061915 1908.692761 1907.838036 1911.352902 1913.613305
113.803333 1906.974554 1910.634493 1913.019232 1912.608323 1914.680587 1915.829420
113.910000 1913.915678 1914.994412 1915.973668 1915.957517 1916.936098 1917.792186
114.041111 1915.410274 1916.540717 1917.689419 1917.771183 1918.899274 1920.547872
114.172222 1916.586782 1917.780765 1919.018861 1919.230131 1920.619036 1922.984544
114.303333 1917.683824 1918.933950 1920.195501 1920.544259 1922.259989 1925.049601
114.434444 1918.883067 1919.940121 1921.387844 1921.832249 1923.895644 1927.142863
114.565556 1919.778854 1920.947989 1922.541851 1923.038083 1925.142082 1928.516235
114.696667 1920.694823 1921.889995 1923.845147 1924.266305 1926.624614 1929.939703
114.827778 1921.416991 1922.895794 1925.167257 1925.507836 1928.135138 1931.364577
114.958889 1922.218356 1923.838735 1926.438704 1926.722269 1929.507392 1933.230936
115.090000 1923.148114 1924.859987 1927.548194 1927.848753 1930.805121 1934.453012
115.230000 1924.003499 1925.792839 1928.641779 1929.026489 1932.196529 1935.978843
115.370000 1924.809890 1926.867883 1929.793096 1930.220864 1933.677272 1937.165597
115.510000 1925.805875 1927.851077 1930.923434 1931.328785 1934.945568 1938.444152
115.650000 1926.724199 1928.960721 1932.102581 1932.465139 1936.182095 1939.930331
115.790000 1927.432547 1929.980432 1933.235508 1933.625540 1937.554732 1941.531997
115.923333 1928.390865 1931.112318 1934.371415 1934.798025 1938.789998 1942.718774
116.056667 1929.307689 1932.031108 1935.515179 1935.882737 1939.784428 1944.028248
116.190000 1930.304338 1933.156686 1936.866799 1937.039611 1940.940573 1945.183588
116.323333 1931.394328 1934.163429 1938.024998 1938.183547 1942.084043 1946.174309
116.456667 1932.141432 1935.401005 1939.307081 1939.364865 1943.321598 1947.067754
116.590000 1933.031999 1936.503294 1940.454237 1940.473884 1944.476782 1947.844844
116.730000 1933.864863 1937.618041 1941.813134 1941.715612 1945.908441 1949.192626
116.870000 1934.776770 1938.706099 1943.196863 1942.961983 1947.219262 1950.415783
117.010000 1935.880971 1939.758888 1944.580440 1944.257031 1948.575382 1951.728857
117.150000 1936.784677 1940.750216 1945.913493 1945.525730 1950.104836 1952.793961
117.290000 1937.727265 1941.784145 1947.122963 1946.770636 1951.484642 1953.993000
117.423333 1938.553891 1942.719572 1948.224628 1947.801019 1952.561252 1955.221207
117.556667 1939.239323 1943.528583 1949.312865 1948.831503 1953.658957 1956.294092
117.690000 1939.944490 1944.430705 1950.288178 1949.874239 1954.928045 1957.613901
117.823333 1941.146335 1945.517301 1951.323949 1951.001739 1956.166473 1958.909616
117.956667 1941.861417 1946.315385 1952.493348 1952.182155 1957.549836 1960.361896
118.090000 1942.634707 1947.444643 1953.770237 1953.411016 1958.815206 1961.917010
118.230000 1943.466706 1948.572369 1955.381177 1954.798688 1960.407938 1963.042868
118.370000 1944.786634 1949.611282 1956.934597 1956.232614 1961.801281 1964.833912
118.510000 1945.873024 1950.637003 1958.682350 1957.741722 1963.272650 1966.695569
118.650000 1946.853231 1951.789389 1960.538948 1959.342521 1964.908358 1968.597731
118.790000 1948.093119 1953.245330 1962.327840 1960.960093 1966.478364 1970.116188
118.934000 1950.040450 1955.707562 1964.210566 1962.839436 1968.128397 1971.843627
119.078000 1952.021112 1958.275564 1966.215913 1964.863536 1969.934505 1974.025946
119.222000 1954.531755 1961.343833 1968.088124 1966.948586 1971.645119 1975.696702
119.366000 1956.930508 1963.748778 1970.194178 1969.074220 1973.413740 1977.762168
119.510000 1959.783492 1966.545850 1972.475015 1971.414286 1975.458395 1979.798497
119.650000 1963.244757 1969.750525 1974.783607 1973.995536 1977.888005 1982.417569
119.790000 1966.139647 1972.686839 1977.051801 1976.561081 1980.127406 1984.273970
119.930000 1970.493942 1975.587785 1979.553136 1979.234518 1982.732278 1986.913882
120.070000 1974.774314 1978.513458 1981.766916 1981.890485 1985.135385 1989.659569
120.210000 1978.300278 1981.587923 1984.214145 1984.607450 1987.714455 1992.576656
120.343333 1981.000398 1984.206966 1987.104452 1987.503633 1991.157736 1995.328947
120.476667 1983.707262 1986.750613 1990.059479 1990.450436 1994.615919 1998.971471
120.610000 1985.917954 1989.444028 1993.102640 1993.417704 1997.544152 2002.025963
120.743333 1988.345187 1992.127584 1995.929376 1996.221538 2000.779340 2004.675772
120.876667 1991.393191 1994.961373 1998.942750 1999.171549 2003.575085 2008.236781
121.010000 1994.457155 1997.705030 2001.813166 2002.072589 2006.477754 2011.349361
121.148889 1996.810309 2000.323421 2004.638121 2004.946423 2009.726593 2014.046258
121.287778 1999.575029 2002.766289 2007.618208 2007.878998 2012.990344 2018.264323
121.426667 2001.907734 2005.469296 2010.609460 2010.922081 2016.489888 2021.174938
121.565556 2004.259725 2008.330983 2013.680986 2013.914787 2019.290994 2025.107987
121.704444 2006.857697 2011.406697 2016.674052 2016.894379 2022.019751 2028.689093
121.843333 2009.842402 2014.344900 2019.663879 2019.953243 2025.455314 2032.036967
121.982222 2012.979707 2017.351590 2022.753921 2023.021029 2028.493317 2035.404866
122.121111 2016.287961 2020.432791 2025.718505 2026.078584 2031.575826 2038.962894
122.260000 2020.020994 2023.555167 2028.788707 2029.190600 2034.578595 2041.438151
122.393333 2022.619767 2026.669022 2032.250361 2032.503522 2038.338537 2045.103099
122.526667 2025.373333 2029.464030 2035.621654 2035.822044 2042.100339 2048.264826
122.660000 2028.163794 2032.587202 2038.806303 2039.097000 2045.570426 2051.271312
122.793333 2030.810236 2036.011603 2042.267394 2042.458853 2048.865817 2054.354076
122.926667 2033.512406 2039.490744 2045.686913 2045.677151 2052.262132 2057.741032
123.060000 2036.542582 2042.642469 2048.943768 2048.907069 2055.385866 2060.447765
123.200000 2040.383767 2046.029415 2052.300815 2052.203981 2058.305811 2063.424842
123.340000 2043.131844 2049.719918 2055.511443 2055.452176 2061.360297 2066.209755
123.480000 2046.631423 2052.413618 2059.274377 2058.720323 2064.244646 2068.995688
123.620000 2049.808630 2056.223112 2062.420791 2061.873129 2067.061212 2071.925677
123.760000 2052.758194 2059.666394 2065.589258 2064.930295 2069.978825 2074.507749
123.890000 2056.053574 2062.598856 2068.104276 2067.581270 2072.488143 2076.506333
124.020000 2058.943295 2065.255052 2070.331796 2070.053408 2074.848262 2078.397045
124.150000 2062.590064 2067.849037 2072.837861 2072.531560 2077.144084 2080.342945
124.280000 2065.464495 2070.666969 2075.189375 2074.998615 2079.395444 2082.952812
124.410000 2068.500775 2073.483730 2077.537534 2077.485186 2081.603597 2085.127148
124.485000 2070.155453 2075.144308 2079.097770 2079.012243 2083.013603 2086.603843
124.560000 2071.922027 2076.618040 2080.583960 2080.514518 2084.435619 2087.803121
124.690000 2074.743110 2079.059356 2082.950472 2083.020953 2086.936210 2091.257857
124.820000 2077.132025 2081.602716 2085.539708 2085.463470 2089.384783 2093.731309
124.950000 2079.935976 2084.254975 2088.000350 2087.949858 2091.813463 2096.694784
125.080000 2082.939959 2086.741095 2090.388255 2090.550806 2094.488480 2099.380844
125.210000 2085.376495 2089.299495 2092.822920 2093.074582 2097.019540 2101.979032
125.260000 2086.412223 2090.349625 2093.951942 2094.213642 2098.081504 2103.348299
