depth(m) lower_95(kyr) lower_68(kyr) median(kyr) mean(kyr) upper_68(kyr) upper_95(kyr)
166.190000 1493.993108 1497.876084 1500.599394 1500.186687 1502.598611 1504.252457
166.290000 1496.114550 1499.458835 1501.900273 1501.598441 1503.830556 1505.452910
166.390000 1498.132116 1500.963837 1503.272720 1503.079418 1505.207537 1506.864612
166.490000 1499.716121 1502.416782 1504.641458 1504.443544 1506.478952 1508.324529
166.620000 1501.950382 1504.288202 1506.467749 1506.335707 1508.465277 1510.260833
166.690000 1503.128517 1505.487010 1507.601894 1507.574165 1509.658370 1511.477569
166.785000 1505.191533 1507.684798 1509.774387 1509.717356 1511.749482 1513.441437
166.885000 1508.131151 1510.664430 1512.633094 1512.504151 1514.353060 1516.166684
166.985000 1511.366697 1513.406738 1515.288207 1515.290998 1517.113117 1519.188272
167.085000 1513.738414 1515.803852 1517.680190 1517.675788 1519.631821 1521.605340
167.185000 1516.001117 1517.882201 1519.860673 1519.888149 1521.932479 1523.777089
167.285000 1517.964043 1520.090311 1522.135962 1522.070790 1524.079394 1526.202167
167.385000 1520.740559 1522.421395 1524.420114 1524.385483 1526.262325 1528.155778
167.485000 1523.029013 1524.472378 1526.436150 1526.391975 1528.269460 1529.654418
167.585000 1524.884595 1526.497565 1528.241966 1528.187069 1529.900115 1531.096053
167.685000 1526.476171 1528.108374 1529.652987 1529.593333 1531.049640 1532.195547
167.785000 1527.996974 1529.452666 1530.890152 1530.765913 1532.095694 1533.068900
167.885000 1529.340771 1530.638404 1531.913938 1531.819468 1532.993276 1533.897000
167.985000 1530.451825 1531.583831 1532.732493 1532.690840 1533.728130 1534.678655
168.085000 1531.428156 1532.423192 1533.483169 1533.453017 1534.434387 1535.255386
168.185000 1532.162698 1533.165725 1534.181936 1534.124896 1535.066071 1535.896340
168.285000 1532.903423 1533.812353 1534.778626 1534.759017 1535.698155 1536.566134
168.385000 1533.588768 1534.476377 1535.373837 1535.375493 1536.298787 1537.225124
168.485000 1534.274334 1535.107835 1535.951621 1535.975947 1536.925144 1537.774816
168.585000 1534.896337 1535.680124 1536.540583 1536.567931 1537.473471 1538.359096
168.685000 1535.559793 1536.252991 1537.147997 1537.184593 1538.080494 1538.942898
168.785000 1536.091989 1536.892959 1537.816319 1537.829298 1538.771219 1539.571631
168.885000 1536.717696 1537.531848 1538.527178 1538.526759 1539.515266 1540.361621
168.985000 1537.324183 1538.247597 1539.273693 1539.266126 1540.229034 1541.192041
169.085000 1538.137947 1539.128290 1540.151519 1540.132550 1541.111498 1542.231405
169.185000 1539.067462 1539.988694 1541.095666 1541.088013 1542.151863 1543.283544
169.285000 1540.155747 1541.040903 1542.104482 1542.124193 1543.180724 1544.421948
169.385000 1541.014811 1542.030394 1543.201895 1543.226613 1544.370636 1545.672905
169.485000 1542.050400 1543.160072 1544.329047 1544.371405 1545.594614 1547.077577
169.585000 1542.999746 1544.310100 1545.654576 1545.661955 1546.998521 1548.582486
169.685000 1544.372742 1545.680523 1547.112604 1547.127378 1548.629054 1550.093457
169.785000 1545.728172 1547.102789 1548.596931 1548.633238 1550.201957 1551.774112
169.885000 1547.273116 1548.429293 1549.899882 1550.029700 1551.704229 1553.545878
169.985000 1548.443961 1549.740654 1551.414345 1551.435626 1553.182745 1554.982279
170.085000 1549.660981 1551.096723 1552.771466 1552.807299 1554.569109 1556.302364
170.185000 1550.891907 1552.365278 1554.154997 1554.205102 1556.170139 1557.795679
170.285000 1551.972511 1553.752550 1555.644539 1555.564145 1557.462229 1559.089980
170.385000 1553.258130 1555.164980 1557.017692 1556.958639 1558.757479 1560.301808
170.485000 1554.601019 1556.553231 1558.550662 1558.411300 1560.203076 1561.568143
170.585000 1555.761394 1558.019754 1560.108196 1559.942648 1561.806743 1563.177480
170.685000 1557.441785 1559.689193 1561.601780 1561.516565 1563.344557 1564.882183
170.785000 1559.072958 1561.190509 1563.174767 1563.023375 1564.788304 1566.111042
170.885000 1560.678124 1562.816958 1564.736003 1564.582526 1566.316070 1567.509186
170.985000 1562.181722 1564.584418 1566.395382 1566.202163 1567.917922 1569.006699
171.085000 1564.116869 1566.419160 1568.058037 1567.962530 1569.556039 1570.758925
171.185000 1566.975573 1568.613584 1570.131810 1570.170559 1571.775022 1573.397322
171.285000 1569.279891 1570.617149 1572.107157 1572.203266 1573.830798 1575.592012
171.385000 1571.116435 1572.553219 1574.215595 1574.211892 1575.770993 1577.524079
171.485000 1572.761504 1574.538261 1576.185930 1576.180270 1577.792409 1579.601873
171.585000 1574.694559 1576.562498 1578.230895 1578.260512 1579.873441 1582.013379
171.685000 1577.072023 1578.999528 1580.687229 1580.813113 1582.553792 1585.565265
171.785000 1579.771483 1581.287034 1583.279423 1583.625447 1585.985113 1589.677128
171.885000 1582.527647 1584.178162 1586.406393 1586.866788 1589.718993 1593.148078
171.985000 1585.026281 1586.991907 1589.570966 1589.949090 1593.232855 1595.795601
172.085000 1587.519500 1589.826692 1593.106116 1592.939243 1595.920939 1598.078561
172.185000 1590.236261 1592.936608 1596.001147 1595.687266 1598.139608 1600.211080
172.285000 1593.676790 1596.402433 1598.602792 1598.445263 1600.481258 1602.371559
172.385000 1596.729036 1598.839637 1600.789947 1600.808902 1602.669062 1605.047679
172.485000 1599.248415 1600.828311 1602.802954 1602.879427 1604.892904 1607.365182
172.585000 1601.193338 1602.779490 1604.753449 1604.924334 1607.072559 1609.760010
172.685000 1602.975089 1604.675371 1606.944838 1607.127135 1609.444848 1612.078474
172.785000 1605.090360 1606.896106 1609.433953 1609.505389 1612.215799 1614.268126
172.885000 1607.352554 1609.482067 1611.929726 1611.858662 1614.322028 1616.212774
172.985000 1609.597010 1611.663047 1613.900788 1613.891602 1616.091924 1618.041325
173.085000 1611.334425 1613.645939 1615.747218 1615.681529 1617.799424 1619.642108
173.185000 1613.227227 1615.405879 1617.362450 1617.347464 1619.314303 1621.139322
173.285000 1614.998796 1617.144486 1619.040940 1619.030463 1620.861726 1622.644034
173.385000 1616.926045 1618.772277 1620.557009 1620.573770 1622.448426 1624.382232
173.485000 1618.583161 1620.147586 1622.056426 1622.075907 1623.909267 1625.722758
173.585000 1619.943666 1621.694689 1623.423698 1623.509372 1625.350817 1627.097217
173.685000 1621.307147 1623.095260 1624.910819 1624.940217 1626.804038 1628.571570
173.785000 1622.479304 1624.434802 1626.346132 1626.366270 1628.278067 1630.509641
173.885000 1623.970955 1625.794603 1627.718627 1627.877991 1629.973182 1632.199718
173.985000 1625.553354 1627.448814 1629.510247 1629.572355 1631.775256 1633.964732
174.085000 1627.032314 1629.170838 1631.343419 1631.419045 1633.724914 1635.852466
174.185000 1628.601074 1630.958428 1633.399792 1633.390513 1635.937912 1637.858734
174.285000 1630.220932 1632.864400 1635.427543 1635.348659 1637.835162 1639.960903
174.385000 1632.074890 1634.798843 1637.633513 1637.503497 1640.036191 1642.370188
174.485000 1634.194809 1637.135326 1639.930183 1639.796651 1642.405822 1644.359353
174.585000 1636.560551 1639.369952 1642.186604 1642.072973 1644.767045 1646.754587
174.685000 1639.132491 1641.757597 1644.356875 1644.280625 1646.934791 1649.043188
174.785000 1641.204676 1644.013079 1646.445040 1646.340679 1648.760298 1650.639742
174.885000 1643.808377 1646.202252 1648.404182 1648.356936 1650.555253 1652.851395
174.985000 1645.657369 1648.277241 1650.263314 1650.192795 1652.139055 1654.226820
175.085000 1647.746916 1650.025269 1651.850304 1651.833854 1653.635858 1655.492211
175.185000 1649.396394 1651.596721 1653.281476 1653.278484 1654.964968 1656.827508
175.285000 1651.095272 1652.912300 1654.575148 1654.589847 1656.294468 1657.827309
175.385000 1652.406887 1654.231458 1655.815584 1655.795917 1657.476945 1659.004052
175.485000 1653.853316 1655.339461 1656.909394 1656.937605 1658.569499 1659.992290
175.585000 1655.013127 1656.463874 1657.998872 1658.026292 1659.579530 1661.074000
175.685000 1656.243973 1657.510436 1659.082074 1659.101820 1660.667636 1662.082646
175.785000 1657.253775 1658.572882 1660.112888 1660.129199 1661.672113 1662.997683
175.885000 1658.288562 1659.739076 1661.158432 1661.170728 1662.655049 1664.012096
175.985000 1659.251212 1660.767238 1662.308428 1662.254569 1663.665590 1665.028175
176.085000 1660.269129 1661.802855 1663.367317 1663.331318 1664.790836 1666.328112
176.185000 1661.443737 1663.014332 1664.470516 1664.467064 1665.903721 1667.328506
176.285000 1662.726962 1664.206953 1665.656733 1665.665024 1667.159438 1668.685927
176.385000 1664.063365 1665.622147 1667.030926 1667.114180 1668.708914 1670.175151
176.485000 1665.931576 1667.327214 1668.881357 1668.950392 1670.616345 1672.255079
176.585000 1667.840184 1669.398463 1671.037129 1671.078841 1672.734878 1674.716878
176.685000 1669.436000 1671.189846 1672.956089 1672.994137 1674.731230 1676.682159
176.785000 1671.078767 1672.918939 1674.612567 1674.694633 1676.551866 1678.382398
176.885000 1672.649739 1674.487845 1676.158096 1676.241598 1678.076126 1679.696774
176.985000 1674.121257 1676.020429 1677.707436 1677.738640 1679.433815 1681.234134
177.085000 1675.684162 1677.340103 1679.070533 1679.127696 1680.885919 1682.886317
177.185000 1677.034244 1678.531254 1680.343855 1680.442413 1682.265768 1684.534594
177.285000 1678.454874 1679.876772 1681.762136 1681.819197 1683.618620 1686.104951
177.385000 1679.836671 1681.281768 1683.234667 1683.295921 1685.157405 1687.956267
177.485000 1681.287658 1683.042450 1685.049585 1685.090946 1687.058891 1689.674742
177.585000 1683.019023 1684.893899 1687.158037 1687.225945 1689.633912 1691.809247
177.685000 1684.554196 1686.735382 1689.135611 1689.185887 1691.743898 1693.663393
177.785000 1686.523008 1688.826498 1691.342850 1691.284377 1693.696064 1695.549700
177.885000 1688.785820 1691.064700 1693.648095 1693.546966 1696.012637 1697.778054
177.985000 1691.005351 1693.831636 1695.919426 1695.862697 1698.000561 1699.811658
178.085000 1694.654780 1696.583770 1698.490595 1698.519153 1700.445865 1702.195857
178.185000 1697.087429 1698.719588 1700.543849 1700.510130 1702.296340 1703.914629
178.285000 1698.902432 1700.551703 1702.247620 1702.263573 1704.013077 1705.729001
178.385000 1700.380588 1702.260205 1703.883328 1703.896717 1705.545084 1707.150274
178.485000 1702.170189 1703.928527 1705.625867 1705.566522 1707.309946 1708.634530
178.585000 1703.803936 1705.464735 1707.113925 1707.137924 1708.791615 1710.312846
178.685000 1705.557212 1707.120824 1708.814812 1708.789187 1710.316848 1711.964466
178.785000 1707.272521 1708.856701 1710.495926 1710.461972 1711.995760 1713.806782
178.885000 1708.770270 1710.332612 1711.914788 1711.922142 1713.472313 1715.299617
178.985000 1710.276481 1711.866629 1713.441683 1713.452586 1715.049796 1716.794690
179.085000 1712.131016 1713.557843 1714.993679 1715.049976 1716.599197 1718.070707
179.185000 1713.575145 1715.020443 1716.468052 1716.489546 1717.896842 1719.359620
179.285000 1715.051477 1716.352495 1717.808946 1717.830978 1719.210992 1720.720088
179.385000 1716.467539 1717.659707 1719.068625 1719.152054 1720.648921 1722.291061
179.485000 1717.541555 1718.890467 1720.371100 1720.483716 1722.148926 1723.847982
179.585000 1718.738053 1720.128481 1721.694420 1721.822761 1723.516658 1725.522834
179.685000 1720.085552 1721.540560 1723.162871 1723.273669 1724.964617 1727.128005
179.785000 1721.394608 1722.946110 1724.683827 1724.712721 1726.419255 1728.511074
179.885000 1722.659034 1724.287290 1726.017681 1726.114884 1727.958832 1730.031812
179.985000 1723.855073 1725.612221 1727.376875 1727.503744 1729.502859 1731.401577
180.085000 1725.238826 1726.999194 1728.809688 1728.939056 1730.961263 1732.791851
180.185000 1726.753395 1728.427056 1730.269683 1730.401767 1732.502758 1734.430675
180.285000 1728.094972 1729.859376 1731.834420 1731.930359 1734.055858 1735.924182
180.385000 1729.540950 1731.422085 1733.436001 1733.507681 1735.627632 1737.641742
180.485000 1731.293901 1733.070581 1735.158967 1735.193513 1737.305736 1739.259823
180.585000 1732.687258 1734.777713 1736.845637 1736.876954 1738.984019 1740.944930
180.685000 1734.337773 1736.522564 1738.659299 1738.692705 1740.909736 1742.876227
180.785000 1736.252625 1738.505570 1740.716938 1740.670337 1742.897256 1744.977220
180.885000 1738.623884 1740.581612 1742.722862 1742.766134 1744.974129 1746.973176
180.985000 1740.468901 1742.667142 1744.719037 1744.737405 1746.907308 1748.541458
181.085000 1742.619075 1744.442758 1746.616730 1746.514095 1748.625647 1750.237177
181.185000 1744.411893 1746.236086 1748.318371 1748.258154 1750.271583 1751.878458
181.285000 1746.110532 1748.055864 1750.045773 1749.999250 1751.933581 1753.535100
181.385000 1747.889301 1749.898720 1751.843353 1751.859499 1753.825749 1755.562550
181.485000 1749.912029 1751.680003 1753.608185 1753.643530 1755.684040 1757.419115
181.585000 1751.429341 1753.265055 1755.335027 1755.291114 1757.277176 1759.228905
181.685000 1752.755585 1754.750612 1756.744265 1756.768445 1758.830545 1760.684199
181.785000 1754.412123 1756.212129 1758.175249 1758.216687 1760.258610 1762.109758
181.885000 1756.299585 1757.800246 1759.739308 1759.834308 1761.990630 1763.624959
181.985000 1757.720841 1759.434728 1761.287772 1761.405904 1763.507176 1765.440468
182.085000 1759.218586 1760.983824 1762.796565 1762.913868 1764.978347 1766.923629
182.185000 1760.788721 1762.381104 1764.307021 1764.402686 1766.441228 1768.392385
182.285000 1762.041366 1763.811123 1765.899649 1765.880586 1767.908517 1770.010061
182.385000 1763.282257 1765.274720 1767.381232 1767.374765 1769.547742 1771.626881
182.485000 1764.814521 1766.787489 1768.812926 1768.897390 1771.102927 1773.254712
182.585000 1766.338491 1768.365372 1770.361242 1770.494752 1772.743760 1774.804160
182.685000 1767.774819 1769.870121 1772.205332 1772.219660 1774.580542 1776.912561
182.785000 1769.605110 1771.713289 1773.998496 1774.101354 1776.683344 1779.169901
182.885000 1771.461556 1773.762849 1776.269331 1776.312188 1778.891392 1781.164301
182.985000 1773.206093 1775.779549 1778.524548 1778.462648 1781.078929 1783.070294
183.085000 1775.203267 1778.297391 1780.870442 1780.753946 1783.274591 1785.146700
183.185000 1777.814467 1780.696984 1783.151185 1782.983904 1785.278378 1786.905973
183.285000 1780.641893 1783.040026 1785.254412 1785.137206 1787.281929 1788.592537
183.385000 1783.333549 1785.275980 1787.289432 1787.121677 1788.980847 1790.222122
183.485000 1785.652059 1787.478926 1789.189165 1789.008446 1790.476092 1791.459603
183.585000 1788.294550 1789.746412 1790.961231 1790.856053 1791.984348 1792.776188
183.685000 1790.897778 1791.685118 1792.470865 1792.467759 1793.279608 1793.926946
183.785000 1792.017598 1792.798244 1793.615306 1793.651842 1794.469631 1795.434656
183.885000 1793.049188 1793.775955 1794.666905 1794.750992 1795.730057 1796.828588
183.985000 1793.939327 1794.780659 1795.740373 1795.855383 1796.941544 1798.270145
184.085000 1795.010626 1795.851875 1796.995474 1797.028212 1798.237506 1799.473334
184.185000 1796.296806 1797.204037 1798.359334 1798.384981 1799.528155 1800.859621
184.285000 1797.759601 1798.718042 1799.902263 1799.900946 1801.021565 1802.358165
184.385000 1798.885802 1799.972883 1801.059431 1801.058299 1802.167802 1803.324876
184.485000 1800.063471 1801.024162 1802.121486 1802.128776 1803.220964 1804.375399
184.585000 1800.923763 1801.865386 1802.976806 1803.035436 1804.173431 1805.343896
184.685000 1801.607347 1802.662118 1803.786941 1803.859985 1804.993093 1806.383463
184.785000 1802.335996 1803.386979 1804.528768 1804.634833 1805.915422 1807.374706
184.885000 1803.077173 1804.082559 1805.262451 1805.394597 1806.776847 1808.373851
184.985000 1803.727786 1804.756246 1806.018487 1806.210687 1807.714044 1809.542172
185.126667 1804.747047 1805.754633 1807.171466 1807.381563 1809.042946 1811.141650
185.268333 1805.641037 1806.781194 1808.372446 1808.628003 1810.499336 1812.991614
185.410000 1806.557242 1807.912250 1809.647819 1809.896281 1811.975330 1814.386551
185.551667 1807.434322 1809.037368 1811.071433 1811.151272 1813.247064 1815.933385
185.693333 1808.371022 1810.195201 1812.352236 1812.439707 1814.672846 1817.002165
185.835000 1809.508671 1811.493869 1813.763342 1813.804337 1816.200846 1818.480170
185.976667 1810.596265 1812.793074 1815.090069 1815.135256 1817.517902 1819.755872
186.118333 1811.895646 1814.128060 1816.463110 1816.506777 1818.961985 1821.107083
186.260000 1813.200544 1815.362275 1817.812181 1817.852054 1820.297196 1822.495025
186.401667 1814.625573 1816.811737 1819.332301 1819.244113 1821.647218 1823.742299
186.543333 1815.898800 1818.223866 1820.712842 1820.653570 1823.028261 1825.125071
186.685000 1817.218007 1819.599550 1822.253555 1822.154811 1824.562074 1826.720899
186.826667 1818.671202 1821.120571 1823.832750 1823.748593 1826.285653 1828.660605
186.968333 1820.156850 1822.676899 1825.561683 1825.445658 1828.112338 1830.743207
187.110000 1821.912629 1824.406912 1827.336839 1827.325666 1830.124853 1833.082282
187.251667 1823.270680 1826.302265 1829.361673 1829.381078 1832.460478 1835.205795
187.393333 1824.952091 1828.515487 1831.724576 1831.769885 1835.113957 1838.144356
187.535000 1827.335454 1830.696781 1834.501614 1834.566184 1838.501378 1841.549923
187.635000 1828.617980 1832.592532 1836.696356 1836.764896 1840.942949 1844.232295
187.735000 1830.366492 1834.845044 1839.474355 1839.282572 1843.650451 1846.968129
187.835000 1833.153278 1837.609847 1842.352652 1842.030229 1846.209921 1849.722610
187.935000 1834.977980 1840.856032 1845.380667 1844.881872 1848.748669 1852.958046
188.035000 1838.025864 1843.852747 1848.092387 1847.690760 1851.451601 1855.728947
188.135000 1841.040161 1846.424499 1850.857095 1850.579101 1854.371555 1860.024472
188.235000 1844.502603 1849.586744 1853.545265 1853.660343 1857.521009 1864.994680
188.335000 1848.090466 1852.582018 1856.440967 1856.938585 1861.081033 1869.778126
188.475000 1852.225204 1857.136644 1861.687804 1862.498100 1868.618076 1875.210543
188.615000 1857.045698 1862.078277 1868.240285 1868.550233 1875.541165 1880.233685
188.755000 1862.907424 1868.512648 1874.718834 1874.634123 1881.120568 1884.563447
188.895000 1868.707174 1874.833728 1881.132863 1880.467137 1886.067972 1889.457487
189.035000 1875.625005 1880.924946 1886.948058 1886.076406 1890.955541 1893.901766
189.135000 1880.122551 1885.049094 1890.568442 1889.921176 1894.269249 1896.886338
189.235000 1884.925855 1889.404721 1894.210236 1893.676807 1897.602942 1900.734708
189.335000 1890.284215 1893.902389 1897.953033 1897.553438 1900.810038 1903.903631
189.435000 1895.288650 1899.326217 1902.359666 1902.069929 1904.877416 1907.376279
189.535000 1901.114506 1904.343368 1906.969337 1906.704784 1908.927989 1910.991866
189.635000 1906.797063 1908.966449 1910.789846 1910.723939 1912.464745 1913.969756
189.735000 1910.550910 1912.272277 1913.831737 1913.645279 1914.969360 1915.861987
189.835000 1914.064957 1914.982848 1915.718808 1915.733350 1916.498274 1917.193919
189.935000 1915.282838 1916.017362 1916.779681 1916.771992 1917.529684 1918.198493
190.035000 1916.248070 1916.966348 1917.680598 1917.698756 1918.405158 1919.201063
190.135000 1917.137252 1917.891464 1918.607874 1918.635400 1919.375323 1920.230499
190.235000 1918.137025 1918.813009 1919.556180 1919.625825 1920.449375 1921.427295
190.335000 1918.940602 1919.743553 1920.565174 1920.664671 1921.593818 1922.858097
190.435000 1919.876309 1920.682410 1921.693441 1921.804422 1922.901490 1924.496817
190.535000 1920.779008 1921.647295 1922.763356 1922.910991 1924.315131 1925.784897
190.635000 1921.520200 1922.489171 1923.790477 1923.952074 1925.448804 1926.908695
190.685000 1922.097768 1923.031013 1924.390773 1924.520935 1926.052792 1927.513388
190.785000 1923.012345 1924.101712 1925.680265 1925.745190 1927.411730 1929.066851
190.885000 1924.127328 1925.323963 1927.083722 1927.073697 1928.763645 1930.428786
