depth(m) lower_95(kyr) lower_68(kyr) median(kyr) mean(kyr) upper_68(kyr) upper_95(kyr)
72.520000 1488.200073 1491.558911 1494.023618 1493.790282 1496.192679 1497.581279
72.620000 1489.870421 1492.951248 1495.288205 1495.096791 1497.408004 1498.692815
72.720000 1491.584476 1494.405670 1496.641422 1496.483198 1498.584837 1499.947943
72.820000 1493.666980 1495.903632 1498.018173 1497.902357 1499.975386 1501.341686
72.920000 1495.294145 1497.510938 1499.611825 1499.511385 1501.465290 1503.139363
73.020000 1497.231860 1499.371565 1501.511810 1501.554846 1503.758482 1506.375424
73.120000 1500.154395 1502.438536 1504.982399 1504.980783 1507.430792 1510.226515
73.220000 1503.838074 1506.315531 1508.958360 1509.062234 1511.758907 1514.901124
73.320000 1507.751653 1510.109005 1512.515371 1512.818866 1515.465488 1520.661564
73.420000 1511.359834 1513.783174 1516.296152 1516.741425 1519.824452 1524.317482
73.520000 1515.296462 1517.709356 1520.573842 1520.670858 1523.614982 1526.982246
73.620000 1519.648690 1522.300098 1524.964533 1524.883060 1527.462621 1529.512368
73.720000 1523.594489 1525.819382 1528.076321 1528.013526 1530.093727 1531.754445
73.820000 1527.041221 1528.871312 1530.792352 1530.680241 1532.473249 1533.965003
73.920000 1529.352487 1530.925282 1532.644277 1532.577221 1534.275147 1535.526590
74.020000 1530.979138 1532.519729 1534.057023 1534.040646 1535.536198 1536.740599
74.120000 1532.542035 1533.889565 1535.333601 1535.319447 1536.741661 1537.853117
74.220000 1533.939427 1535.144516 1536.526222 1536.511462 1537.882335 1539.000973
74.320000 1535.099058 1536.375101 1537.752333 1537.728426 1539.050691 1540.243427
74.420000 1536.330839 1537.766722 1539.065568 1539.064133 1540.423373 1541.574957
74.520000 1537.712010 1539.315228 1540.584493 1540.552834 1541.831422 1543.082907
74.620000 1539.472547 1540.878595 1542.090862 1542.163814 1543.447682 1545.040346
74.720000 1541.297497 1542.465407 1543.648181 1543.818104 1545.191722 1547.261466
74.820000 1542.445050 1543.805803 1545.186350 1545.382321 1546.939215 1549.487294
74.920000 1543.594626 1545.010133 1546.627178 1546.949128 1548.902282 1552.228077
75.020000 1544.664614 1546.194291 1548.252995 1548.709897 1551.397493 1554.914908
75.120000 1545.769902 1547.529372 1550.207069 1550.851350 1554.911508 1557.782662
75.220000 1547.348495 1549.112198 1553.155767 1553.416202 1557.835093 1560.453179
75.320000 1549.185731 1551.525604 1556.729613 1556.376856 1560.850907 1563.203196
75.420000 1551.703301 1554.597588 1560.327715 1559.490145 1563.501698 1565.384156
75.520000 1554.462189 1557.815384 1563.421101 1562.429440 1565.878630 1567.622282
75.620000 1557.411336 1561.310907 1566.084295 1565.179155 1568.077279 1569.613625
75.720000 1560.857283 1565.210650 1568.211454 1567.625143 1569.885266 1571.319628
75.820000 1565.384343 1568.393124 1570.245235 1569.966064 1571.675386 1572.931321
75.920000 1568.895087 1570.832940 1572.157559 1572.141527 1573.508848 1574.846866
76.020000 1571.160011 1572.610183 1573.899779 1573.899699 1575.174433 1576.626999
76.120000 1572.830299 1574.111542 1575.478975 1575.461746 1576.796471 1578.224301
76.240000 1574.316029 1575.923893 1577.348655 1577.449513 1579.064685 1580.676714
76.340000 1575.897675 1577.418737 1579.009216 1579.123626 1580.787162 1582.919289
76.440000 1577.481545 1579.386204 1581.048251 1581.157427 1583.037818 1585.100070
76.540000 1579.598002 1581.434594 1583.296719 1583.384196 1585.346304 1587.531158
76.640000 1581.563313 1583.721857 1585.806743 1585.819057 1587.966127 1589.973960
76.740000 1582.866964 1585.859193 1588.287048 1588.071759 1590.254331 1592.134262
76.840000 1584.714764 1588.071249 1590.595436 1590.301460 1592.459955 1594.363574
76.940000 1586.997561 1590.492840 1592.764838 1592.509847 1594.599331 1596.292841
77.040000 1589.529826 1592.900940 1595.173630 1594.883409 1596.831038 1598.598721
77.140000 1593.145706 1595.600574 1597.669571 1597.568398 1599.524618 1601.604557
77.240000 1595.713373 1598.110652 1600.138755 1600.205615 1602.388016 1605.159466
77.340000 1598.332435 1600.467889 1602.643941 1602.866932 1605.390526 1608.293469
77.440000 1601.020459 1603.031745 1605.473363 1605.673582 1608.462022 1611.019384
77.540000 1603.493957 1606.011412 1608.693030 1608.733081 1611.488083 1614.531921
77.640000 1605.816663 1608.393303 1611.271578 1611.342756 1614.215151 1616.818546
77.740000 1607.964087 1611.094450 1613.821464 1613.793194 1616.413397 1619.180770
77.840000 1610.956831 1613.545719 1616.156879 1616.143852 1618.549638 1621.328853
77.940000 1613.410841 1615.961593 1618.405848 1618.414231 1620.794459 1623.771864
78.040000 1615.678752 1618.042359 1620.496828 1620.522466 1622.870251 1625.961102
78.140000 1617.812430 1620.103058 1622.541688 1622.653261 1625.220945 1628.052473
78.240000 1620.214857 1622.188810 1624.681341 1624.814629 1627.577753 1630.817925
78.340000 1621.781790 1624.107139 1626.629062 1626.914188 1629.900015 1632.965125
78.440000 1623.736139 1626.080607 1628.897696 1629.072493 1632.246519 1635.210617
78.540000 1625.375327 1628.088233 1631.160678 1631.312424 1634.576451 1637.470361
78.640000 1627.634856 1630.435211 1633.644118 1633.697811 1636.951619 1639.922992
78.740000 1629.842449 1632.660840 1636.260453 1636.313496 1639.994407 1642.810732
78.840000 1632.275368 1635.571269 1639.228933 1639.248614 1643.069850 1645.791271
78.940000 1635.168379 1638.787527 1642.572048 1642.387965 1646.042492 1648.272304
79.040000 1639.493822 1642.782631 1646.113077 1645.949823 1649.049406 1651.496197
79.140000 1642.571389 1645.947630 1648.862329 1648.733882 1651.370240 1654.036098
79.240000 1645.552631 1648.534771 1651.079233 1650.996038 1653.480056 1655.954616
79.340000 1647.807860 1650.639256 1652.893867 1652.840759 1655.073502 1657.572038
79.480000 1650.919325 1652.988283 1655.150856 1655.125504 1657.322982 1659.399386
79.580000 1652.763731 1654.650353 1656.654996 1656.695182 1658.895155 1660.722327
79.680000 1654.274701 1656.062226 1658.058415 1658.108097 1660.154907 1662.099611
79.780000 1655.834211 1657.501812 1659.409096 1659.505810 1661.577944 1663.327937
79.880000 1657.282324 1658.787624 1660.795503 1660.834503 1662.839278 1664.396259
79.980000 1658.498621 1660.187781 1662.172119 1662.155271 1664.141729 1665.610957
80.080000 1659.950730 1661.738845 1663.564602 1663.594291 1665.608148 1667.385922
80.180000 1661.314460 1663.261424 1665.086252 1665.149447 1667.170774 1669.000690
80.280000 1663.361188 1665.075178 1667.204420 1667.232101 1669.310872 1671.457669
80.380000 1665.947112 1668.046347 1670.076725 1670.205146 1672.527057 1674.728589
80.480000 1669.376725 1671.511164 1673.672724 1673.653100 1675.813455 1677.973708
80.580000 1672.110021 1674.116544 1676.426711 1676.361521 1678.451314 1680.520570
80.680000 1674.305737 1676.391737 1678.485213 1678.478590 1680.589461 1682.545729
80.780000 1676.097585 1678.173691 1680.242150 1680.289205 1682.422580 1684.534832
80.880000 1678.031263 1679.964691 1681.999905 1682.060465 1684.299880 1686.509732
80.980000 1679.670443 1681.647081 1683.697192 1683.778413 1685.887629 1688.144352
81.080000 1681.492633 1683.558266 1685.538610 1685.616127 1687.675804 1689.838355
81.180000 1683.296172 1685.385533 1687.397897 1687.517766 1689.794245 1692.057256
81.280000 1685.257276 1687.028484 1689.258054 1689.353400 1691.674245 1693.833862
81.380000 1686.991411 1689.019707 1691.383790 1691.301880 1693.663993 1695.626762
81.480000 1689.015736 1691.133595 1693.513050 1693.496886 1695.852622 1697.752463
81.580000 1691.528186 1693.945284 1696.218366 1696.165159 1698.417361 1700.440129
81.680000 1694.994491 1697.196361 1699.398106 1699.288975 1701.321966 1702.989318
81.780000 1697.785766 1699.744282 1701.930036 1701.820564 1703.808718 1705.489812
81.880000 1699.809792 1701.975194 1704.141410 1704.037111 1706.036261 1707.791972
81.980000 1702.035169 1704.165305 1706.151972 1706.121347 1708.106467 1709.978525
82.080000 1704.327480 1706.276713 1708.125005 1708.166486 1710.029474 1711.891657
82.180000 1706.791294 1708.661353 1710.425616 1710.433680 1712.168184 1713.979131
82.280000 1709.296955 1710.972378 1712.715456 1712.735627 1714.546930 1716.151816
82.380000 1711.362171 1713.000536 1714.702430 1714.760324 1716.577423 1718.390581
82.480000 1713.678483 1715.145198 1716.780401 1716.860079 1718.639233 1720.700975
82.580000 1715.297168 1716.962740 1718.677016 1718.779981 1720.575473 1722.584608
82.680000 1717.160704 1718.844990 1720.583661 1720.724707 1722.631600 1724.780364
82.780000 1718.901241 1720.714087 1722.752499 1722.789145 1724.926532 1727.069205
82.880000 1720.613306 1722.585916 1724.705983 1724.680647 1726.832011 1728.872386
82.980000 1722.300326 1724.274685 1726.464662 1726.438117 1728.674081 1730.509051
83.080000 1724.069171 1725.970510 1728.106342 1728.159499 1730.319404 1732.703566
83.180000 1725.708811 1727.634968 1729.794132 1729.831261 1731.970974 1734.336345
83.280000 1727.086763 1729.317432 1731.718020 1731.620259 1733.838438 1736.325868
83.380000 1728.768554 1731.060639 1733.402318 1733.406740 1735.661963 1738.413337
83.480000 1730.489423 1732.890820 1735.311990 1735.319334 1737.629841 1740.738066
83.580000 1731.984662 1734.461358 1736.935625 1737.205185 1739.788447 1743.940825
83.680000 1733.551652 1736.256791 1738.915900 1739.388482 1742.707579 1747.275431
83.780000 1735.087245 1738.012219 1741.168477 1741.791836 1745.937651 1750.835989
83.880000 1737.150520 1740.056587 1744.023446 1744.582148 1749.599196 1753.724583
83.980000 1739.719814 1742.520797 1747.247970 1747.500499 1752.867128 1756.290757
84.080000 1742.173201 1746.002992 1750.845306 1750.729793 1755.519967 1758.511078
84.180000 1746.415224 1750.075483 1754.306315 1754.063848 1758.092479 1760.754893
84.280000 1750.486148 1754.590512 1757.786372 1757.590089 1760.791509 1763.297240
84.380000 1754.640906 1757.635383 1760.652410 1760.544475 1763.464621 1765.947717
84.480000 1757.629417 1760.146955 1762.983116 1763.006318 1765.765530 1768.385357
84.580000 1759.610584 1762.625644 1765.389335 1765.330100 1768.063083 1770.881408
84.680000 1762.067580 1764.755662 1767.596849 1767.522916 1770.285007 1772.847107
84.780000 1764.187896 1767.104568 1769.862491 1769.774733 1772.523938 1774.977323
84.880000 1766.018797 1769.199121 1772.322244 1772.106955 1774.890112 1777.131418
84.980000 1768.613416 1771.502140 1774.583925 1774.416162 1777.273382 1779.482803
85.080000 1770.819965 1773.747458 1776.728490 1776.534988 1779.251056 1781.376488
85.180000 1773.210565 1776.062887 1779.007751 1778.721792 1781.211182 1782.946532
85.280000 1775.697412 1778.298542 1781.054024 1780.811012 1783.098634 1784.710495
85.380000 1777.955794 1780.524722 1783.018441 1782.770863 1784.832043 1786.438773
85.480000 1780.252316 1782.839290 1784.768159 1784.615757 1786.472620 1788.050700
85.580000 1782.542043 1784.787362 1786.406953 1786.341957 1787.911548 1789.337877
85.680000 1784.583918 1786.472453 1787.946553 1787.847018 1789.363971 1790.521415
85.780000 1785.986743 1787.749578 1789.187039 1789.110082 1790.522477 1791.875800
85.880000 1787.311720 1788.951404 1790.329351 1790.273563 1791.622783 1792.901808
85.980000 1788.902870 1790.383146 1791.591214 1791.575217 1792.826704 1794.121987
86.080000 1791.389263 1792.426204 1793.372935 1793.377606 1794.360508 1795.339658
86.180000 1793.366845 1794.745947 1796.338431 1796.406223 1798.081842 1799.864951
86.280000 1795.771339 1797.509740 1799.180349 1799.188443 1800.883620 1802.765187
86.380000 1798.614159 1800.111425 1801.772741 1801.903270 1803.700126 1806.145330
86.480000 1800.695508 1802.127611 1803.919363 1804.124599 1806.174308 1808.738686
86.580000 1802.511105 1804.016642 1805.856570 1806.191153 1808.498293 1811.490645
86.680000 1804.067133 1805.637114 1807.909356 1808.290265 1810.982816 1814.174483
86.780000 1805.693914 1807.404096 1810.148211 1810.432690 1813.385376 1816.982638
86.880000 1807.387473 1809.246273 1812.554485 1812.716144 1816.160651 1819.286203
86.980000 1809.032576 1811.388450 1814.991254 1815.165954 1818.952480 1822.418431
87.080000 1810.977914 1813.831314 1817.905551 1817.866042 1821.739480 1824.956167
87.180000 1812.872174 1816.611291 1820.787372 1820.615705 1824.531968 1827.520914
87.280000 1815.522765 1819.654264 1823.824723 1823.487263 1827.226131 1829.923386
87.380000 1819.016616 1822.862354 1826.680324 1826.330391 1829.782475 1832.332431
87.480000 1822.202236 1825.993390 1829.327876 1829.104535 1832.215461 1834.718832
87.580000 1825.591024 1829.243887 1832.224080 1831.964123 1834.881612 1836.647381
87.680000 1830.066993 1832.981704 1835.394966 1835.145136 1837.382561 1838.752112
87.780000 1834.237728 1836.578413 1838.331501 1838.077621 1839.549659 1840.720188
87.880000 1838.819478 1839.718213 1840.641275 1840.635816 1841.477991 1842.430851
87.980000 1840.466734 1841.425601 1842.498168 1842.569161 1843.604092 1845.185478
88.080000 1841.880383 1843.045870 1844.328465 1844.528204 1846.032084 1848.172075
88.180000 1843.396616 1844.694475 1846.291381 1846.693393 1849.000324 1851.224761
88.280000 1845.088436 1846.347245 1848.420051 1848.766756 1851.405815 1853.579387
88.380000 1846.506517 1848.249414 1850.875021 1851.009632 1853.890410 1855.845245
88.480000 1848.318508 1850.513847 1853.500183 1853.398333 1856.133245 1858.047370
88.580000 1850.426758 1853.442384 1856.512589 1856.145078 1858.564080 1860.280657
88.680000 1853.714942 1857.315328 1859.645708 1859.247166 1861.242802 1862.614947
88.780000 1861.142047 1861.969584 1862.929203 1862.966685 1863.930524 1864.978462
88.880000 1863.442866 1864.785353 1866.369329 1866.734444 1868.678807 1872.015913
88.980000 1865.603020 1867.462511 1869.659668 1870.065672 1872.832500 1876.387422
89.080000 1867.992377 1869.946761 1872.741631 1873.042554 1876.137539 1879.605608
89.180000 1870.430993 1872.552056 1875.520303 1875.694685 1878.804710 1882.098220
89.280000 1872.686064 1874.976348 1878.220596 1878.201944 1881.326777 1884.409828
89.380000 1875.158270 1877.486583 1880.598855 1880.612753 1883.666016 1886.500638
89.480000 1877.262635 1880.023643 1882.984958 1882.915343 1885.815924 1888.371321
89.580000 1879.379492 1882.468494 1885.245930 1885.141950 1887.832417 1890.186785
89.680000 1881.774752 1884.933549 1887.549770 1887.398985 1889.818620 1892.328041
89.780000 1884.349373 1887.246995 1889.773972 1889.617528 1891.975352 1894.202475
89.880000 1886.711014 1889.633142 1891.804243 1891.855344 1894.401814 1896.504058
89.920000 1887.557586 1890.487824 1892.711627 1892.730037 1895.131348 1897.140738
90.020000 1889.716115 1892.450581 1894.981707 1894.857596 1897.410384 1899.318847
90.120000 1891.950725 1894.370570 1897.086775 1896.955656 1899.424687 1901.550485
90.220000 1894.317894 1896.702153 1899.308555 1899.184957 1901.531486 1903.602153
90.320000 1896.753225 1899.373970 1901.848669 1901.731537 1904.046542 1906.179157
90.420000 1899.768432 1902.046416 1904.399090 1904.417486 1906.781968 1908.536337
90.520000 1902.225026 1905.040013 1907.163196 1907.128649 1909.429308 1911.139418
90.620000 1905.990649 1908.236571 1910.121389 1910.084250 1912.042716 1913.489418
90.720000 1909.616610 1911.290163 1912.851966 1912.774180 1914.232845 1915.409640
90.820000 1912.203608 1913.702072 1914.876227 1914.800612 1915.908656 1916.847103
90.920000 1914.798161 1915.732843 1916.547716 1916.502546 1917.297574 1917.976439
91.020000 1916.046400 1916.883607 1917.787940 1917.792814 1918.681659 1919.613754
91.120000 1917.160648 1917.955352 1918.856393 1918.917220 1919.850174 1921.204000
91.220000 1918.313022 1919.135375 1920.070086 1920.191739 1921.249705 1922.925647
91.320000 1919.347702 1920.216541 1921.392469 1921.544187 1922.857619 1924.776382
91.420000 1920.305311 1921.468506 1922.784179 1923.016477 1924.621807 1926.550210
91.520000 1921.694761 1922.922076 1924.578950 1924.718717 1926.632048 1928.512682
91.620000 1923.109830 1924.483199 1926.341069 1926.437457 1928.411790 1930.246708
91.720000 1924.523424 1926.138050 1928.147830 1928.172765 1930.178902 1932.096535
91.820000 1926.196991 1927.951707 1929.912374 1929.945746 1931.975488 1933.896028
91.920000 1927.877346 1929.799253 1931.750677 1931.789701 1933.829265 1935.899781
92.020000 1929.671547 1931.502298 1933.245929 1933.405567 1935.375059 1937.442257
92.120000 1931.318124 1933.103031 1934.992842 1935.107794 1937.090635 1939.498133
92.220000 1933.054061 1934.804931 1936.924948 1936.965534 1939.130952 1941.288339
92.320000 1934.644513 1936.369887 1938.617463 1938.699887 1941.063013 1943.151741
92.420000 1936.260014 1938.060168 1940.334458 1940.483637 1943.034700 1945.351263
92.520000 1937.993447 1939.936781 1942.315307 1942.431177 1945.083075 1947.067654
92.620000 1939.779959 1942.096625 1944.672882 1944.785167 1947.680165 1949.581232
92.720000 1942.414518 1945.008342 1948.282374 1947.890377 1950.481201 1952.171459
92.820000 1946.905097 1950.337123 1952.411551 1952.067989 1953.778544 1955.121882
92.920000 1954.081006 1955.001924 1955.816008 1955.856785 1956.752797 1957.786426
93.020000 1956.376187 1957.429749 1958.635097 1958.865172 1960.315172 1962.711966
93.120000 1958.239593 1959.492552 1961.150546 1961.482538 1963.637540 1966.158089
93.220000 1960.207040 1961.458958 1963.720126 1963.977000 1966.637535 1969.037695
93.320000 1962.117483 1963.765658 1966.392726 1966.496637 1969.328386 1971.392182
93.420000 1964.533997 1966.454371 1969.267603 1969.154200 1971.824653 1973.513465
93.520000 1967.071809 1969.536254 1972.239439 1971.954198 1974.218026 1975.559333
93.620000 1970.018907 1972.861331 1975.004410 1974.732228 1976.512648 1978.136418
93.720000 1974.218843 1976.207748 1977.609043 1977.563383 1979.019372 1980.443912
93.820000 1976.944104 1978.421341 1979.661008 1979.732919 1981.126889 1982.560016
93.920000 1978.747245 1979.972828 1981.374465 1981.440906 1982.876612 1984.414902
94.020000 1980.214194 1981.446441 1982.830583 1982.934222 1984.421175 1985.972335
94.120000 1981.660853 1982.831417 1984.198851 1984.364243 1985.922015 1987.740212
94.220000 1983.157676 1984.259572 1985.708964 1985.891259 1987.644713 1989.612030
94.320000 1984.472821 1985.784366 1987.436549 1987.712567 1989.735082 1992.042062
94.420000 1985.878213 1987.543570 1989.770129 1989.920202 1992.135352 1994.816589
94.520000 1987.861957 1990.123310 1992.844964 1992.850857 1995.489356 1998.529624
94.620000 1991.215321 1994.641922 1997.245182 1997.291892 2000.229385 2003.417266
94.720000 1995.221308 1998.148153 2000.935318 2000.947535 2003.631902 2006.847772
94.820000 1998.181735 2001.193416 2004.124706 2004.099271 2007.087117 2010.168115
94.920000 2001.046480 2003.932215 2006.810609 2006.929740 2009.866313 2012.965721
95.020000 2003.940878 2006.693105 2009.478202 2009.535763 2012.511602 2015.009372
95.120000 2006.555422 2009.122538 2012.205588 2012.127810 2015.135811 2017.198960
95.220000 2008.796733 2011.434288 2014.740203 2014.485173 2017.356838 2019.413355
95.320000 2011.424546 2013.931903 2016.966592 2016.760236 2019.572444 2021.441545
95.420000 2014.287060 2017.028877 2019.587737 2019.357556 2021.660010 2023.394540
95.520000 2017.302715 2019.886584 2021.936940 2021.773362 2023.695584 2025.395744
95.620000 2020.164859 2022.116257 2023.777769 2023.736689 2025.448912 2026.988603
95.720000 2022.412277 2023.939123 2025.486942 2025.503908 2027.071366 2028.707227
95.820000 2024.070331 2025.644994 2027.090529 2027.196458 2028.785574 2030.500321
95.920000 2025.718953 2027.245825 2028.791017 2028.951402 2030.675012 2032.887093
96.020000 2027.414174 2028.956810 2030.569713 2030.745752 2032.483938 2035.098151
96.120000 2029.030476 2030.584751 2032.434132 2032.690156 2034.778102 2037.726326
96.220000 2030.712461 2032.343780 2034.489915 2034.751403 2037.120194 2040.174041
96.320000 2032.165259 2034.045680 2036.606141 2036.789192 2039.372656 2042.774259
96.420000 2033.973691 2036.093193 2038.871318 2039.091022 2042.143365 2045.745161
96.520000 2035.835057 2038.153717 2041.315738 2041.438230 2044.755261 2048.224106
96.620000 2037.818721 2040.381584 2043.715097 2043.898273 2047.450269 2050.496802
