depth(m) lower_95(kyr) lower_68(kyr) median(kyr) mean(kyr) upper_68(kyr) upper_95(kyr)
187.535000 1814.329956 1814.623003 1815.526595 1815.422062 1816.091537 1816.244372
187.635000 1815.492578 1816.362040 1817.582125 1817.946313 1819.400649 1822.597625
187.735000 1816.922639 1818.039125 1819.748157 1820.400443 1823.089463 1826.554746
187.835000 1818.356118 1819.715329 1821.852338 1822.658148 1825.759804 1830.100446
187.935000 1819.812831 1821.415365 1824.260303 1824.929183 1828.499775 1833.524986
188.035000 1821.323781 1823.188644 1826.656703 1827.150608 1831.208225 1835.852187
188.135000 1822.735448 1825.004584 1829.064447 1829.397067 1833.974236 1838.364745
188.235000 1824.290813 1826.726762 1831.607524 1831.696884 1836.529400 1840.631848
188.335000 1826.075009 1828.759845 1833.932575 1833.969564 1839.066138 1842.595732
188.475000 1828.179917 1831.539078 1837.036607 1836.956100 1842.295210 1845.068818
188.615000 1830.292172 1834.461662 1840.349418 1840.015595 1845.223385 1848.496412
188.755000 1833.053945 1837.277645 1843.588264 1843.086860 1847.928779 1850.721624
188.895000 1835.967502 1840.564933 1846.907107 1846.047107 1850.398238 1852.848873
189.035000 1839.146552 1843.945152 1850.102603 1849.107087 1852.759580 1854.797326
189.135000 1841.103149 1846.610831 1852.050559 1851.228147 1854.504629 1856.370333
189.235000 1844.161902 1849.583750 1854.017072 1853.428405 1856.120260 1857.794698
189.335000 1847.191101 1852.677457 1855.931177 1855.517881 1857.622792 1859.273826
189.435000 1850.594427 1855.451826 1857.766821 1857.666405 1859.316814 1861.264154
189.535000 1854.314616 1857.896952 1859.541736 1859.769949 1861.060884 1863.734749
189.635000 1857.775507 1859.867469 1861.270527 1861.697222 1862.813692 1866.197504
189.735000 1859.795855 1861.487455 1862.908286 1863.491072 1864.619332 1869.835431
189.835000 1861.652243 1862.930886 1864.537834 1865.296226 1866.629827 1872.968795
189.935000 1863.124884 1864.481675 1866.226865 1867.256701 1869.299758 1876.330344
190.035000 1864.468773 1865.989027 1868.164186 1869.413333 1872.216235 1880.403571
190.135000 1865.939482 1867.885341 1870.735200 1872.150339 1876.283052 1884.655874
190.235000 1868.047767 1869.902953 1874.151749 1875.554201 1881.249837 1890.376848
190.335000 1869.756882 1872.508857 1878.385977 1879.398790 1885.687280 1895.803336
190.435000 1871.953323 1875.839100 1883.345859 1883.767525 1890.903954 1899.394806
190.535000 1874.132490 1880.113901 1888.325962 1888.351956 1896.127162 1902.835582
190.635000 1875.960525 1883.820211 1894.024526 1892.865515 1900.364392 1907.689226
190.685000 1877.429905 1885.645554 1895.951427 1894.584162 1902.081386 1908.884056
190.785000 1880.331383 1890.760164 1899.881811 1898.820427 1906.062670 1911.518902
190.885000 1883.195911 1896.542030 1904.298859 1902.991493 1909.909224 1914.710933
190.985000 1886.593894 1901.221670 1908.315270 1907.079309 1913.813361 1918.280818
191.085000 1891.752487 1905.940104 1912.063236 1910.949628 1916.996858 1921.929406
191.185000 1896.248297 1909.431696 1915.358079 1914.382910 1919.980999 1924.602942
191.285000 1900.650818 1912.803165 1918.350210 1917.586059 1922.889831 1926.986728
191.385000 1906.164662 1916.308368 1921.429984 1920.756388 1925.648184 1929.302164
191.485000 1912.772208 1919.423364 1924.376607 1923.814877 1928.187298 1931.430094
191.585000 1916.342788 1922.718810 1926.874859 1926.475654 1930.618166 1933.554195
191.685000 1919.835357 1925.522283 1929.277601 1929.051719 1932.909014 1935.829332
191.785000 1923.940973 1927.936481 1931.700857 1931.409427 1935.058148 1937.884338
191.885000 1926.387371 1930.086013 1933.815876 1933.604295 1937.210091 1939.792857
191.985000 1928.930888 1932.461875 1936.064546 1935.858402 1939.168005 1941.752507
192.085000 1931.956077 1934.945603 1938.358304 1938.077460 1941.153256 1943.771498
192.185000 1934.584453 1937.524862 1940.561561 1940.339535 1943.133620 1946.129769
192.285000 1937.422030 1940.161497 1942.419007 1942.595239 1945.278444 1948.683695
192.385000 1940.507286 1942.527859 1944.693279 1945.026998 1947.834511 1951.546526
192.485000 1942.354122 1944.433199 1947.069088 1947.359351 1950.361116 1953.885745
192.585000 1944.301872 1946.414033 1949.341125 1949.594846 1952.731185 1957.123953
192.685000 1945.986487 1948.390134 1951.643951 1951.950369 1955.619162 1959.704021
192.785000 1947.807141 1950.546520 1953.843350 1954.373396 1958.786736 1962.331683
192.885000 1950.074610 1952.750097 1956.758148 1957.074196 1961.642570 1965.228403
192.985000 1952.227559 1955.249076 1959.832022 1959.811287 1964.165308 1968.603599
193.085000 1954.581731 1958.210947 1963.019719 1962.703460 1966.938497 1971.179133
193.185000 1957.364304 1961.003113 1965.690512 1965.499683 1969.557860 1973.836940
193.285000 1959.600986 1964.318073 1968.446641 1968.177971 1972.010201 1976.211714
193.385000 1962.572835 1966.983713 1971.052952 1970.738221 1974.457107 1979.339517
193.485000 1965.188881 1969.379541 1973.219594 1973.090783 1976.782360 1981.219386
193.585000 1967.532370 1971.557932 1975.381925 1975.312816 1978.993779 1983.470441
193.685000 1970.346193 1973.770329 1977.384453 1977.476464 1981.171162 1985.979924
193.785000 1972.762391 1975.973641 1979.267306 1979.554121 1983.400773 1988.589337
193.885000 1974.893931 1977.929949 1981.188331 1981.555377 1985.449913 1990.686523
193.985000 1977.015811 1979.881459 1983.072102 1983.636106 1987.644916 1993.255376
194.085000 1979.007617 1981.944241 1985.226751 1985.880000 1990.773285 1995.210538
194.185000 1980.797049 1984.047552 1987.468510 1988.287051 1993.635663 1997.154265
194.285000 1983.280402 1986.465777 1990.774073 1991.146447 1996.316497 1999.078933
194.385000 1986.217921 1989.371007 1994.655310 1994.233889 1998.869187 2001.780621
194.485000 1988.745090 1992.207114 1998.034603 1997.170560 2001.123472 2003.982218
194.585000 1991.180826 1995.714406 2000.270054 1999.713261 2003.341271 2005.849617
194.685000 1992.994778 1998.760853 2002.350061 2001.811175 2005.151642 2007.515248
194.785000 1995.229873 2001.091122 2004.358935 2003.833021 2006.854726 2009.397216
194.885000 1997.346969 2003.159645 2006.195558 2005.812130 2008.690993 2011.258804
194.985000 2000.313727 2005.326702 2008.114248 2007.949111 2010.854504 2013.769168
195.085000 2002.942875 2007.669678 2010.314041 2010.200062 2013.164063 2015.956345
195.185000 2005.628142 2009.646466 2012.662176 2012.390366 2015.298485 2017.829628
195.285000 2008.400475 2011.867553 2014.746885 2014.509429 2017.351395 2019.656778
195.385000 2010.277575 2013.989388 2016.908272 2016.583387 2019.305923 2021.573248
195.485000 2012.517153 2016.401615 2018.980007 2018.707284 2021.139996 2023.347853
195.585000 2015.436997 2018.379257 2020.826251 2020.641825 2022.843056 2025.056141
195.685000 2017.517029 2020.401328 2022.625516 2022.472372 2024.618525 2026.678419
195.785000 2019.865863 2022.346508 2024.248161 2024.204483 2026.320770 2028.234895
195.885000 2022.236368 2024.025823 2025.675470 2025.844420 2028.053084 2029.887920
195.985000 2023.930291 2025.452660 2027.251116 2027.392857 2029.499130 2031.475180
196.085000 2025.090537 2026.981458 2028.872088 2028.947805 2031.035193 2033.077548
196.185000 2026.642308 2028.570056 2030.419397 2030.563533 2032.543521 2034.845905
196.285000 2028.302531 2030.117301 2032.111030 2032.194535 2034.269646 2036.935662
196.385000 2029.922299 2031.771531 2033.907708 2033.992291 2036.269436 2039.181525
196.485000 2031.586582 2033.364497 2035.643929 2035.765576 2038.278758 2040.881492
196.585000 2033.176686 2034.996955 2037.592578 2037.663484 2040.328104 2042.921771
196.685000 2034.608547 2036.802392 2039.410981 2039.500292 2042.501216 2044.955322
196.785000 2036.422733 2038.532893 2041.244231 2041.412649 2044.382465 2046.986459
196.885000 2037.757961 2040.384537 2043.042636 2043.165125 2046.193924 2048.780238
196.985000 2039.679535 2042.265053 2044.942283 2044.968669 2047.879869 2050.214847
197.085000 2041.430648 2044.055422 2046.756368 2046.737411 2049.586922 2051.837270
197.185000 2043.136604 2045.787512 2048.483595 2048.466200 2051.297356 2053.390831
197.285000 2044.868362 2047.617887 2050.394734 2050.282316 2053.000030 2055.375826
197.385000 2046.533817 2049.311482 2052.364790 2052.097600 2054.806893 2057.159201
197.485000 2048.227392 2051.113204 2054.114496 2053.818185 2056.350038 2058.626591
197.585000 2049.690941 2052.943332 2055.710455 2055.481217 2057.962635 2060.049726
197.685000 2051.844347 2054.829572 2057.417777 2057.200231 2059.520954 2061.381128
197.785000 2053.537952 2056.562413 2059.114044 2058.901966 2061.202596 2062.861451
197.885000 2056.034799 2058.631923 2060.946044 2060.772581 2062.876005 2064.636944
197.997500 2058.527592 2060.917219 2063.004507 2062.960464 2064.918249 2067.089090
198.110000 2061.319400 2063.329134 2065.082295 2065.133085 2067.026914 2068.933318
198.210000 2063.134443 2065.033702 2066.818405 2066.888742 2068.758056 2070.743994
198.310000 2064.883511 2066.565485 2068.452325 2068.483834 2070.368318 2072.505243
198.410000 2066.416941 2067.970381 2070.004947 2070.004981 2071.918695 2074.167988
198.510000 2067.954002 2069.513044 2071.488644 2071.527486 2073.406097 2075.852725
198.610000 2069.304205 2070.938618 2072.976284 2073.002265 2075.012985 2077.318469
198.710000 2070.843328 2072.442867 2074.428780 2074.523465 2076.636936 2078.650777
198.843333 2072.623189 2074.479816 2076.418019 2076.563846 2078.796279 2080.896580
198.976667 2074.511539 2076.375664 2078.424237 2078.585840 2080.840027 2083.375962
199.110000 2076.501457 2078.355496 2080.550840 2080.718507 2083.140407 2085.427604
199.210000 2078.196423 2079.862438 2082.085648 2082.295944 2084.806665 2087.222203
199.335000 2079.964708 2081.705101 2083.992816 2084.185419 2086.735297 2089.254212
199.435000 2081.440809 2083.207372 2085.524833 2085.721285 2088.248414 2091.040705
199.535000 2082.908364 2084.735449 2087.132197 2087.300714 2089.864081 2092.483649
199.635000 2084.459190 2086.467001 2088.934744 2088.995872 2091.496390 2094.177057
199.735000 2086.193925 2088.270183 2090.748291 2090.772908 2093.282232 2095.892379
199.835000 2088.008194 2090.160117 2092.715928 2092.736413 2095.280541 2098.122211
199.935000 2089.875776 2092.205638 2094.628278 2094.741139 2097.173023 2100.164749
200.035000 2091.831678 2094.316400 2096.590751 2096.747621 2099.170637 2102.686450
200.135000 2093.739051 2096.144210 2098.473044 2098.687322 2101.081552 2105.502766
200.235000 2095.480520 2097.878584 2100.355792 2100.528811 2102.964215 2107.657135
200.335000 2097.225479 2099.639837 2102.061397 2102.448692 2105.150015 2110.238496
200.435000 2099.048016 2101.566822 2104.115552 2104.456864 2107.184183 2112.288658
200.535000 2100.922189 2103.519734 2106.106083 2106.574308 2109.694390 2115.246009
200.635000 2102.593193 2105.323220 2108.335684 2108.650739 2112.098932 2116.888363
200.735000 2104.296843 2107.208445 2110.416594 2110.743288 2114.265733 2118.892246
200.835000 2106.271644 2109.240500 2112.347080 2112.786272 2116.512784 2121.253541
200.935000 2108.000226 2111.384636 2114.769458 2115.023466 2118.999508 2123.422571
201.035000 2110.060293 2113.353297 2116.858854 2117.218491 2121.251972 2125.090540
201.135000 2112.091602 2115.741801 2119.601813 2119.564250 2123.566639 2127.190265
201.235000 2114.656875 2118.050824 2121.997876 2121.901631 2125.800202 2129.068857
201.335000 2116.566295 2120.803222 2124.348359 2124.353350 2128.207226 2131.163452
201.435000 2118.733303 2123.460547 2126.678888 2126.701327 2130.255597 2133.473237
201.535000 2121.394832 2125.468145 2128.841301 2128.765264 2132.425784 2135.487122
201.635000 2123.727352 2127.470156 2130.839975 2130.767851 2134.120743 2137.192265
201.735000 2125.830993 2129.470487 2132.916227 2132.755368 2135.985599 2138.986651
201.835000 2128.263413 2131.338350 2134.850215 2134.676379 2137.772762 2140.517824
201.935000 2130.576439 2133.825005 2137.049555 2136.787244 2139.808158 2142.067236
202.035000 2133.304048 2136.383478 2139.230749 2138.983789 2141.606774 2143.612380
202.135000 2135.756759 2138.868995 2141.450384 2141.255660 2143.586248 2145.722486
202.235000 2139.357409 2141.693145 2143.946529 2143.904963 2146.116181 2148.225739
202.335000 2142.630299 2144.741231 2146.493228 2146.658313 2148.615744 2150.871380
202.435000 2146.029136 2147.410547 2149.018063 2149.236394 2151.250071 2153.548936
202.535000 2147.668514 2149.128542 2151.018432 2151.225019 2153.348062 2155.829410
202.635000 2149.233525 2150.776366 2152.843384 2153.004878 2155.227764 2157.590052
202.735000 2150.811846 2152.399458 2154.558890 2154.680312 2157.057605 2159.150059
202.835000 2152.247494 2153.938561 2156.234897 2156.359066 2158.832036 2160.827869
202.935000 2153.582815 2155.613207 2158.059521 2158.123412 2160.535938 2162.718747
203.035000 2155.512486 2157.460814 2160.036003 2160.128283 2162.613956 2165.236397
203.135000 2157.387591 2159.488689 2162.183672 2162.240169 2164.833724 2167.835372
203.235000 2159.409974 2161.733119 2164.418679 2164.541106 2167.483180 2170.712169
203.335000 2161.635748 2163.997672 2167.089173 2167.168072 2170.159770 2173.530361
203.435000 2163.321809 2166.167007 2169.293167 2169.384624 2172.553426 2175.823684
203.535000 2165.316798 2168.289585 2171.471772 2171.549397 2174.844578 2178.179697
203.635000 2167.257030 2170.982100 2173.990915 2174.036632 2177.206318 2181.134965
203.735000 2170.210240 2173.451427 2176.538987 2176.540823 2179.566461 2183.179492
203.835000 2172.924155 2175.880199 2179.040227 2179.066217 2182.170450 2185.136058
203.935000 2174.949061 2178.300601 2181.379175 2181.357093 2184.557575 2187.209756
204.035000 2176.977967 2180.066270 2183.606437 2183.419580 2186.647585 2189.452873
204.135000 2179.122292 2182.081145 2185.717461 2185.470011 2188.721583 2191.509732
204.235000 2180.851698 2184.075706 2187.695673 2187.593509 2190.810712 2194.203855
204.335000 2182.795779 2186.190242 2189.796873 2189.749131 2193.166237 2196.352723
204.435000 2184.787957 2188.556702 2191.892568 2191.897753 2195.356937 2198.857115
204.535000 2187.030922 2190.404258 2193.880578 2193.943852 2197.462420 2201.363241
204.635000 2188.848594 2192.432360 2195.906910 2196.025966 2199.648905 2203.533135
204.735000 2190.717104 2194.409948 2198.020485 2198.053884 2201.711997 2205.481986
204.835000 2192.848045 2196.263981 2200.059701 2200.026255 2203.589411 2207.351870
204.935000 2194.777127 2198.587936 2201.965830 2202.078764 2205.447211 2209.582789
205.035000 2197.262104 2200.783597 2203.993413 2204.181028 2207.714668 2211.542052
205.135000 2198.952457 2202.998990 2206.234541 2206.432635 2210.059045 2214.338391
205.268333 2201.281581 2205.619634 2209.222011 2209.382075 2213.323753 2217.264382
205.401667 2204.056996 2208.494447 2212.204758 2212.348866 2216.494256 2220.242073
205.535000 2207.304560 2211.458691 2215.202202 2215.318530 2219.486508 2222.775886
205.635000 2209.478225 2213.390986 2217.598083 2217.447546 2221.377754 2224.883629
205.735000 2211.710078 2215.777282 2220.065443 2219.670040 2223.338810 2226.382307
205.835000 2213.924186 2218.640092 2222.475427 2221.964576 2225.289703 2228.020458
205.935000 2216.304122 2220.816222 2224.381736 2224.010679 2227.068778 2229.598775
206.035000 2218.885692 2223.242320 2226.319845 2226.041658 2228.998042 2231.400962
206.135000 2221.625040 2225.200291 2228.119029 2227.937141 2230.737062 2232.881994
206.235000 2224.035840 2227.294755 2230.111048 2229.868307 2232.528337 2234.637321
206.335000 2226.271178 2229.342506 2232.081651 2231.884105 2234.392212 2236.239655
206.435000 2228.725085 2231.928132 2234.280218 2234.062350 2236.361410 2238.217311
206.535000 2230.923948 2234.313320 2236.429546 2236.281769 2238.303859 2240.394336
206.635000 2234.268982 2236.579857 2238.466227 2238.412115 2240.269359 2242.240719
206.735000 2236.858564 2238.598064 2240.282514 2240.335921 2242.124742 2244.121513
206.835000 2238.526242 2240.190079 2242.144455 2242.254281 2244.329838 2246.455163
206.935000 2240.264544 2241.900759 2244.162216 2244.254588 2246.613189 2248.790103
207.035000 2241.903831 2243.990963 2246.594653 2246.637695 2249.381618 2251.874647
207.135000 2243.880900 2246.106195 2249.275131 2249.373580 2252.527310 2255.869435
207.235000 2246.269329 2248.931550 2252.149479 2252.212071 2255.515110 2258.496495
207.335000 2249.076853 2251.808320 2255.002272 2255.095189 2258.602123 2261.637996
207.435000 2251.264297 2254.199743 2257.471391 2257.534157 2261.011040 2263.644088
207.560000 2253.700846 2256.558034 2260.068914 2260.104151 2263.707461 2266.545418
207.685000 2256.268578 2259.104457 2262.627052 2262.663657 2266.256729 2268.745260
207.785000 2258.319089 2261.256010 2265.042818 2264.833532 2268.434306 2270.258402
207.885000 2260.663864 2263.608689 2267.676582 2267.208147 2270.394412 2272.169425
207.985000 2263.027378 2267.019211 2270.410176 2269.896353 2272.491563 2274.153796
208.085000 2266.416937 2270.236534 2273.053305 2272.730171 2275.002419 2277.621224
208.185000 2270.455897 2273.283954 2275.267836 2275.341757 2277.574324 2280.023390
208.285000 2273.286305 2275.228628 2277.203918 2277.428106 2279.714304 2282.047628
208.385000 2275.142681 2276.864080 2279.304418 2279.310731 2281.655318 2283.723271
208.485000 2276.804884 2278.797242 2281.085024 2281.074534 2283.319767 2285.388437
208.585000 2278.218934 2280.614348 2282.932901 2282.827108 2285.007875 2287.123175
208.685000 2279.832045 2282.280840 2284.529930 2284.550905 2286.819993 2289.168505
208.785000 2281.823358 2284.184746 2286.395378 2286.408490 2288.603739 2291.131398
208.885000 2283.845846 2286.140338 2288.353521 2288.389586 2290.610887 2293.222340
208.985000 2285.809141 2288.090201 2290.307504 2290.403528 2292.718636 2295.347111
209.085000 2287.956285 2290.164436 2292.289505 2292.521878 2294.957635 2297.276174
209.185000 2290.572744 2292.350140 2294.597364 2294.713514 2297.107612 2299.380262
209.285000 2292.324809 2294.153035 2296.671156 2296.680543 2299.216984 2301.726605
209.385000 2293.748833 2295.810078 2298.393884 2298.445933 2301.054555 2303.669880
209.485000 2295.685120 2297.552360 2300.132161 2300.219426 2302.747340 2305.571865
209.585000 2297.209904 2299.334729 2301.939066 2302.019327 2304.647018 2307.382606
209.685000 2298.838846 2301.331053 2304.003550 2303.929108 2306.388181 2309.240304
209.785000 2300.573141 2303.493879 2305.947567 2305.906486 2308.328697 2311.245618
209.885000 2302.679704 2305.706471 2308.106468 2308.205430 2310.882276 2314.021922
209.985000 2304.922353 2307.893438 2310.203834 2310.474011 2313.414339 2316.295918
210.085000 2307.446632 2309.872909 2312.461131 2312.748250 2315.886444 2318.944356
210.185000 2309.497872 2311.815935 2314.834850 2314.960438 2318.205013 2321.025683
210.285000 2311.617597 2313.689488 2316.813037 2317.029858 2320.305692 2323.056187
210.385000 2313.281181 2315.623144 2319.085484 2319.044217 2322.416060 2325.147835
210.485000 2315.032946 2317.641025 2320.943730 2320.948144 2324.128409 2327.093103
210.585000 2316.601429 2319.478899 2323.145875 2322.873972 2325.957605 2328.418158
210.685000 2318.495951 2321.719810 2325.099107 2324.777256 2327.723552 2329.833428
210.785000 2320.229752 2323.702494 2326.974042 2326.648003 2329.386528 2331.347570
210.885000 2322.417884 2326.088015 2328.793129 2328.573730 2331.158458 2333.340015
210.985000 2324.841822 2328.254072 2330.672252 2330.512053 2332.911251 2335.147801
211.085000 2327.483155 2330.330987 2332.569404 2332.520825 2334.640432 2337.209347
211.185000 2330.339309 2332.486944 2334.596633 2334.628307 2336.693297 2339.719381
211.285000 2332.454430 2334.513825 2336.413425 2336.573798 2338.578789 2341.298935
211.385000 2334.454246 2336.306749 2338.229227 2338.420842 2340.541700 2343.383778
211.485000 2336.010463 2338.074887 2339.961833 2340.211313 2342.716064 2345.459422
211.585000 2337.915271 2339.757635 2341.766781 2342.056974 2344.675510 2347.168337
211.685000 2339.729659 2341.369099 2343.704182 2343.991279 2346.601987 2349.267939
211.785000 2341.535174 2343.358034 2345.859153 2345.997842 2348.558355 2351.644840
