depth(m) lower_95(kyr) lower_68(kyr) median(kyr) mean(kyr) upper_68(kyr) upper_95(kyr)
160.240000 1399.076618 1399.444358 1400.139265 1400.105406 1400.758105 1400.965069
160.340000 1400.202826 1400.980185 1401.890617 1402.042917 1403.157457 1404.775482
160.440000 1401.437336 1402.458922 1403.846800 1404.041773 1405.650221 1407.396098
160.540000 1402.853809 1404.180793 1406.084232 1406.003759 1407.745893 1409.122864
160.640000 1404.428896 1406.155136 1407.967561 1407.888008 1409.566568 1411.110998
160.740000 1405.833652 1407.928892 1409.658168 1409.499881 1411.080496 1412.464490
160.785000 1406.597618 1408.704510 1410.266537 1410.215337 1411.779960 1413.378463
160.885000 1408.123744 1410.086787 1411.560812 1411.537803 1413.051841 1414.540198
160.985000 1409.728006 1411.389995 1412.771872 1412.836172 1414.389582 1416.019126
161.085000 1411.115495 1412.663168 1413.985795 1414.187398 1415.832346 1418.246695
161.185000 1412.566169 1413.935179 1415.400408 1415.610649 1417.325402 1420.152740
161.285000 1414.152406 1415.346451 1416.934378 1417.178207 1419.034028 1421.755790
161.385000 1415.295897 1416.715619 1418.639876 1418.824196 1420.785640 1423.648403
161.485000 1416.546527 1418.362034 1420.257069 1420.525870 1422.677063 1425.511440
161.585000 1417.860059 1420.053784 1422.115854 1422.381775 1425.045700 1427.531742
161.685000 1419.385426 1422.066225 1424.385292 1424.473432 1427.135327 1429.334956
161.785000 1421.608897 1424.046761 1426.624766 1426.611152 1429.223478 1431.335581
161.885000 1423.786119 1426.553451 1429.082780 1428.884403 1431.128228 1433.069548
161.985000 1426.161863 1428.759356 1431.112509 1430.933989 1433.070135 1434.865381
162.085000 1428.682054 1430.797613 1432.836128 1432.777177 1434.837364 1436.495369
162.185000 1430.412915 1432.372568 1434.371383 1434.326804 1436.244501 1438.080249
162.285000 1431.921179 1433.903788 1435.855562 1435.804331 1437.606514 1439.480746
162.385000 1433.452139 1435.289059 1437.175365 1437.164516 1438.982521 1440.876503
162.485000 1434.521080 1436.516275 1438.501070 1438.438521 1440.354606 1442.436659
162.585000 1435.732174 1437.653908 1439.734823 1439.716740 1441.657873 1443.690915
162.685000 1436.919887 1438.890046 1441.019432 1440.987742 1443.128671 1445.061310
162.785000 1438.142376 1440.195801 1442.352080 1442.308696 1444.514368 1446.312974
162.885000 1439.328996 1441.509837 1443.767399 1443.686852 1445.968562 1447.512677
162.985000 1440.789636 1443.110023 1445.307261 1445.162487 1447.310497 1448.752013
163.085000 1442.630690 1444.711469 1446.907412 1446.727236 1448.707243 1449.879923
163.185000 1444.258141 1446.649307 1448.616240 1448.396590 1450.101194 1451.131144
163.285000 1446.584706 1449.047982 1450.528273 1450.328537 1451.639182 1452.634035
163.385000 1449.587585 1451.259658 1452.384323 1452.377409 1453.460163 1455.156187
163.485000 1451.883832 1452.915618 1454.028732 1454.208660 1455.502993 1457.763708
163.585000 1453.180824 1454.210228 1455.459453 1455.696201 1457.225632 1459.494573
163.685000 1454.159012 1455.341789 1456.855263 1457.149011 1459.090056 1461.630824
163.785000 1455.381841 1456.456240 1458.255885 1458.622088 1461.112242 1463.215273
163.885000 1456.493762 1457.679652 1459.836597 1460.091389 1462.873979 1464.661909
163.985000 1457.678998 1459.233408 1461.789073 1461.773168 1464.259857 1466.005941
164.085000 1458.955215 1461.090639 1463.851288 1463.628968 1465.869453 1467.479226
164.185000 1460.766054 1463.438132 1465.867663 1465.614763 1467.612879 1469.147672
164.285000 1462.857424 1465.999253 1467.823885 1467.640484 1469.352309 1471.028173
164.385000 1465.814162 1467.812614 1469.481129 1469.389495 1470.909911 1472.792079
164.485000 1467.682403 1469.193559 1470.877727 1470.874176 1472.452528 1474.788171
164.585000 1469.236488 1470.645294 1472.193954 1472.329885 1473.942911 1476.451575
164.685000 1470.729287 1471.959622 1473.512382 1473.689318 1475.390722 1478.139670
164.785000 1471.964656 1473.195863 1474.704688 1474.967513 1476.759093 1479.519877
164.885000 1473.111226 1474.375950 1475.921225 1476.264515 1478.150692 1481.182192
164.985000 1474.145906 1475.487641 1477.198096 1477.583132 1479.735489 1482.789690
165.085000 1475.237706 1476.715861 1478.591434 1478.931692 1481.327061 1484.330657
165.185000 1476.402785 1477.913121 1480.042384 1480.374741 1483.058687 1485.816270
165.285000 1477.606625 1479.294086 1481.539027 1481.887733 1484.988299 1486.982428
165.385000 1478.894133 1480.740233 1483.340606 1483.523566 1486.503264 1488.192098
165.485000 1480.115451 1482.532771 1485.566686 1485.259630 1487.939744 1489.400575
165.585000 1481.751380 1484.732365 1487.448769 1487.101026 1489.425700 1490.593851
165.685000 1483.528472 1487.078207 1489.438648 1489.025123 1490.928501 1492.189968
165.785000 1486.139738 1489.887595 1491.592293 1491.376051 1493.012021 1494.489069
165.887500 1489.913052 1491.995144 1493.592932 1493.571483 1495.128988 1497.328240
165.990000 1492.607295 1494.289271 1495.581334 1495.764282 1497.250142 1500.220183
166.090000 1494.286472 1495.691387 1497.126221 1497.428108 1499.304499 1501.933262
166.190000 1495.671305 1496.964987 1498.750576 1499.010802 1501.163307 1503.646722
166.290000 1496.853177 1498.292624 1500.397935 1500.550895 1502.919199 1505.120869
166.390000 1497.983189 1499.716847 1501.917765 1502.084209 1504.610568 1506.620618
166.490000 1499.515224 1501.196448 1503.628740 1503.662037 1506.109938 1508.167196
166.620000 1501.515567 1503.369970 1505.986633 1505.854922 1508.184351 1510.106765
166.690000 1502.746001 1504.742310 1507.315847 1507.179291 1509.331584 1511.447980
166.785000 1504.435431 1507.165012 1509.312676 1509.342970 1511.480740 1514.682030
166.885000 1506.666641 1509.704138 1511.837158 1512.138287 1514.905365 1518.514004
166.985000 1509.948268 1512.054864 1514.577302 1514.981006 1518.494367 1521.057722
167.085000 1512.279549 1514.249815 1517.238557 1517.484665 1520.902989 1523.476180
167.185000 1513.936886 1516.382266 1520.112698 1519.870997 1523.091022 1525.249414
167.285000 1515.808506 1518.743685 1522.543179 1522.054632 1524.954810 1526.805122
167.385000 1517.422135 1521.456756 1524.729229 1524.215963 1526.854043 1528.413159
167.485000 1519.708497 1523.909158 1526.663058 1526.148999 1528.364054 1529.898587
167.585000 1522.154938 1526.202678 1528.138471 1527.832128 1529.684263 1531.003612
167.685000 1524.740178 1527.827172 1529.435008 1529.261026 1530.891288 1532.002791
167.785000 1527.021197 1529.155577 1530.630405 1530.505248 1531.967136 1533.092165
167.885000 1528.636699 1530.479135 1531.714519 1531.683820 1532.971025 1534.067697
167.985000 1530.439891 1531.570928 1532.771566 1532.768571 1533.975136 1535.106314
168.085000 1531.581663 1532.661941 1533.739581 1533.783637 1534.943370 1536.037852
168.185000 1532.567731 1533.618813 1534.719034 1534.729498 1535.864450 1536.901940
168.285000 1533.550249 1534.516138 1535.639080 1535.650063 1536.745964 1537.872325
168.385000 1534.422242 1535.427092 1536.550364 1536.556945 1537.652172 1538.805715
168.485000 1535.352960 1536.326472 1537.452793 1537.469082 1538.590107 1539.769384
168.585000 1536.281090 1537.294686 1538.392460 1538.392618 1539.499864 1540.718548
168.685000 1537.269228 1538.169953 1539.290378 1539.323092 1540.407597 1541.583574
168.785000 1538.094163 1539.107416 1540.280156 1540.256564 1541.392051 1542.518171
168.885000 1539.125531 1540.091288 1541.223355 1541.207200 1542.287062 1543.437081
168.985000 1540.144076 1541.050389 1542.123972 1542.144279 1543.258776 1544.374226
169.085000 1541.089233 1542.060422 1543.102775 1543.146954 1544.305093 1545.456816
169.185000 1542.009544 1543.023195 1544.087237 1544.151895 1545.316341 1546.492524
169.285000 1543.007017 1544.043801 1545.127197 1545.177184 1546.357415 1547.512045
169.385000 1543.996647 1545.035705 1546.135985 1546.224677 1547.394524 1548.595399
169.485000 1545.012936 1546.089043 1547.238200 1547.302857 1548.499800 1549.745086
169.585000 1546.017301 1547.179474 1548.423246 1548.474862 1549.760256 1551.240441
169.685000 1547.199154 1548.338116 1549.610867 1549.705458 1551.086702 1552.923575
169.785000 1548.350196 1549.578570 1550.840162 1550.987590 1552.494261 1554.388809
169.885000 1549.425952 1550.762220 1552.055699 1552.216181 1553.766255 1555.701590
169.985000 1550.412743 1551.792795 1553.280207 1553.433317 1555.098164 1557.177206
170.085000 1551.469295 1552.991676 1554.524260 1554.691665 1556.453278 1558.404779
170.185000 1552.779664 1554.219636 1555.873742 1555.985478 1557.783095 1559.675100
170.285000 1553.970420 1555.557879 1557.211994 1557.287781 1559.073607 1560.806138
170.385000 1555.175898 1556.886966 1558.602900 1558.619919 1560.364040 1561.954372
170.485000 1556.617897 1558.265592 1560.007545 1560.037620 1561.841508 1563.645415
170.585000 1557.994764 1559.661765 1561.556448 1561.493131 1563.237269 1565.005913
170.685000 1559.433872 1561.205208 1562.920533 1562.918482 1564.675071 1566.494308
170.785000 1560.858544 1562.689502 1564.325263 1564.340662 1566.169035 1567.821197
170.885000 1562.262212 1564.154727 1565.772536 1565.768121 1567.443993 1569.170691
170.985000 1563.849267 1565.624188 1567.303734 1567.273994 1568.948298 1570.668947
171.085000 1565.511106 1567.269856 1569.004343 1568.930837 1570.499030 1572.359780
171.185000 1567.388253 1569.176066 1570.917216 1570.988952 1572.702251 1574.959062
171.285000 1569.699900 1571.251481 1572.920415 1573.071624 1574.949990 1577.461639
171.385000 1571.460126 1573.006989 1574.861470 1575.053315 1577.049717 1579.777866
171.485000 1572.801620 1574.674831 1576.888163 1577.030097 1579.283973 1582.036022
171.585000 1574.888530 1576.868202 1579.196980 1579.389231 1581.879212 1585.162025
171.685000 1577.018588 1579.226655 1581.706033 1581.999949 1584.538453 1589.527721
171.785000 1579.228745 1581.573180 1584.232999 1584.622933 1587.666031 1592.288081
171.885000 1581.553541 1584.074776 1587.079239 1587.364244 1590.733499 1594.545130
171.985000 1584.004328 1586.707256 1589.946297 1590.111954 1593.988799 1596.829925
172.085000 1586.001180 1589.369996 1592.767211 1592.730122 1596.205567 1598.859723
172.185000 1588.802765 1592.165242 1595.472993 1595.337868 1598.309011 1600.462316
172.285000 1591.410184 1595.246594 1598.227033 1597.883141 1600.449092 1602.296945
172.385000 1594.276230 1597.617036 1600.206480 1599.986874 1602.230819 1604.454254
172.485000 1596.913887 1599.715130 1601.887787 1601.796753 1603.860653 1606.307004
172.585000 1599.014907 1601.414564 1603.392593 1603.514991 1605.556635 1608.279797
172.685000 1601.072157 1603.209411 1605.112007 1605.322801 1607.560623 1609.979714
172.785000 1602.823961 1604.981788 1607.285109 1607.331872 1609.683049 1612.354112
172.885000 1604.744758 1606.800003 1609.454698 1609.462952 1611.881580 1615.121919
172.985000 1606.440054 1608.740827 1611.591012 1611.537908 1614.205457 1616.904737
173.085000 1607.975710 1610.687712 1613.567393 1613.429408 1616.061198 1618.639706
173.185000 1609.538503 1612.558871 1615.421284 1615.267864 1617.742633 1620.937822
173.285000 1611.174127 1614.424048 1617.143434 1617.065367 1619.483036 1622.758226
173.385000 1613.222159 1616.223534 1618.819664 1618.794574 1621.099726 1625.178755
173.485000 1615.013386 1618.248138 1620.412143 1620.542026 1622.818972 1628.411315
173.585000 1616.661213 1619.707844 1621.924156 1622.182415 1624.439566 1630.283635
173.685000 1618.784883 1621.348773 1623.513706 1623.844256 1625.986423 1631.404479
173.785000 1620.717048 1622.986612 1625.193510 1625.629817 1628.228460 1632.651841
173.885000 1622.404713 1624.855091 1627.031821 1627.463349 1630.359416 1634.185398
173.985000 1624.281421 1626.950619 1628.976560 1629.502867 1632.644226 1635.821545
174.085000 1626.438459 1629.196254 1631.200746 1631.630211 1634.565924 1637.432885
174.185000 1629.042204 1630.925956 1633.528505 1633.643697 1636.585136 1638.892039
174.285000 1630.818943 1632.748901 1635.618705 1635.511062 1638.311914 1640.133913
174.385000 1632.290649 1634.612951 1637.585059 1637.386650 1639.837355 1641.844144
174.485000 1634.250701 1636.975084 1639.626113 1639.384913 1641.665522 1643.328871
174.585000 1636.137492 1639.025961 1641.427632 1641.218127 1643.317836 1645.145038
174.685000 1638.381544 1640.764725 1642.972071 1642.834837 1644.833540 1646.660564
174.785000 1640.162964 1642.364288 1644.320714 1644.302224 1646.227141 1648.246179
174.885000 1641.875337 1643.856947 1645.710362 1645.827652 1647.914370 1649.996153
174.985000 1643.263327 1645.294408 1647.212050 1647.273872 1649.257539 1651.661539
175.085000 1644.681137 1646.576527 1648.559819 1648.647114 1650.848820 1652.953368
175.185000 1646.097750 1647.920958 1649.863488 1649.960172 1652.084417 1654.216801
175.285000 1647.201238 1649.167034 1651.122468 1651.201245 1653.319552 1655.592037
175.385000 1648.434242 1650.313783 1652.342875 1652.417400 1654.552432 1657.022217
175.485000 1649.658345 1651.414050 1653.634318 1653.631862 1655.650976 1658.341453
175.585000 1650.980475 1652.638246 1654.916093 1654.891609 1657.004748 1659.569457
175.685000 1652.106552 1653.833702 1656.095801 1656.156751 1658.382631 1661.211646
175.785000 1653.256160 1655.070331 1657.353688 1657.424173 1659.646278 1662.369177
175.885000 1654.269688 1656.303488 1658.684476 1658.728689 1660.987035 1663.851286
175.985000 1655.404247 1657.659311 1659.958089 1660.090635 1662.470086 1665.155934
176.085000 1656.851392 1659.126216 1661.388804 1661.509276 1663.923967 1666.495399
176.185000 1658.319883 1660.590966 1662.798720 1662.959200 1665.410216 1668.276406
176.285000 1659.775789 1662.221746 1664.364661 1664.552755 1666.964036 1670.361829
176.385000 1661.458389 1663.891373 1666.042955 1666.320113 1668.942868 1671.949291
176.485000 1663.746728 1665.553223 1667.961678 1668.283526 1671.128988 1674.304773
176.585000 1665.653800 1667.534102 1670.114846 1670.391483 1673.215327 1676.969685
176.685000 1667.399844 1669.500750 1672.204706 1672.487373 1675.382299 1679.135147
176.785000 1669.025624 1671.369259 1674.239043 1674.544648 1677.807550 1681.456229
176.885000 1670.790512 1673.428701 1676.180639 1676.557414 1679.893765 1683.307392
176.985000 1672.704240 1675.163506 1678.260423 1678.432204 1681.807596 1684.916149
177.085000 1674.401374 1676.743283 1680.319547 1680.257735 1683.532058 1686.582200
177.185000 1676.144510 1678.604304 1682.056084 1682.064905 1685.460586 1688.452873
177.285000 1677.779871 1680.565110 1683.731945 1683.889842 1687.501914 1690.794067
177.385000 1679.778653 1682.616268 1685.460960 1685.749856 1689.212507 1692.528344
177.485000 1681.439435 1684.442664 1687.271448 1687.651786 1691.153292 1694.049050
177.585000 1683.447874 1686.482391 1689.608090 1689.754675 1693.216682 1695.576454
177.685000 1685.915280 1688.500466 1691.781662 1691.729207 1695.009984 1696.943431
177.785000 1687.468744 1690.700215 1694.006530 1693.784668 1696.786792 1698.979455
177.885000 1690.106934 1692.832921 1696.149915 1695.766037 1698.329551 1700.629143
177.985000 1692.250023 1695.492078 1698.064616 1697.848200 1700.045403 1702.711664
178.085000 1694.752151 1698.330646 1700.087114 1700.041844 1702.077140 1704.335716
178.185000 1697.286395 1700.020857 1701.648963 1701.802937 1703.932289 1705.948000
178.285000 1699.607469 1701.348728 1703.248572 1703.367469 1705.566744 1707.399054
178.385000 1701.078559 1702.795678 1704.739242 1704.862296 1707.090771 1708.679366
178.485000 1702.463633 1704.291203 1706.377570 1706.379682 1708.537104 1710.105746
178.585000 1703.640759 1705.728324 1707.902515 1707.874161 1709.946700 1711.552884
178.685000 1705.120129 1707.479377 1709.576915 1709.457085 1711.562735 1713.043706
178.785000 1706.866198 1709.113429 1711.108910 1711.046684 1713.042366 1714.431107
178.885000 1708.649826 1710.806325 1712.800721 1712.641330 1714.530521 1715.815501
178.985000 1710.395669 1712.544034 1714.491452 1714.293025 1715.923908 1717.408716
179.085000 1712.247753 1714.297669 1716.021685 1715.874322 1717.379747 1718.707847
179.185000 1714.057393 1715.862104 1717.378066 1717.338382 1718.814742 1720.191756
179.285000 1715.712955 1717.313656 1718.665388 1718.721290 1720.112563 1721.856221
179.385000 1716.929902 1718.530811 1719.915693 1720.020122 1721.550479 1723.686056
179.485000 1718.318751 1719.810733 1721.198998 1721.402949 1722.961440 1725.386390
179.585000 1719.579303 1721.098488 1722.504083 1722.770741 1724.581420 1726.859890
179.685000 1720.787154 1722.363730 1723.934746 1724.211187 1726.304016 1728.620305
179.785000 1722.199077 1723.617039 1725.491815 1725.675987 1727.851248 1730.475351
179.885000 1723.280666 1724.909913 1726.957604 1727.149389 1729.427782 1731.751449
179.985000 1724.457927 1726.174639 1728.462455 1728.593285 1730.907501 1733.330139
180.085000 1725.826859 1727.661370 1730.125604 1730.116354 1732.556520 1734.895773
180.185000 1727.168142 1729.229458 1731.635799 1731.648601 1734.044124 1736.083661
180.285000 1728.585181 1730.936760 1733.165269 1733.227151 1735.518955 1737.785883
180.385000 1730.178212 1732.638439 1734.828770 1734.837938 1737.193699 1739.272884
180.485000 1731.981229 1734.352177 1736.386367 1736.410394 1738.732900 1740.485232
180.585000 1733.540284 1735.931823 1738.099102 1738.007071 1740.221636 1741.693058
180.685000 1735.494470 1737.569044 1739.872797 1739.692538 1741.678560 1742.987746
180.785000 1737.538615 1739.554045 1741.804994 1741.536504 1743.242659 1744.439651
180.885000 1739.423695 1742.054213 1743.864125 1743.738996 1745.285787 1747.347221
180.985000 1742.132314 1744.297981 1745.749107 1745.803232 1747.455429 1749.343821
181.085000 1744.310139 1745.918755 1747.447621 1747.518155 1749.199239 1751.117265
181.185000 1745.824514 1747.504811 1749.048682 1749.133476 1750.807322 1752.967032
181.285000 1747.592114 1749.173805 1750.742629 1750.886168 1752.586077 1755.399023
181.385000 1749.436618 1750.921622 1752.579312 1752.877542 1754.910605 1757.933888
181.485000 1751.088165 1752.590937 1754.413757 1754.881440 1757.595474 1760.391301
181.585000 1752.532509 1754.080760 1756.114381 1756.735098 1759.894512 1762.290729
181.685000 1753.752171 1755.667022 1758.038473 1758.509862 1761.658927 1764.477495
181.785000 1755.376292 1757.157430 1759.931754 1760.226758 1763.332731 1766.485500
181.885000 1757.233959 1758.731217 1762.025246 1761.979470 1764.933145 1768.162700
181.985000 1758.799284 1760.171403 1763.861459 1763.684051 1766.577693 1769.696269
182.085000 1759.865859 1761.903599 1765.457840 1765.341281 1768.490957 1770.988491
182.185000 1761.335341 1763.646501 1766.983918 1766.966616 1769.974724 1772.418086
182.285000 1762.876690 1765.367747 1768.694062 1768.518397 1771.387407 1774.167197
182.385000 1764.758353 1767.004312 1770.191343 1770.046200 1772.778155 1775.306752
182.485000 1766.062273 1768.605469 1771.679733 1771.529012 1774.289048 1776.581381
182.585000 1767.469302 1770.321141 1773.073669 1773.050811 1775.708511 1778.272478
182.685000 1768.698077 1772.008060 1774.664538 1774.593555 1777.299399 1779.749866
182.785000 1770.814547 1773.673864 1776.224131 1776.216837 1778.825989 1781.326887
182.885000 1772.727159 1775.250593 1777.836461 1777.909439 1780.506105 1783.301316
182.985000 1774.532883 1776.999394 1779.673114 1779.703468 1782.438815 1785.127550
183.085000 1776.460984 1778.932823 1781.635223 1781.601129 1784.290499 1787.058965
183.185000 1778.274465 1780.724412 1783.563026 1783.509425 1786.239912 1788.635843
183.285000 1780.265867 1782.706110 1785.404783 1785.380415 1788.056576 1790.388459
183.385000 1781.895369 1784.662025 1787.354927 1787.275899 1789.839999 1792.342827
183.485000 1783.761630 1786.703587 1789.170584 1789.102141 1791.614714 1793.710063
183.585000 1785.829124 1788.427694 1790.858037 1790.784345 1793.193870 1795.269933
183.685000 1787.665994 1790.038862 1792.466214 1792.405821 1794.694989 1797.068741
183.785000 1789.174032 1791.705749 1793.951260 1793.965666 1796.207664 1798.868994
183.885000 1790.867087 1793.088445 1795.502478 1795.506985 1797.880076 1800.373331
183.985000 1792.197370 1794.605272 1797.120919 1797.069001 1799.636581 1801.747093
