depth(m) lower_95(kyr) lower_68(kyr) median(kyr) mean(kyr) upper_68(kyr) upper_95(kyr)
30.190000 1489.982899 1495.507278 1498.641785 1498.138543 1500.873812 1502.886966
30.270000 1494.661852 1498.290593 1500.857446 1500.576416 1502.938955 1504.699791
30.380000 1499.158444 1501.900457 1503.939827 1503.805413 1505.791023 1507.846330
30.480000 1502.454522 1505.533036 1507.668659 1508.043336 1510.784161 1515.713818
30.580000 1506.882527 1509.079368 1511.977469 1512.685732 1516.570892 1521.287295
30.660000 1509.148424 1511.615710 1515.393771 1516.053742 1521.178801 1524.342735
30.730000 1511.444624 1514.225026 1518.849299 1519.044455 1523.951916 1526.048658
30.820000 1514.288857 1518.233665 1524.183704 1523.108087 1526.937578 1528.511125
30.930000 1519.478197 1525.464220 1528.031096 1527.495247 1529.818139 1531.520901
31.020000 1526.515146 1529.120860 1530.918081 1530.706697 1532.259675 1533.685534
31.040000 1527.228831 1529.723715 1531.568156 1531.381652 1532.992095 1534.592933
31.130000 1530.721352 1532.668032 1534.600812 1534.766270 1536.919417 1539.223805
31.220000 1533.718553 1535.644975 1537.960376 1538.094023 1540.555544 1542.516705
31.330000 1537.504657 1539.524532 1542.170082 1542.072599 1544.490781 1546.490796
31.440000 1541.701533 1543.755244 1545.712084 1545.797082 1547.726775 1549.920991
31.530000 1544.046324 1546.171352 1548.156051 1548.293267 1550.085229 1552.740517
31.620000 1546.366837 1548.612951 1550.641847 1550.793829 1552.475764 1555.434537
31.640000 1546.891365 1549.274668 1551.286806 1551.381903 1553.068729 1555.989508
31.690000 1548.188247 1550.598222 1552.634847 1552.760678 1554.467881 1557.235068
31.710000 1548.811990 1551.303814 1553.287325 1553.392378 1554.999371 1558.105101
31.800000 1551.515583 1553.956455 1555.925724 1556.280013 1558.225540 1564.705162
31.840000 1552.649067 1555.550633 1557.572593 1558.088737 1560.588890 1566.260218
31.966667 1556.438547 1559.663632 1563.176584 1563.404645 1567.174704 1572.231984
32.093333 1561.548659 1564.912909 1568.519706 1568.670789 1572.452919 1576.310444
32.220000 1569.051544 1571.125508 1573.196808 1573.836488 1577.219078 1580.515567
32.320000 1571.872513 1574.327009 1576.565636 1577.164786 1580.240972 1586.098608
32.420000 1575.120974 1577.213504 1580.000651 1580.411107 1582.901599 1593.359333
32.500000 1578.197299 1580.668346 1583.227695 1583.959252 1586.007196 1600.150230
32.580000 1581.620890 1583.816956 1586.073259 1587.397432 1588.815948 1605.936522
32.620000 1582.904055 1585.173970 1587.268843 1588.797993 1590.108245 1608.542838
32.680000 1584.681361 1586.831626 1588.788416 1590.515470 1591.859755 1610.334749
32.780000 1587.361844 1589.399518 1591.308072 1593.491358 1594.698383 1612.638660
32.880000 1589.637376 1592.107353 1593.825859 1596.280708 1596.437855 1615.037780
32.970000 1592.011381 1594.429610 1596.023561 1598.584943 1598.806162 1617.509582
33.080000 1594.832578 1597.188611 1598.944817 1601.549650 1602.604304 1619.969389
33.220000 1599.308925 1600.959987 1603.157700 1605.693492 1607.782145 1622.836429
33.295000 1601.835928 1603.674248 1606.085675 1608.492088 1616.846390 1624.569054
33.370000 1605.091160 1607.102407 1608.972213 1611.399204 1620.102134 1626.438409
33.480000 1609.646790 1611.225062 1613.286097 1615.763693 1625.733900 1629.052348
33.570000 1611.989696 1614.464470 1617.553819 1619.662561 1628.389790 1631.491403
33.715000 1616.195463 1619.338467 1624.844196 1625.576024 1632.886406 1635.643857
33.860000 1620.692704 1625.322045 1631.975868 1631.452094 1637.055949 1639.399074
33.970000 1624.407885 1631.585181 1636.995383 1636.019739 1640.252627 1642.467010
34.020000 1627.441964 1634.738277 1639.125652 1638.286206 1641.925799 1643.898221
34.080000 1631.147496 1638.397153 1641.708237 1641.114911 1644.121926 1646.006943
34.170000 1640.616937 1643.468796 1645.473409 1645.405982 1647.567208 1649.833844
34.280000 1645.677443 1647.677555 1649.731913 1649.693784 1651.706013 1653.596235
34.370000 1648.745307 1650.708049 1652.622694 1652.571249 1654.477134 1656.105647
34.480000 1651.491522 1653.692463 1655.624011 1655.489715 1657.354470 1659.093380
34.570000 1654.527088 1656.325516 1658.051418 1658.011093 1659.692401 1661.269264
34.680000 1657.738908 1659.895428 1661.571940 1661.616223 1663.335385 1665.439127
34.770000 1660.769950 1662.573898 1664.525816 1664.841599 1667.123100 1670.489406
34.880000 1664.358725 1666.454569 1669.456122 1669.948048 1673.411560 1678.974383
34.970000 1667.100725 1669.947248 1673.765295 1674.286284 1678.840325 1684.268926
35.010000 1668.499099 1671.714988 1675.803740 1676.190996 1681.132588 1685.719208
35.100000 1671.991268 1675.539521 1680.190033 1680.318428 1685.226501 1689.061666
35.200000 1675.441686 1680.237742 1685.098030 1684.876402 1689.410003 1692.589954
35.290000 1679.243666 1684.811176 1689.267453 1688.945801 1693.053878 1696.867099
35.350000 1682.540340 1688.053815 1692.011568 1691.724288 1695.364807 1699.366085
35.440000 1688.624915 1692.595775 1695.911874 1695.828948 1698.842420 1702.858411
35.450000 1689.293385 1693.132169 1696.430115 1696.309957 1699.236775 1703.210709
35.550000 1696.120237 1698.909559 1702.035039 1702.073156 1705.306769 1708.238289
35.616000 1698.850067 1701.616970 1705.379231 1705.247132 1708.509838 1711.696012
35.640000 1699.784792 1702.716531 1706.547020 1706.351136 1709.726403 1712.826561
35.750000 1704.147944 1707.694555 1710.987409 1711.449407 1714.921364 1722.571406
35.840000 1707.638119 1711.153120 1714.334478 1715.235166 1719.726053 1728.162433
35.950000 1711.704659 1714.739445 1718.033324 1719.528088 1725.464648 1733.120409
36.040000 1714.926232 1717.417130 1721.425946 1722.938638 1729.098952 1738.184423
36.080000 1716.147834 1718.791628 1723.188486 1724.481248 1730.647407 1740.455574
36.160000 1718.516851 1721.240378 1726.347036 1727.658653 1733.865894 1746.826017
36.240000 1720.727886 1723.914420 1729.356322 1730.783155 1737.262928 1751.768707
36.330000 1723.046719 1726.529320 1732.700085 1734.688010 1743.540338 1756.189653
36.440000 1726.205297 1730.146711 1736.532527 1739.815769 1752.663148 1760.586793
36.540000 1728.966209 1733.337185 1740.658796 1744.198263 1757.966639 1765.132011
36.640000 1732.457165 1736.654305 1745.279739 1748.430118 1762.343997 1771.020289
36.730000 1736.178660 1740.410791 1751.016262 1752.231940 1765.764497 1774.474767
36.850000 1739.694730 1746.668585 1756.654258 1757.376734 1769.640455 1778.927879
36.950000 1744.173229 1752.937299 1759.891711 1761.545418 1772.505444 1784.754261
37.020000 1748.793487 1756.850297 1762.197807 1764.362966 1774.536157 1788.322307
37.150000 1756.516995 1761.733644 1766.503928 1769.182882 1777.225000 1801.432156
37.240000 1759.944618 1764.854448 1769.260621 1772.349038 1779.391173 1805.624278
37.330000 1763.502003 1767.716717 1771.824350 1775.368288 1782.661275 1807.837837
37.460000 1766.977942 1771.331129 1775.293032 1780.031637 1799.492256 1811.252198
37.540000 1769.453606 1773.601188 1777.634679 1782.642447 1804.388509 1812.936016
37.640000 1772.795659 1776.775321 1780.833767 1786.057162 1807.479989 1815.767301
37.760000 1776.515505 1780.656108 1785.329693 1790.869075 1811.559038 1818.793876
37.893333 1781.947604 1786.728903 1794.379843 1798.168147 1815.391833 1821.638657
38.026667 1788.459283 1795.639406 1803.189883 1805.525698 1819.483533 1824.483231
38.160000 1800.972439 1804.805177 1810.810284 1812.927133 1823.559087 1827.456912
38.250000 1804.860191 1808.735377 1815.166500 1816.714553 1826.230761 1829.783628
38.360000 1808.387839 1812.539633 1821.584213 1821.048590 1829.166715 1832.672741
38.450000 1810.815873 1815.774626 1825.624415 1824.310871 1831.583503 1835.353624
38.570000 1815.122870 1821.219355 1829.763323 1828.365777 1834.523736 1837.907093
38.650000 1818.195112 1824.928582 1832.644623 1831.263632 1836.714501 1840.197012
38.750000 1821.653354 1829.763976 1835.975132 1835.086511 1840.148702 1843.336472
38.850000 1826.584613 1834.776122 1839.711497 1839.128779 1843.684171 1847.193148
38.950000 1829.893505 1839.428815 1844.188435 1843.554331 1848.207909 1851.874223
39.050000 1833.390199 1843.619380 1848.468129 1847.851268 1852.802108 1856.024087
39.140000 1836.390295 1847.019526 1852.499358 1851.425564 1856.290063 1859.305602
39.240000 1840.816575 1849.963576 1856.065538 1854.924619 1859.612692 1863.051221
39.340000 1843.632297 1853.171658 1859.652847 1858.436207 1863.200713 1866.148877
39.440000 1847.742239 1856.610487 1862.661901 1861.690932 1866.290112 1869.752475
39.540000 1852.147320 1860.322461 1865.712159 1865.043708 1869.297136 1874.492288
39.650000 1856.752955 1864.243265 1869.282822 1868.963999 1873.137191 1879.559872
39.760000 1859.960938 1868.147000 1873.246644 1873.206954 1878.018584 1885.188293
39.850000 1864.581169 1870.880008 1877.028488 1877.089028 1883.288827 1890.806636
39.940000 1868.051771 1873.489905 1880.867359 1881.328809 1889.076028 1895.753786
40.077500 1871.514668 1877.377346 1889.722508 1889.917173 1901.673315 1914.144145
40.215000 1874.798338 1880.894504 1900.769922 1898.573527 1913.735091 1921.292083
40.352500 1877.849582 1884.750709 1912.207857 1907.178654 1922.950182 1928.607566
40.490000 1881.683148 1888.364357 1923.138121 1915.155455 1929.795377 1934.263745
40.510000 1882.151521 1888.936583 1923.912846 1915.967266 1930.681764 1934.882747
40.610000 1884.682985 1891.566000 1927.416402 1919.690110 1933.571823 1937.118062
40.710000 1887.776912 1894.596595 1930.825653 1923.361203 1936.211216 1939.485812
40.800000 1889.813744 1899.032786 1933.559407 1926.361280 1938.487715 1941.353781
40.890000 1892.852662 1907.156569 1936.246197 1929.247274 1940.599513 1943.441323
41.030000 1897.904655 1919.968760 1939.822496 1933.895127 1943.695201 1946.613604
41.170000 1904.413043 1929.213361 1943.240151 1938.638877 1946.723612 1949.095686
41.310000 1915.853212 1936.472196 1946.909010 1943.501118 1949.874685 1951.830231
41.450000 1931.311336 1943.154148 1950.454832 1948.409227 1952.896719 1954.591910
41.580000 1941.546688 1950.893523 1954.051102 1953.093119 1955.927325 1957.442546
41.710000 1955.601582 1956.681166 1957.822142 1957.820099 1958.936353 1960.025883
41.810000 1958.112927 1959.643206 1961.167799 1961.535867 1963.331195 1967.295346
41.910000 1960.631978 1962.387506 1964.503337 1965.006707 1967.895469 1971.406825
42.043333 1964.160777 1966.178408 1968.628908 1969.007780 1971.843969 1975.330896
42.176667 1967.937690 1970.170620 1972.645681 1972.824898 1975.474470 1978.686489
42.310000 1971.852058 1973.956455 1976.238793 1976.428522 1978.704226 1981.869764
42.450000 1975.408087 1977.413656 1979.748158 1979.960477 1982.373149 1985.581635
42.510000 1976.966509 1978.864655 1981.233954 1981.491727 1983.983132 1987.578585
42.650000 1980.085598 1982.054828 1984.624007 1984.976459 1987.610554 1991.844828
42.710000 1981.576696 1983.548076 1986.447995 1986.810488 1989.943847 1995.016256
42.810000 1984.015253 1986.213179 1989.695308 1990.978152 1995.449327 2006.877335
42.910000 1986.222997 1988.789594 1993.525992 1995.846578 2004.537624 2013.602700
43.000000 1988.279229 1991.334544 2000.878612 2001.174544 2011.260787 2016.629269
43.090000 1990.835010 1993.649509 2009.388236 2006.154063 2015.732159 2019.519533
43.110000 1991.784256 1994.376048 2010.523443 2007.023160 2016.643000 2020.083935
43.236667 1996.453751 2001.170911 2015.607192 2012.865340 2020.923954 2024.387183
43.363333 2002.184116 2011.461141 2020.529781 2018.748027 2025.216896 2028.070215
43.490000 2012.134513 2019.034978 2025.361266 2024.262650 2029.066499 2031.425646
43.570000 2015.331460 2021.840659 2028.646640 2027.216589 2031.605065 2033.721992
43.650000 2019.189403 2024.371701 2031.358994 2029.936875 2033.913919 2036.150997
43.710000 2022.857607 2027.783501 2032.941991 2032.031667 2035.567537 2037.636907
43.810000 2028.391200 2033.101501 2036.101044 2035.842751 2038.525614 2041.064704
43.910000 2034.848046 2037.144064 2039.412907 2039.525053 2041.807385 2044.609161
43.990000 2037.209424 2039.410912 2041.823433 2041.927035 2044.283044 2047.388157
44.070000 2039.209815 2041.694861 2044.021057 2044.259113 2046.897508 2050.521164
44.110000 2040.693137 2042.991852 2045.240442 2045.531075 2048.049984 2052.284629
44.185000 2043.438304 2045.520574 2047.829535 2048.240054 2050.967394 2055.072333
44.260000 2046.347971 2048.235589 2050.744697 2051.063167 2053.984954 2057.904990
44.310000 2048.492971 2050.432121 2053.267617 2053.412988 2056.181632 2059.399932
44.385000 2050.681950 2053.197416 2056.919474 2056.928752 2060.287452 2064.954053
44.460000 2052.555539 2056.293903 2060.347452 2060.336003 2063.793705 2069.009524
44.510000 2054.153904 2058.293257 2062.460427 2062.313076 2065.605174 2071.748753
44.640000 2060.973231 2065.016535 2068.615781 2068.983742 2073.585883 2078.569783
44.763333 2065.292659 2069.871164 2074.543414 2074.815496 2079.996032 2084.562043
44.886667 2070.264929 2075.511498 2080.511145 2080.473739 2085.067764 2092.108753
45.010000 2075.001199 2081.378575 2085.711279 2085.912956 2089.844329 2100.839739
