depth(m) lower_95(kyr) lower_68(kyr) median(kyr) mean(kyr) upper_68(kyr) upper_95(kyr)
61.120000 1493.645013 1497.755028 1500.423011 1500.020054 1502.470682 1503.859582
61.250000 1497.434845 1500.603792 1502.746239 1502.460229 1504.435534 1505.908055
61.325000 1499.294245 1502.139291 1504.115704 1503.841555 1505.673924 1506.992084
61.400000 1501.127375 1503.753709 1505.506595 1505.289403 1506.966729 1508.298638
61.480000 1503.244257 1505.309537 1506.975940 1506.816474 1508.324759 1509.712064
61.550000 1505.263074 1506.910656 1508.357701 1508.372044 1509.784180 1511.694418
61.625000 1506.928340 1508.589009 1510.322814 1510.541589 1512.491443 1515.306155
61.700000 1508.624846 1510.331309 1512.468134 1512.718175 1515.285670 1518.033777
61.775000 1510.098090 1511.954804 1514.436576 1514.732399 1517.644258 1520.639269
61.850000 1511.630076 1513.435225 1516.563282 1516.686733 1519.869906 1522.430168
61.925000 1513.157871 1515.065481 1518.532309 1518.620815 1522.016850 1524.627853
62.000000 1514.583886 1516.938226 1520.786610 1520.586850 1523.983649 1526.622772
62.080000 1516.312839 1519.463975 1523.125460 1522.869881 1526.000511 1528.662190
62.180000 1519.082002 1522.877104 1526.585519 1526.183523 1529.258040 1531.487131
62.280000 1522.600312 1526.363055 1529.681533 1529.362965 1532.188127 1534.159545
62.380000 1526.580859 1530.223002 1532.714106 1532.353924 1534.535599 1535.870000
62.490000 1529.564598 1532.396199 1534.798180 1534.531285 1536.546888 1538.105799
62.600000 1531.735113 1534.494632 1536.692455 1536.494840 1538.364793 1539.941432
62.710000 1534.458294 1536.750205 1538.521559 1538.388576 1540.103532 1541.444121
62.785000 1536.014629 1538.084403 1539.788507 1539.687718 1541.302099 1542.756660
62.860000 1537.326454 1539.383924 1541.059781 1540.978750 1542.556466 1544.198483
62.985000 1539.489788 1541.313603 1542.996564 1543.025074 1544.628590 1547.184581
63.110000 1541.847643 1543.310840 1544.918457 1545.085168 1546.814428 1549.930468
63.220000 1543.901290 1545.140132 1546.787964 1547.085784 1549.163282 1551.944000
63.326667 1545.450899 1546.825572 1548.798013 1549.083699 1551.425022 1553.867914
63.433333 1547.023029 1548.797766 1551.072565 1551.176524 1553.657048 1555.658048
63.540000 1548.829364 1550.989127 1553.482773 1553.369269 1555.672892 1557.434160
63.620000 1550.190316 1552.796139 1555.384231 1555.169278 1557.475617 1559.100097
63.690000 1551.477344 1554.437227 1556.971871 1556.697118 1558.944331 1560.558224
63.775000 1553.266818 1556.156256 1558.493890 1558.324274 1560.428633 1562.047737
63.860000 1554.974126 1557.909701 1560.059163 1559.884293 1561.911765 1563.576891
63.990000 1557.622282 1560.298761 1562.181557 1562.041735 1563.825938 1565.394469
64.120000 1560.315264 1562.585471 1564.318320 1564.242481 1565.942523 1567.205374
64.210000 1562.671366 1564.472253 1566.159727 1566.056728 1567.587352 1568.984006
64.285000 1564.720870 1566.550038 1568.130215 1568.081910 1569.681961 1570.919019
64.360000 1567.367575 1568.775246 1570.149645 1570.115003 1571.430071 1572.535483
64.440000 1569.224371 1570.663154 1571.860209 1571.824425 1572.997805 1574.248273
64.525000 1570.721776 1572.082361 1573.356423 1573.265933 1574.325346 1575.573248
64.610000 1572.391913 1573.435350 1574.652343 1574.598156 1575.723676 1576.862622
64.740000 1574.116131 1575.238466 1576.369150 1576.420120 1577.612382 1578.843815
64.815000 1575.117302 1576.252710 1577.500188 1577.564344 1578.880087 1580.255832
64.890000 1576.338547 1577.410405 1578.685918 1578.747603 1580.065160 1581.612612
65.020000 1578.045515 1579.490978 1580.820471 1580.915924 1582.404311 1583.957278
65.105000 1579.426354 1581.002579 1582.502288 1582.554657 1584.138893 1586.482157
65.190000 1580.934857 1582.535327 1584.141679 1584.221606 1585.778345 1588.180923
65.265000 1582.414580 1584.108224 1585.868885 1585.897131 1587.684759 1589.517129
65.340000 1583.658579 1585.721123 1587.570947 1587.550581 1589.519281 1591.050381
65.440000 1585.314880 1587.697776 1589.644424 1589.541313 1591.498413 1592.840019
65.540000 1587.379921 1589.867239 1591.733267 1591.523358 1593.308251 1594.357061
65.640000 1589.168168 1591.975443 1593.626456 1593.408817 1594.900874 1595.889538
65.710000 1590.641025 1593.481471 1594.906659 1594.731797 1596.130393 1597.325004
65.835000 1593.369657 1595.740510 1597.227701 1597.140449 1598.656684 1600.371682
65.960000 1596.069445 1597.806647 1599.467200 1599.440223 1601.147984 1602.994064
66.090000 1597.932610 1599.836079 1601.506120 1601.492095 1603.085642 1604.989330
66.220000 1599.894002 1601.824246 1603.632645 1603.555068 1605.081781 1606.938874
66.305000 1601.751341 1603.259438 1605.059850 1605.014847 1606.550153 1608.186713
66.390000 1603.433403 1605.043135 1606.675369 1606.649632 1608.045665 1609.871077
66.520000 1606.867999 1608.372839 1609.681358 1610.051272 1611.892519 1614.913738
66.605000 1608.484079 1610.094621 1611.851262 1612.183537 1614.407782 1617.469754
66.690000 1610.113300 1612.026733 1614.067278 1614.358524 1616.747294 1620.280215
66.765000 1611.793293 1613.891077 1616.524388 1616.642845 1619.203334 1622.269214
66.840000 1613.239701 1616.196237 1618.902414 1618.914303 1621.669890 1624.281645
66.915000 1614.355200 1617.997275 1620.861016 1620.866471 1623.808501 1626.795729
66.990000 1615.356349 1619.614809 1622.789728 1622.655918 1625.752328 1628.624886
67.065000 1616.713353 1621.438803 1624.697317 1624.528159 1627.572843 1630.294354
67.140000 1618.377812 1623.392243 1626.676474 1626.350038 1629.373445 1631.916430
67.200000 1619.588137 1624.953545 1628.417204 1628.025372 1630.964014 1633.757899
67.320000 1623.977186 1628.757215 1631.906292 1631.749596 1634.967954 1637.935805
67.440000 1628.065342 1632.925843 1635.515624 1635.437665 1638.238626 1640.998142
67.525000 1631.168299 1635.446335 1638.151880 1638.000611 1640.789964 1643.145182
67.610000 1632.882766 1638.037214 1640.744443 1640.395874 1643.028175 1645.303219
67.740000 1638.348057 1641.689971 1643.947208 1643.748664 1646.067800 1648.201834
67.840000 1640.608344 1643.706719 1646.177102 1645.971350 1648.350919 1650.706859
67.940000 1643.249434 1645.743509 1648.176702 1648.087156 1650.482819 1652.649737
68.040000 1645.350068 1647.757839 1650.210740 1650.104082 1652.379320 1654.741336
68.115000 1646.598291 1649.115613 1651.661006 1651.500091 1653.727584 1655.971858
68.190000 1648.027201 1650.487668 1652.915833 1652.851995 1655.200249 1657.237523
68.290000 1649.540676 1652.170847 1654.580962 1654.493534 1656.752142 1659.170379
68.390000 1651.430283 1653.877378 1656.144418 1656.141326 1658.367776 1661.161492
68.490000 1653.236717 1655.487171 1657.840139 1657.824925 1659.994710 1662.783532
68.565000 1654.743058 1656.985379 1659.215013 1659.307455 1661.588304 1664.716324
68.640000 1655.953608 1658.563760 1660.689872 1660.874852 1663.072939 1666.536765
68.750000 1658.790114 1661.261880 1663.650553 1664.004946 1666.723117 1670.855168
68.860000 1661.990558 1664.232542 1666.983713 1667.414755 1670.784333 1675.136792
68.975000 1664.421147 1667.085788 1670.396161 1670.749796 1674.470059 1679.450419
69.090000 1667.118320 1670.052830 1673.796896 1674.132216 1678.330239 1682.993206
69.165000 1668.674293 1672.165627 1676.069947 1676.324768 1680.656617 1685.237395
69.240000 1670.990811 1674.262468 1678.183920 1678.568666 1683.167688 1687.201887
69.315000 1673.087478 1676.079382 1680.298652 1680.627079 1685.378237 1689.310424
69.390000 1674.958638 1677.918707 1682.455196 1682.637808 1687.300268 1691.120558
69.465000 1676.417171 1679.913873 1684.758682 1684.692301 1689.367676 1693.302838
69.540000 1678.234187 1681.829496 1686.995275 1686.688432 1691.135629 1695.184492
69.615000 1680.013239 1683.764780 1689.071292 1688.654746 1692.869861 1697.001335
69.690000 1681.872885 1686.110193 1691.070192 1690.709628 1694.980122 1699.028170
69.765000 1683.969114 1688.444865 1693.107423 1692.896476 1697.224889 1701.391210
69.840000 1686.315557 1690.824331 1695.294766 1695.203281 1699.497727 1703.973503
69.915000 1688.182991 1692.680363 1697.241176 1697.296276 1701.836239 1706.885360
69.990000 1690.189141 1694.898178 1699.389329 1699.407956 1704.001408 1708.672087
70.120000 1696.156755 1700.044329 1703.920844 1703.905212 1707.805441 1711.319376
70.200000 1698.808222 1702.867375 1706.693910 1706.502599 1710.117196 1713.124582
70.280000 1700.395153 1705.623377 1709.578187 1709.147088 1712.670289 1715.450422
70.360000 1702.234850 1708.611567 1712.186005 1711.736456 1715.125994 1717.891464
70.440000 1703.910631 1711.144090 1714.529716 1714.003985 1717.247197 1720.033111
70.525000 1706.028997 1712.941295 1716.545328 1716.051209 1719.472763 1721.952469
70.610000 1707.741278 1715.001894 1718.476228 1717.972538 1721.290987 1723.997238
70.720000 1710.129290 1717.330208 1720.734459 1720.288039 1723.658847 1726.798067
70.805000 1711.387795 1719.147423 1722.473463 1722.022239 1725.308721 1728.670364
70.890000 1713.177492 1720.888252 1724.276464 1723.708615 1726.952163 1730.112380
70.965000 1714.377526 1722.291283 1725.692045 1725.173992 1728.419147 1731.713194
71.040000 1716.021421 1723.780855 1727.074580 1726.646133 1729.973212 1733.368015
71.115000 1717.532029 1725.028716 1728.449950 1728.070035 1731.481963 1735.184584
71.190000 1718.677377 1726.533921 1729.796280 1729.484444 1732.912341 1736.574246
71.285000 1720.703187 1728.192151 1731.473939 1731.188783 1734.589112 1738.181887
71.380000 1722.804198 1729.773928 1733.053471 1732.863519 1736.435284 1740.218295
71.465000 1725.049811 1731.190598 1734.406471 1734.382532 1738.103458 1741.808201
71.550000 1727.051856 1732.827486 1735.948203 1735.960378 1739.650018 1743.333646
71.630000 1728.338143 1734.318706 1737.515847 1737.516726 1741.443940 1744.972908
71.710000 1730.262397 1735.762279 1739.088233 1739.116187 1743.074323 1746.665859
71.810000 1732.365854 1737.565981 1740.993356 1741.066458 1745.232534 1748.681484
71.910000 1734.522747 1739.342717 1742.960076 1743.019221 1747.238817 1750.589826
72.010000 1737.109216 1740.993491 1744.855050 1744.952104 1749.164615 1752.324184
72.150000 1740.159643 1743.438153 1747.890381 1747.648916 1751.758032 1754.622363
72.230000 1741.835050 1745.115484 1749.572577 1749.310596 1753.206171 1755.950437
72.310000 1743.712121 1747.193709 1751.346696 1751.034104 1754.673067 1757.421590
72.450000 1746.955034 1750.352991 1754.369047 1754.048647 1757.452055 1760.344480
72.525000 1748.469718 1752.223814 1756.095499 1755.787227 1759.072609 1762.041063
72.600000 1750.352521 1754.395476 1757.907291 1757.622366 1760.776184 1763.834408
72.710000 1754.381798 1758.658460 1761.608821 1761.534767 1764.685132 1767.802515
72.849000 1758.445023 1762.267187 1765.249509 1765.429987 1768.981489 1771.921999
72.860000 1758.872804 1762.551553 1765.586223 1765.720322 1769.276391 1772.153071
72.935000 1760.827560 1764.403926 1767.507618 1767.601895 1771.043293 1773.734376
73.010000 1763.359785 1766.277794 1769.455515 1769.473736 1772.829785 1775.319665
73.120000 1765.623595 1768.892944 1772.177900 1772.070242 1775.319525 1777.309991
73.230000 1768.389501 1771.702096 1774.932570 1774.708789 1777.761448 1779.739182
73.310000 1770.111588 1773.725969 1776.763852 1776.628997 1779.543888 1781.517046
73.395000 1772.686541 1775.893446 1779.013679 1778.654480 1781.455080 1782.971110
73.480000 1775.064293 1778.093546 1780.972664 1780.596591 1783.042925 1784.561056
73.620000 1778.392490 1781.019865 1783.506914 1783.241175 1785.352783 1786.746846
73.760000 1781.463050 1783.935896 1786.048154 1785.767901 1787.547000 1788.863163
73.860000 1783.255422 1785.679531 1787.655976 1787.436168 1789.093897 1790.198520
73.960000 1785.398981 1787.543677 1789.254271 1789.067700 1790.564647 1791.668485
74.060000 1787.604997 1789.395558 1790.847713 1790.732033 1792.033073 1793.073687
74.135000 1789.408529 1790.879922 1792.063212 1792.021818 1793.177881 1794.121724
74.210000 1791.787422 1792.568368 1793.482385 1793.473642 1794.372321 1795.321872
74.285000 1793.231337 1794.228043 1795.565394 1795.928813 1797.668376 1800.838288
74.360000 1794.638115 1796.163848 1798.258415 1798.526442 1800.897702 1804.160714
74.435000 1796.142902 1798.332129 1800.917838 1801.158937 1803.970160 1807.244071
74.510000 1797.915001 1800.884644 1803.398031 1803.643189 1806.506463 1809.719583
74.620000 1800.961406 1803.766842 1806.661742 1806.747383 1809.645526 1813.315105
74.730000 1803.917341 1806.589483 1809.465074 1809.650454 1812.643187 1816.464373
74.810000 1805.741418 1808.384350 1811.430206 1811.771023 1815.055029 1819.553562
74.895000 1807.949841 1810.498576 1813.764065 1814.062116 1817.827673 1821.790725
74.980000 1809.603415 1812.484124 1816.133490 1816.296154 1820.023533 1823.555968
75.110000 1812.347706 1815.544371 1819.579973 1819.544120 1823.657036 1826.676110
75.185000 1813.847650 1817.259587 1821.622792 1821.387396 1825.506345 1828.476510
75.260000 1815.653345 1819.131219 1823.413914 1823.248606 1827.153586 1830.458789
75.335000 1817.390103 1821.204558 1825.485943 1825.176016 1828.944544 1832.177333
75.410000 1819.379024 1823.307604 1827.377405 1827.117343 1830.688906 1833.727056
75.485000 1821.503400 1825.644890 1829.424766 1829.124733 1832.540546 1835.251647
75.560000 1823.743196 1827.883657 1831.641563 1831.222776 1834.577164 1836.909858
75.635000 1826.417037 1830.495573 1833.756135 1833.417414 1836.397777 1838.275456
75.710000 1828.821299 1833.092220 1836.298877 1835.718182 1838.225359 1839.618587
75.785000 1833.789859 1836.811752 1838.706182 1838.410053 1840.074623 1841.182501
75.860000 1839.167230 1839.991559 1840.873013 1840.911762 1841.829731 1842.690201
75.935000 1840.600738 1841.667016 1842.925901 1843.093416 1844.480899 1846.596971
76.010000 1841.846738 1843.248831 1844.895824 1845.058232 1846.917794 1849.218084
76.120000 1843.712173 1845.458387 1847.536139 1847.601819 1849.647076 1851.883254
76.230000 1845.888208 1847.594142 1850.032861 1849.941448 1852.131549 1853.920684
76.310000 1847.258903 1849.286970 1851.695350 1851.526869 1853.608283 1855.284832
76.395000 1848.954525 1850.926298 1853.264903 1853.084177 1855.092934 1856.594415
76.480000 1850.398020 1852.576417 1854.718355 1854.559848 1856.541024 1857.859841
76.610000 1852.746233 1854.934888 1856.910857 1856.727596 1858.469120 1859.760915
76.685000 1854.333074 1856.309748 1858.249599 1858.060303 1859.630825 1861.068857
76.760000 1856.159043 1857.892352 1859.610653 1859.443083 1860.958900 1862.105721
76.845000 1858.422078 1860.136806 1861.386921 1861.258761 1862.425308 1863.388541
76.930000 1861.462402 1862.265361 1863.096365 1863.122554 1863.994162 1864.808277
77.060000 1863.500273 1864.770952 1866.308420 1866.605188 1868.446186 1871.884249
77.145000 1864.936871 1866.211547 1868.234636 1868.516500 1870.743171 1873.666458
77.230000 1866.266010 1867.852642 1870.008644 1870.271237 1872.695761 1875.729326
77.360000 1868.268020 1870.040361 1872.375682 1872.562176 1875.030734 1877.992589
77.435000 1869.325817 1871.240069 1873.710979 1873.825435 1876.303899 1879.094094
77.510000 1870.550844 1872.524002 1874.903671 1875.041778 1877.484827 1880.493593
77.620000 1872.257990 1874.179337 1876.718233 1876.747214 1879.139835 1881.806360
77.730000 1873.774005 1875.977140 1878.302924 1878.387901 1880.772601 1883.534202
77.810000 1875.077738 1877.220747 1879.577566 1879.632444 1882.090919 1885.096147
77.910000 1876.217927 1878.782869 1881.195553 1881.201801 1883.619667 1886.711294
78.010000 1877.649626 1880.356885 1882.811151 1882.788066 1885.163322 1888.205661
78.110000 1879.328394 1881.954194 1884.377899 1884.418684 1886.875900 1889.807461
78.185000 1880.570387 1883.289005 1885.655195 1885.723456 1888.069592 1890.911870
78.260000 1881.691405 1884.858148 1887.004767 1887.056174 1889.291000 1892.147107
78.335000 1882.874127 1886.157520 1888.509205 1888.445512 1890.748104 1893.265738
78.410000 1884.538265 1887.577331 1889.878344 1889.844179 1892.180912 1894.504646
78.485000 1886.005157 1888.886844 1891.215497 1891.161876 1893.397997 1895.783346
78.560000 1887.663313 1890.361475 1892.573705 1892.523125 1894.660183 1896.964673
78.635000 1889.360152 1891.940844 1894.028478 1894.035280 1896.211790 1898.290518
78.710000 1891.462295 1893.601362 1895.552804 1895.602314 1897.631556 1900.122054
78.785000 1893.108360 1895.129393 1897.005996 1897.091503 1899.052975 1901.670197
78.860000 1894.757349 1896.530541 1898.396479 1898.520466 1900.447152 1903.199252
78.935000 1896.001841 1897.773184 1899.677320 1899.813689 1901.884046 1904.760086
79.010000 1897.253795 1898.847330 1900.981456 1901.068411 1903.337458 1905.904598
79.120000 1898.842716 1900.446128 1902.729521 1902.821912 1905.171850 1907.811961
79.230000 1900.441414 1902.068660 1904.449061 1904.552390 1907.010282 1909.900742
79.310000 1901.524186 1903.246862 1905.732278 1905.829220 1908.305852 1910.917729
79.395000 1902.755730 1904.599486 1907.010099 1907.218957 1909.893314 1912.548022
79.480000 1904.078381 1906.056194 1908.309537 1908.575076 1911.204882 1913.945382
79.620000 1906.142520 1908.108360 1910.589844 1910.851850 1913.604472 1916.363811
79.760000 1908.424569 1910.227878 1912.910129 1913.140955 1915.998151 1918.848121
79.835000 1909.692657 1911.593493 1914.271564 1914.503495 1917.587516 1920.479328
79.910000 1910.980608 1912.923006 1915.719589 1915.945427 1919.065675 1921.860958
79.985000 1912.190250 1914.596739 1917.295820 1917.521553 1920.595377 1923.718379
80.060000 1913.512716 1916.276276 1919.098072 1919.248268 1922.339763 1925.549730
80.110000 1914.389351 1917.315577 1920.303836 1920.425360 1923.524930 1926.935869
80.210000 1916.315987 1919.544425 1922.875019 1922.870836 1926.152283 1930.107527
80.285000 1917.658925 1921.346438 1924.739895 1924.824913 1928.374810 1931.982930
80.360000 1919.646148 1923.242996 1926.783113 1926.896042 1930.462286 1933.915053
80.490000 1923.082287 1926.418735 1930.214877 1930.444294 1934.476670 1938.986230
80.610000 1926.083948 1929.668555 1933.516941 1933.696606 1937.657878 1941.944447
80.730000 1929.791741 1933.007212 1937.153621 1937.226335 1941.329121 1945.741178
80.810000 1931.866432 1935.425201 1939.308926 1939.391795 1943.394193 1947.366459
80.895000 1933.844249 1937.676782 1941.712228 1941.758633 1945.784263 1949.678584
80.980000 1936.599531 1940.480879 1944.291919 1944.321546 1948.385063 1951.631688
81.090000 1940.892459 1944.335887 1948.130633 1947.911271 1951.338323 1953.913390
81.175000 1943.857873 1948.174485 1951.407106 1951.063657 1954.073604 1955.752124
81.260000 1949.560388 1952.343482 1954.482032 1954.152125 1956.008282 1957.252458
81.335000 1952.360624 1954.771483 1956.263250 1956.075868 1957.523501 1958.523554
81.410000 1956.043704 1956.938021 1957.861115 1957.878317 1958.842093 1959.863440
81.485000 1957.158799 1958.198021 1959.277621 1959.395902 1960.582593 1962.152940
81.560000 1958.215288 1959.361137 1960.586561 1960.809657 1962.287985 1964.700192
81.635000 1959.204082 1960.444431 1961.924894 1962.194214 1963.969105 1966.648229
81.710000 1960.288757 1961.680611 1963.280280 1963.588586 1965.491349 1968.777976
81.785000 1961.473052 1962.910695 1964.885751 1965.199969 1967.479705 1970.578040
81.860000 1962.647699 1964.240402 1966.579985 1966.816688 1969.516278 1972.233000
81.935000 1963.667762 1965.645785 1968.301401 1968.418395 1971.160416 1974.110895
82.010000 1965.059455 1967.005749 1970.055810 1970.113183 1972.966410 1975.960679
82.110000 1967.265852 1969.660548 1973.079198 1973.104321 1976.469965 1979.426378
82.210000 1969.533989 1972.806725 1976.263699 1976.215677 1979.628016 1982.405615
82.310000 1972.747397 1976.263484 1979.432475 1979.298856 1982.391022 1985.214085
82.385000 1974.189506 1978.096001 1981.298348 1981.180153 1984.149220 1987.016652
82.460000 1975.869319 1980.060143 1983.340322 1983.088618 1986.063896 1988.533919
82.535000 1977.539141 1981.935921 1985.307241 1985.026601 1988.165653 1990.674189
82.610000 1979.393300 1983.894254 1987.259920 1986.971587 1990.145596 1992.589599
82.700000 1981.413672 1986.068706 1989.282856 1989.110862 1992.324397 1994.927237
