depth(m) lower_95(kyr) lower_68(kyr) median(kyr) mean(kyr) upper_68(kyr) upper_95(kyr)
109.370000 1495.476485 1496.522432 1497.718994 1497.622275 1498.460038 1500.080858
109.390000 1495.710314 1496.827228 1497.947595 1497.851105 1498.646448 1500.290396
109.420000 1496.112770 1497.214920 1498.232665 1498.176013 1498.949250 1500.538757
109.470000 1496.702468 1497.772341 1498.670014 1498.657094 1499.379154 1500.988132
109.530000 1497.489370 1498.410591 1499.160526 1499.216345 1499.889435 1501.511378
109.590000 1498.276522 1499.008325 1499.621686 1499.757334 1500.454797 1502.039849
109.650000 1498.846074 1499.525960 1500.076656 1500.248223 1500.931464 1502.556070
109.700000 1499.372119 1500.026634 1500.458511 1500.677593 1501.454964 1502.942370
109.740000 1499.830079 1500.374526 1500.770722 1501.029967 1501.969939 1503.306850
109.770000 1500.163625 1500.665292 1501.028316 1501.312354 1502.294509 1503.597776
109.790000 1500.400675 1500.854997 1501.218685 1501.511422 1502.524550 1503.805173
109.810000 1500.641939 1501.061754 1501.404106 1501.712126 1502.798528 1503.992353
109.830000 1500.855171 1501.245415 1501.594105 1501.914194 1502.984134 1504.194268
109.850000 1501.092728 1501.437757 1501.785987 1502.125816 1503.249050 1504.351703
109.870000 1501.292348 1501.623408 1501.987299 1502.339591 1503.446247 1504.570938
109.890000 1501.487290 1501.823137 1502.201673 1502.560800 1503.706854 1504.785142
109.910000 1501.730211 1502.026736 1502.440835 1502.801960 1503.983698 1504.957834
109.930000 1501.927864 1502.214163 1502.710794 1503.061303 1504.265236 1505.225805
109.950000 1502.113644 1502.449961 1503.038510 1503.337593 1504.584831 1505.455737
109.970000 1502.320448 1502.673433 1503.363073 1503.622884 1504.861065 1505.716982
109.990000 1502.509336 1502.925007 1503.710380 1503.918803 1505.146280 1505.905013
110.020000 1502.888632 1503.379715 1504.295295 1504.428059 1505.575434 1506.349415
110.060000 1503.451118 1504.153142 1505.256487 1505.232846 1506.294822 1507.007426
110.100000 1504.087607 1505.004962 1506.060764 1505.987322 1506.934565 1507.534805
110.130000 1504.611239 1505.545093 1506.593562 1506.499050 1507.418059 1507.936097
110.150000 1504.976668 1505.905073 1506.921554 1506.813578 1507.687231 1508.154894
110.170000 1505.380369 1506.275249 1507.230287 1507.121566 1507.936041 1508.409932
110.190000 1505.755489 1506.621453 1507.520282 1507.425826 1508.177055 1508.685106
110.210000 1506.061985 1506.969025 1507.855302 1507.738013 1508.449005 1508.930254
110.230000 1506.595930 1507.368340 1508.163927 1508.083157 1508.744652 1509.228415
110.250000 1506.950820 1507.797587 1508.504378 1508.452093 1509.092682 1509.578641
110.270000 1507.393006 1508.221109 1508.890504 1508.815798 1509.428243 1509.901496
110.290000 1507.877224 1508.686392 1509.249327 1509.206231 1509.759247 1510.142574
110.310000 1508.397811 1509.146002 1509.668411 1509.602962 1510.080134 1510.379431
110.330000 1508.851006 1509.569238 1510.034725 1509.958862 1510.358234 1510.601524
110.350000 1509.254581 1509.972287 1510.356347 1510.283368 1510.604772 1510.818199
110.360000 1509.471781 1510.143012 1510.500443 1510.426776 1510.729350 1510.922909
110.370000 1509.643172 1510.318992 1510.647268 1510.581387 1510.859057 1511.018286
110.380000 1509.902519 1510.486676 1510.780488 1510.722806 1510.980914 1511.133905
110.390000 1510.125148 1510.657555 1510.907641 1510.864437 1511.105149 1511.276086
110.400000 1510.296673 1510.824473 1511.032565 1511.003921 1511.220586 1511.417646
110.410000 1510.468409 1510.965683 1511.163961 1511.138953 1511.356969 1511.560030
110.420000 1510.664113 1511.086689 1511.288242 1511.273857 1511.488995 1511.719964
110.430000 1510.856194 1511.223266 1511.424255 1511.417976 1511.630198 1511.889758
110.440000 1511.035418 1511.355424 1511.577672 1511.567946 1511.805406 1512.052606
110.450000 1511.199732 1511.485337 1511.722986 1511.718716 1511.963832 1512.205371
110.460000 1511.381433 1511.623239 1511.867210 1511.865583 1512.119282 1512.357302
110.470000 1511.512627 1511.763832 1512.011207 1512.017325 1512.282792 1512.519571
110.480000 1511.699487 1511.909094 1512.176230 1512.175599 1512.429265 1512.684428
110.490000 1511.846922 1512.091327 1512.341169 1512.345119 1512.585437 1512.885806
110.500000 1512.011057 1512.239682 1512.499284 1512.505593 1512.777393 1513.055274
110.510000 1512.167827 1512.392070 1512.674339 1512.672093 1512.922848 1513.194648
110.520000 1512.306223 1512.564348 1512.851151 1512.842779 1513.111695 1513.335174
110.530000 1512.512773 1512.739772 1513.011532 1513.007941 1513.279104 1513.476621
110.540000 1512.662771 1512.924724 1513.170069 1513.171973 1513.419212 1513.645820
110.550000 1512.841109 1513.084662 1513.323038 1513.330249 1513.573632 1513.840527
110.560000 1513.040167 1513.257281 1513.492130 1513.502178 1513.748952 1514.049854
110.570000 1513.182904 1513.413476 1513.640128 1513.666811 1513.937825 1514.220735
110.580000 1513.340157 1513.571452 1513.800997 1513.828909 1514.097914 1514.389805
110.590000 1513.516686 1513.728803 1513.956224 1513.983417 1514.274684 1514.551800
110.600000 1513.655681 1513.865731 1514.126412 1514.139392 1514.409851 1514.681726
110.610000 1513.781992 1514.021429 1514.283214 1514.292332 1514.547776 1514.846009
110.620000 1513.941736 1514.187299 1514.443815 1514.444231 1514.707246 1514.964842
110.630000 1514.079804 1514.347933 1514.592185 1514.590411 1514.833022 1515.092501
110.640000 1514.244546 1514.499310 1514.734670 1514.736963 1514.983130 1515.212108
110.650000 1514.413715 1514.637214 1514.885754 1514.883358 1515.131159 1515.352015
110.660000 1514.558613 1514.779291 1515.036194 1515.027016 1515.270723 1515.492219
110.670000 1514.705388 1514.910493 1515.174005 1515.164670 1515.407108 1515.595068
110.680000 1514.833711 1515.050148 1515.303283 1515.295065 1515.524741 1515.704654
110.690000 1514.960226 1515.186371 1515.428323 1515.420016 1515.644741 1515.825841
110.700000 1515.094492 1515.326717 1515.555168 1515.545428 1515.768560 1515.933000
110.720000 1515.382544 1515.585358 1515.790383 1515.787346 1515.987259 1516.195820
110.730000 1515.503585 1515.706297 1515.897278 1515.903679 1516.099438 1516.327891
110.740000 1515.647950 1515.821144 1516.020784 1516.020691 1516.212034 1516.425477
110.750000 1515.750588 1515.941689 1516.122888 1516.131662 1516.320702 1516.544610
110.760000 1515.842716 1516.035192 1516.227251 1516.236296 1516.436626 1516.665667
110.780000 1516.033597 1516.211501 1516.413844 1516.427481 1516.647279 1516.908464
110.800000 1516.215941 1516.384655 1516.597017 1516.617369 1516.852530 1517.159901
110.820000 1516.367825 1516.567907 1516.787687 1516.810267 1517.053670 1517.355913
110.840000 1516.539065 1516.734703 1516.968769 1516.997555 1517.263439 1517.587626
110.860000 1516.699675 1516.910994 1517.158886 1517.189302 1517.477764 1517.840677
110.920000 1517.132429 1517.360173 1517.648836 1517.678979 1517.993633 1518.367877
110.940000 1517.276491 1517.538452 1517.816300 1517.858233 1518.194413 1518.567095
110.980000 1517.625751 1517.866227 1518.167609 1518.197531 1518.552905 1518.942202
111.020000 1517.893523 1518.168920 1518.498963 1518.526867 1518.894920 1519.347533
111.080000 1518.301503 1518.610095 1518.962265 1518.998914 1519.402229 1519.889036
111.100000 1518.515514 1518.786547 1519.138066 1519.179014 1519.572510 1520.133914
111.140000 1518.778918 1519.102123 1519.451184 1519.505043 1519.904338 1520.467932
111.200000 1519.229623 1519.587076 1519.948873 1519.991798 1520.418856 1520.918486
111.220000 1519.415924 1519.754952 1520.128189 1520.169020 1520.601760 1521.104324
111.260000 1519.741898 1520.083271 1520.477902 1520.506808 1520.945924 1521.443177
111.280000 1519.904000 1520.253387 1520.668659 1520.689898 1521.145722 1521.634894
111.340000 1520.363687 1520.713875 1521.164665 1521.181494 1521.661908 1522.127553
111.360000 1520.512938 1520.888755 1521.347960 1521.372151 1521.875836 1522.284708
111.380000 1520.681944 1521.073446 1521.543145 1521.566881 1522.063284 1522.508335
111.420000 1521.018786 1521.443107 1521.942490 1521.949379 1522.437627 1522.941696
111.460000 1521.362400 1521.790160 1522.317578 1522.311895 1522.800078 1523.304292
111.540000 1521.977356 1522.453275 1523.016873 1522.997637 1523.507585 1524.002948
111.560000 1522.158691 1522.632529 1523.209267 1523.188826 1523.691133 1524.178691
111.580000 1522.333622 1522.824159 1523.395234 1523.380572 1523.919629 1524.391594
111.640000 1522.797524 1523.333997 1523.896642 1523.881954 1524.432959 1524.902893
111.700000 1523.282020 1523.827675 1524.380368 1524.370050 1524.933063 1525.468213
111.820000 1524.140498 1524.746829 1525.283960 1525.277781 1525.799662 1526.411903
111.860000 1524.427179 1525.081929 1525.594554 1525.600925 1526.118681 1526.729215
111.980000 1525.375127 1525.952985 1526.455022 1526.453346 1526.976682 1527.591497
112.080000 1526.080543 1526.687994 1527.187560 1527.197486 1527.717019 1528.379493
112.180000 1526.904137 1527.458488 1527.960342 1527.947185 1528.440551 1529.056462
112.280000 1527.682391 1528.233742 1528.664820 1528.685323 1529.157703 1529.808830
112.340000 1528.254838 1528.750456 1529.149899 1529.183249 1529.667280 1530.278894
112.360000 1528.462837 1528.965344 1529.340878 1529.377166 1529.847852 1530.473508
112.380000 1528.682732 1529.154598 1529.530854 1529.582646 1530.066787 1530.668528
112.400000 1528.881376 1529.357231 1529.720113 1529.790119 1530.309605 1530.864090
112.420000 1529.090353 1529.567058 1529.925539 1529.997384 1530.534601 1531.040520
112.440000 1529.341685 1529.786050 1530.128313 1530.210607 1530.758816 1531.258728
112.460000 1529.556965 1529.985319 1530.354960 1530.431648 1530.960455 1531.462022
112.480000 1529.767829 1530.176635 1530.601916 1530.651312 1531.169470 1531.708218
112.500000 1529.990718 1530.388285 1530.848267 1530.882178 1531.409629 1531.919825
112.520000 1530.238792 1530.626024 1531.071897 1531.114714 1531.639359 1532.107083
112.540000 1530.472016 1530.849013 1531.336652 1531.352678 1531.868281 1532.376740
112.560000 1530.704209 1531.088578 1531.610992 1531.611909 1532.107442 1532.636833
112.580000 1530.957081 1531.359004 1531.904214 1531.889313 1532.364055 1532.878639
112.600000 1531.186836 1531.667365 1532.191953 1532.188603 1532.689002 1533.160160
112.620000 1531.533143 1532.019707 1532.511993 1532.497908 1532.996670 1533.436900
112.640000 1531.817052 1532.327260 1532.819647 1532.826543 1533.320728 1533.833160
112.660000 1532.191855 1532.704367 1533.210749 1533.202949 1533.717946 1534.199514
112.680000 1532.603984 1533.092090 1533.571771 1533.584649 1534.084709 1534.652464
112.700000 1532.944770 1533.460813 1533.939311 1533.953891 1534.471568 1535.053455
112.720000 1533.338410 1533.817306 1534.321806 1534.327432 1534.843476 1535.366222
112.740000 1533.715850 1534.201110 1534.725398 1534.710351 1535.232766 1535.626393
112.760000 1534.059600 1534.547364 1535.067988 1535.040548 1535.554443 1535.862920
112.780000 1534.367030 1534.863572 1535.364383 1535.321895 1535.790810 1536.036170
112.800000 1534.641534 1535.171848 1535.636386 1535.580248 1535.987168 1536.217910
112.820000 1534.851649 1535.437712 1535.881845 1535.814600 1536.183291 1536.391839
112.840000 1535.169190 1535.697564 1536.101174 1536.038487 1536.369921 1536.557158
112.860000 1535.468698 1535.962442 1536.325815 1536.256691 1536.538084 1536.714854
112.880000 1535.712474 1536.192476 1536.509344 1536.454229 1536.723886 1536.868171
112.900000 1535.970427 1536.408489 1536.685213 1536.640034 1536.881198 1537.020552
112.920000 1536.232015 1536.608779 1536.850735 1536.818368 1537.040280 1537.176028
112.940000 1536.425630 1536.816148 1537.011145 1536.987176 1537.185250 1537.317786
112.960000 1536.668748 1536.983828 1537.177529 1537.149963 1537.335910 1537.475110
112.980000 1536.847134 1537.148030 1537.320418 1537.305409 1537.478634 1537.631602
113.000000 1537.049910 1537.299228 1537.465563 1537.454521 1537.627166 1537.780771
113.020000 1537.214354 1537.448403 1537.611818 1537.605426 1537.770062 1537.935858
113.040000 1537.388516 1537.600285 1537.767083 1537.755776 1537.919290 1538.092434
113.060000 1537.572432 1537.745763 1537.908459 1537.903083 1538.062567 1538.237504
113.080000 1537.712302 1537.887965 1538.046605 1538.047300 1538.203480 1538.412609
113.140000 1538.070100 1538.231326 1538.400820 1538.405828 1538.580612 1538.789488
113.160000 1538.183754 1538.384440 1538.539523 1538.549572 1538.729675 1538.953013
113.180000 1538.338109 1538.530407 1538.682061 1538.697054 1538.869698 1539.126979
113.200000 1538.497630 1538.672811 1538.834700 1538.845904 1539.027834 1539.255960
113.220000 1538.658119 1538.814034 1538.986427 1538.996761 1539.166102 1539.438364
113.240000 1538.774892 1538.959145 1539.143485 1539.148921 1539.315176 1539.611033
113.260000 1538.927600 1539.112396 1539.291781 1539.304453 1539.496586 1539.782488
113.280000 1539.085441 1539.265912 1539.438462 1539.463328 1539.664954 1539.980059
113.300000 1539.233463 1539.424831 1539.595186 1539.626161 1539.830592 1540.143903
113.320000 1539.398153 1539.584286 1539.768491 1539.794124 1540.011767 1540.330394
113.340000 1539.546369 1539.742851 1539.927845 1539.963092 1540.197900 1540.511109
113.360000 1539.722846 1539.905680 1540.107176 1540.139277 1540.398333 1540.719824
113.380000 1539.868892 1540.072619 1540.295652 1540.327170 1540.592400 1540.923785
113.400000 1540.044223 1540.254491 1540.506282 1540.529837 1540.805970 1541.171310
113.420000 1540.218887 1540.428375 1540.706201 1540.732965 1541.023568 1541.372877
113.440000 1540.410688 1540.648685 1540.926208 1540.955886 1541.252286 1541.647645
113.460000 1540.594506 1540.851759 1541.167965 1541.187626 1541.513027 1541.933884
113.480000 1540.805895 1541.082138 1541.394192 1541.429936 1541.774993 1542.296953
113.500000 1541.032475 1541.316351 1541.611788 1541.670311 1542.052372 1542.572160
113.520000 1541.252123 1541.568496 1541.911013 1541.954810 1542.363690 1542.844225
113.540000 1541.475147 1541.805674 1542.182453 1542.247150 1542.710506 1543.171328
113.560000 1541.731297 1542.067276 1542.497882 1542.554859 1543.088582 1543.538091
113.580000 1541.988972 1542.326280 1542.788965 1542.851775 1543.414680 1543.988905
113.600000 1542.207113 1542.596387 1543.104261 1543.161772 1543.721270 1544.387057
113.620000 1542.413740 1542.847920 1543.398896 1543.462985 1544.042438 1544.830376
113.660000 1542.966710 1543.448656 1544.013223 1544.136136 1544.831700 1546.085003
113.680000 1543.228052 1543.726687 1544.284809 1544.440374 1545.227246 1546.452646
113.700000 1543.515639 1544.034414 1544.547021 1544.757435 1545.634618 1547.035755
113.720000 1543.832912 1544.288317 1544.798118 1545.067437 1546.142943 1547.429280
113.740000 1544.146079 1544.552566 1545.023732 1545.352450 1546.596114 1547.739611
113.760000 1544.450980 1544.791333 1545.215809 1545.615761 1547.039858 1548.157056
113.780000 1544.673324 1545.014480 1545.427271 1545.870568 1547.333773 1548.447440
113.800000 1544.921655 1545.242751 1545.643970 1546.122493 1547.749462 1548.680996
113.820000 1545.133858 1545.444576 1545.841260 1546.352995 1548.044068 1548.921615
113.840000 1545.328764 1545.664964 1546.047005 1546.581773 1548.311712 1549.224461
113.860000 1545.541610 1545.857841 1546.272233 1546.811967 1548.548803 1549.440577
113.880000 1545.764023 1546.060426 1546.519246 1547.051402 1548.898069 1549.668297
113.900000 1545.975238 1546.304873 1546.773493 1547.308077 1549.212497 1549.850217
113.920000 1546.200315 1546.522283 1547.029667 1547.554092 1549.452912 1550.018966
113.940000 1546.399930 1546.758015 1547.356281 1547.817644 1549.681467 1550.232678
113.960000 1546.613425 1547.023916 1547.716692 1548.097439 1549.877543 1550.376026
114.020000 1547.222885 1547.798250 1548.734295 1548.927536 1550.426619 1550.856155
114.040000 1547.478780 1548.061911 1549.057469 1549.206439 1550.636595 1551.051331
114.060000 1547.705191 1548.417065 1549.366780 1549.489166 1550.848686 1551.231725
114.100000 1548.260152 1549.050586 1550.005337 1550.047164 1551.191918 1551.567136
114.120000 1548.608829 1549.353220 1550.333669 1550.326305 1551.377468 1551.728566
114.140000 1548.890631 1549.689268 1550.628290 1550.602633 1551.567489 1551.889456
114.160000 1549.156032 1549.994687 1550.910163 1550.873546 1551.760640 1552.041681
114.180000 1549.428511 1550.353063 1551.213204 1551.138738 1551.940151 1552.229165
114.200000 1549.742322 1550.670779 1551.496555 1551.406148 1552.124596 1552.434690
114.220000 1549.965994 1550.985003 1551.791997 1551.662345 1552.306379 1552.611952
114.240000 1550.198595 1551.338267 1552.069270 1551.923742 1552.488606 1552.815710
114.260000 1550.439165 1551.652141 1552.333172 1552.180024 1552.690508 1553.027380
114.280000 1550.684338 1551.935931 1552.546944 1552.424808 1552.890796 1553.261360
114.300000 1551.052825 1552.240198 1552.753653 1552.664539 1553.102401 1553.461361
114.320000 1551.381707 1552.524612 1552.985967 1552.910261 1553.320675 1553.760280
114.340000 1551.756034 1552.795813 1553.223049 1553.169163 1553.574487 1554.047525
114.360000 1552.086574 1553.047625 1553.443341 1553.421184 1553.839565 1554.458137
114.380000 1552.365212 1553.293443 1553.671919 1553.671671 1554.092731 1554.774362
114.400000 1552.687953 1553.537606 1553.906230 1553.936409 1554.402242 1555.099427
114.420000 1552.995175 1553.774017 1554.165998 1554.201242 1554.664145 1555.389788
114.440000 1553.376481 1554.009937 1554.409965 1554.470797 1554.992533 1555.695198
114.460000 1553.695359 1554.256317 1554.674481 1554.748355 1555.323326 1556.050998
114.480000 1554.003844 1554.492622 1554.928881 1555.021968 1555.644271 1556.328246
114.500000 1554.285059 1554.728960 1555.203480 1555.301259 1555.967519 1556.597121
114.520000 1554.541159 1554.974938 1555.471368 1555.583948 1556.260122 1556.943729
114.540000 1554.818831 1555.225272 1555.767909 1555.861383 1556.546862 1557.318245
114.560000 1555.040135 1555.481814 1556.054114 1556.147265 1556.865229 1557.624627
114.580000 1555.273446 1555.721137 1556.343976 1556.413440 1557.112123 1557.933347
114.600000 1555.504148 1555.966577 1556.650514 1556.681016 1557.337928 1558.172361
114.620000 1555.768738 1556.206371 1556.926726 1556.944181 1557.596073 1558.454628
114.640000 1555.998717 1556.480019 1557.192266 1557.200546 1557.857576 1558.741743
114.660000 1556.234122 1556.753184 1557.429278 1557.458305 1558.107370 1558.990774
114.680000 1556.526930 1557.002011 1557.633987 1557.705409 1558.353791 1559.318291
114.700000 1556.824007 1557.311083 1557.874725 1557.953031 1558.618072 1559.578839
114.720000 1557.040781 1557.543285 1558.073655 1558.186461 1558.856670 1559.876661
114.740000 1557.252250 1557.788075 1558.289603 1558.423803 1559.103053 1560.117222
114.760000 1557.540987 1558.041454 1558.520617 1558.667196 1559.339906 1560.418630
114.780000 1557.768707 1558.276268 1558.740190 1558.916029 1559.674122 1560.641296
114.820000 1558.262850 1558.667836 1559.226247 1559.372360 1560.171336 1561.156515
114.840000 1558.470452 1558.866470 1559.466932 1559.600877 1560.395810 1561.444471
114.860000 1558.700664 1559.058230 1559.704503 1559.840904 1560.668220 1561.681398
114.880000 1558.872790 1559.255616 1560.010728 1560.087379 1560.935288 1561.929857
114.900000 1559.073619 1559.460983 1560.246153 1560.327752 1561.187713 1562.214950
114.920000 1559.281473 1559.672012 1560.487666 1560.576341 1561.504407 1562.440927
114.940000 1559.481799 1559.896549 1560.763952 1560.839666 1561.804638 1562.729303
114.960000 1559.692484 1560.124127 1561.015567 1561.093757 1562.055217 1563.031087
114.980000 1559.898733 1560.362807 1561.292954 1561.345832 1562.295454 1563.257435
115.000000 1560.107623 1560.632680 1561.600586 1561.622689 1562.581011 1563.463653
115.020000 1560.297773 1560.953053 1561.884591 1561.900972 1562.876725 1563.731259
115.040000 1560.511419 1561.231629 1562.148010 1562.170663 1563.173145 1563.963713
115.060000 1560.705207 1561.554693 1562.415440 1562.442876 1563.453924 1564.147886
115.080000 1560.992293 1561.815762 1562.671792 1562.715886 1563.723173 1564.405477
