depth(m) lower_95(kyr) lower_68(kyr) median(kyr) mean(kyr) upper_68(kyr) upper_95(kyr)
25.100000 298.341274 301.641032 304.158604 303.818725 305.984974 307.622104
25.200000 300.051494 303.298428 305.563981 305.217369 307.147068 308.792444
25.300000 302.119713 304.743380 306.809707 306.544086 308.430956 309.836693
25.400000 304.130547 306.465293 308.218394 308.088418 309.698715 310.995080
25.500000 306.010943 308.119590 309.679180 309.575692 311.133331 312.392047
25.600000 307.672367 309.759613 311.097091 311.077287 312.502689 313.800725
25.700000 309.359268 311.124989 312.517629 312.464299 313.876322 315.091815
25.800000 310.779833 312.275795 313.700241 313.677097 315.105651 316.401946
25.900000 312.003998 313.430771 314.809513 314.841427 316.301561 317.500531
26.000000 313.118057 314.620786 315.908032 315.957367 317.385201 318.567687
26.100000 314.188732 315.809687 317.111356 317.103606 318.493842 319.704711
26.200000 315.371410 316.942199 318.346188 318.290691 319.694962 320.777332
26.300000 316.578263 318.136066 319.571190 319.474545 320.805737 321.955699
26.400000 317.827538 319.297615 320.735844 320.640606 321.927136 323.046008
26.500000 319.067960 320.502214 321.909425 321.817624 323.099570 324.187184
26.600000 320.198916 321.713993 323.060586 323.005361 324.283734 325.401294
26.700000 321.472672 322.898916 324.289591 324.192020 325.465102 326.610178
26.800000 322.634600 323.859419 325.356655 325.278104 326.648502 327.776803
26.900000 323.920902 325.050166 326.388547 326.387057 327.755461 328.846595
27.000000 324.967150 326.213882 327.511831 327.502105 328.827295 329.939234
27.100000 326.150422 327.371085 328.695721 328.654076 329.931524 330.985278
27.200000 327.402998 328.667804 329.978147 329.910620 331.124865 332.188526
27.300000 328.932031 330.238342 331.447248 331.424826 332.582603 333.748878
27.400000 331.390299 332.424703 333.560758 333.601858 334.773563 336.352810
27.500000 333.674086 334.697584 335.991722 336.107280 337.630886 339.138073
27.600000 335.524590 336.688579 338.177512 338.213367 339.761036 341.016516
27.700000 337.034250 338.415563 339.896604 339.861157 341.340287 342.547296
27.800000 338.548756 339.919222 341.250830 341.261030 342.629849 343.929700
27.900000 339.866238 341.197249 342.533953 342.540814 343.868783 345.297442
28.000000 340.941004 342.397472 343.626129 343.746709 345.107397 346.663625
28.100000 342.180215 343.600529 344.844888 344.941287 346.309053 347.925520
28.200000 343.360939 344.827067 346.150240 346.218497 347.616168 349.344070
28.300000 344.685597 346.167768 347.541049 347.607877 349.108921 350.852390
28.400000 346.140588 347.506869 349.014238 349.088025 350.759931 352.472886
28.500000 347.410002 348.898410 350.529582 350.651212 352.441138 354.416325
28.600000 348.542134 350.190713 352.056447 352.131535 354.016826 355.857454
28.700000 349.757597 351.568378 353.557238 353.572306 355.625111 357.340900
28.800000 351.059689 352.941523 355.052966 355.016403 357.042533 358.725269
28.900000 352.256020 354.594093 356.566048 356.526599 358.584391 360.135093
29.000000 353.860104 356.126903 358.095527 358.078634 360.122971 362.005018
29.100000 355.417993 357.735183 359.686098 359.703955 361.709256 363.774256
29.200000 357.531385 359.476695 361.408471 361.438666 363.417369 365.395816
29.300000 359.375996 361.179694 363.071625 363.223776 365.239828 367.525781
29.400000 361.207395 362.959007 364.831416 365.050171 367.317855 369.420018
29.500000 363.387369 364.965117 366.979694 367.229707 369.614364 371.890171
29.600000 365.205893 366.910546 369.325600 369.388989 371.740352 374.871288
29.700000 366.555937 368.616754 371.033556 371.092263 373.434939 376.440716
29.800000 368.142672 370.323874 372.743545 372.778358 375.107070 378.206830
29.900000 369.741533 371.892479 374.412744 374.349873 376.549794 379.262479
30.000000 371.285896 373.532082 375.966551 375.945833 378.249000 380.892981
30.100000 372.735586 375.131578 377.559584 377.486391 379.893244 382.139909
30.200000 374.459799 376.754308 379.112150 379.090971 381.444513 383.839089
30.300000 376.281951 378.259788 380.701168 380.691559 383.048842 385.432842
30.400000 377.879835 380.049852 382.292245 382.310045 384.611289 387.068835
30.500000 379.430357 381.670422 383.872558 383.939927 386.275977 388.589905
30.600000 380.873231 383.158560 385.490079 385.477660 387.808301 389.956103
30.700000 382.530072 384.720835 387.019615 387.066943 389.505489 391.610062
30.800000 383.883149 386.420047 388.822442 388.799118 391.196033 393.386823
30.900000 385.753545 388.230409 390.760748 390.678846 393.142945 395.005668
31.000000 387.975287 390.567493 392.911272 392.784804 395.115035 396.616024
31.100000 390.260320 392.888510 394.990231 394.829697 396.777331 398.119911
31.200000 393.144831 394.897140 396.917778 396.765907 398.498612 399.812150
31.300000 395.009265 396.977504 398.605076 398.488813 400.022088 401.289206
31.400000 397.833357 399.331924 400.561053 400.569024 401.873412 403.120912
31.500000 399.394927 400.830989 402.036400 402.032794 403.300023 404.517156
31.600000 400.760605 402.041872 403.270132 403.287616 404.520680 405.673990
31.700000 401.752711 403.148323 404.486129 404.419342 405.647522 406.791450
31.800000 402.951068 404.242981 405.634697 405.537059 406.809411 408.030398
31.900000 403.845762 405.361729 406.693094 406.642958 407.970213 409.206239
32.000000 404.764079 406.326136 407.706505 407.681749 409.047103 410.151394
32.100000 405.947516 407.473108 408.758394 408.753113 410.089976 411.311418
32.200000 407.219518 408.500212 409.895562 409.866469 411.124642 412.456822
32.300000 408.478769 409.788428 411.130955 411.093140 412.337447 413.659028
32.400000 409.910997 411.003087 412.305042 412.293418 413.491372 415.017416
32.500000 411.084275 412.233067 413.486679 413.479703 414.658957 416.014085
32.600000 412.238053 413.370173 414.630787 414.633654 415.809763 417.245649
32.700000 413.279688 414.583821 415.803970 415.826921 417.116665 418.454260
32.800000 414.376410 415.745685 416.970744 417.010281 418.323226 419.808808
32.900000 415.552674 416.889768 418.186005 418.221753 419.628611 421.080368
33.000000 416.697549 418.010266 419.411996 419.452591 420.950180 422.482691
33.100000 417.971337 419.282398 420.709426 420.751844 422.300918 423.592358
33.200000 419.313802 420.600808 422.034615 422.062407 423.568965 424.767668
33.300000 420.633212 421.928634 423.407715 423.375586 424.814019 425.969654
33.400000 421.905746 423.423592 424.873713 424.791040 426.146556 427.322668
33.500000 423.340036 424.947956 426.273250 426.203214 427.447556 428.838732
33.600000 424.643502 426.257360 427.608685 427.508898 428.670353 429.953297
33.700000 426.423008 427.713808 429.007899 428.975996 430.164604 431.577964
33.800000 427.780695 429.085830 430.313734 430.293971 431.441042 432.989855
33.900000 429.018817 430.198302 431.446907 431.462577 432.704541 434.080974
34.000000 430.205776 431.256917 432.556258 432.588894 433.956886 435.186992
34.100000 431.017144 432.322244 433.648378 433.677392 435.069115 436.294622
34.200000 432.019984 433.317150 434.697351 434.730504 436.139377 437.355457
34.300000 433.087362 434.275709 435.776283 435.777168 437.204389 438.430642
34.400000 434.198718 435.342785 436.865328 436.877220 438.327994 439.601288
34.500000 435.262343 436.466569 438.033524 438.012007 439.481121 440.881980
34.600000 436.240720 437.478270 439.108481 439.085007 440.626278 442.025357
34.700000 437.343945 438.604486 440.194481 440.178733 441.714921 443.055608
34.800000 438.406889 439.668207 441.254301 441.290944 442.833679 444.366326
34.900000 439.419803 440.774384 442.422062 442.467738 444.029567 445.824735
35.000000 440.601811 441.913996 443.534608 443.696558 445.385285 447.677188
35.100000 441.622117 443.081454 444.718889 444.988210 446.904576 449.720491
35.200000 442.764652 444.347570 446.147180 446.502291 448.752743 452.226391
35.300000 443.895326 445.686334 447.767568 448.269366 450.934954 455.344423
35.400000 445.307242 447.084714 449.952132 450.475230 453.855006 459.081310
35.500000 446.661666 448.773117 452.385559 452.794619 456.819856 461.373107
35.600000 448.226566 450.781161 455.138119 455.350988 459.925257 463.998373
35.700000 449.993375 453.401327 457.986320 458.069628 462.858377 466.558044
35.800000 451.884535 456.127743 461.530933 461.020144 465.789477 468.959858
35.900000 453.717693 459.012832 464.537831 463.946530 468.433204 471.549295
36.000000 456.320085 462.169580 467.540762 466.726731 470.937796 473.613825
36.100000 459.055064 464.807040 470.135733 469.212601 473.354645 475.525878
36.200000 461.165850 468.155476 472.767706 471.874497 475.688791 477.759973
36.300000 465.743653 472.669015 475.892289 475.284020 478.195596 480.050636
36.400000 471.729880 475.866268 478.512034 478.119605 480.396906 482.084163
36.500000 476.572319 478.848222 480.896355 480.673869 482.492037 484.201954
36.600000 479.509097 481.310748 483.009499 482.923715 484.551719 486.180799
36.700000 481.587518 483.326163 484.914440 484.898461 486.514256 487.972310
36.800000 483.733916 485.255567 486.866916 486.773300 488.268523 489.576675
36.900000 485.372763 487.042761 488.510060 488.486417 489.986216 491.130520
37.000000 486.928691 488.560281 489.958433 489.931450 491.343196 492.518392
37.100000 488.347190 489.821824 491.280760 491.269115 492.670525 494.109055
37.200000 489.766445 491.209330 492.616043 492.624386 494.024694 495.500187
37.300000 491.043236 492.650404 494.015226 494.069342 495.547071 496.907077
37.400000 492.291213 494.077550 495.580356 495.558470 497.053345 498.526289
37.500000 493.814580 495.416826 496.981022 496.977854 498.480432 500.220534
37.600000 495.393177 496.855098 498.323246 498.372306 499.929460 501.536336
37.700000 496.819757 498.213060 499.784291 499.736879 501.213648 502.817298
37.800000 498.226052 499.581309 501.153849 501.087605 502.588508 504.028117
37.900000 499.547189 500.943544 502.490718 502.419979 503.817695 505.261977
38.000000 500.966468 502.515260 503.893452 503.875372 505.232269 506.462633
38.100000 502.545832 503.992049 505.308390 505.346547 506.775558 508.262523
38.200000 503.904666 505.279780 506.583517 506.684392 508.072557 509.871309
38.300000 505.424189 506.514516 507.920499 508.102973 509.612624 511.632551
38.400000 506.673950 507.877862 509.389761 509.540809 511.155924 513.310249
38.500000 507.947882 509.242890 510.885633 510.992404 512.799047 514.827896
38.600000 509.204391 510.631562 512.288530 512.473710 514.475773 516.553356
38.700000 510.499365 511.958221 513.853986 513.961866 516.023951 518.174629
38.800000 511.568249 513.303461 515.305871 515.356650 517.478424 519.435870
38.900000 512.859698 514.654157 516.760988 516.775193 518.915062 521.017837
39.000000 514.071321 515.933172 518.077988 518.137701 520.336142 522.539744
39.100000 515.298447 517.197267 519.491970 519.497107 521.811727 523.656548
39.200000 516.453809 518.616247 520.898089 520.854269 523.157228 524.955358
39.300000 517.638934 520.027049 522.219449 522.187201 524.402305 526.315475
39.400000 519.041834 521.448239 523.519017 523.553813 525.757075 527.678030
39.500000 520.259782 522.887817 525.001256 524.944133 527.108636 528.946095
39.600000 521.639522 524.395445 526.424237 526.419418 528.619012 530.581680
39.700000 523.283258 525.902652 528.013502 527.988809 530.092192 531.970054
39.800000 525.081748 527.666715 529.713682 529.692622 531.669783 533.825170
39.900000 527.351173 529.458708 531.463000 531.448183 533.416209 535.756987
40.000000 529.571297 531.577272 533.480176 533.594842 535.686549 538.149158
40.100000 531.640144 533.592896 535.494121 535.693615 537.909950 540.756302
40.200000 533.406905 535.423748 537.382763 537.520601 539.755872 542.469599
40.300000 534.954233 536.951760 539.210422 539.264041 541.649130 544.079206
40.400000 536.520657 538.553669 541.001742 541.002746 543.597530 545.610295
40.500000 538.026116 540.167906 542.693101 542.636974 545.249775 546.958989
40.600000 539.609091 541.710499 544.341986 544.244511 546.637641 548.264766
40.700000 541.050700 543.539218 546.039165 545.883259 548.256157 549.844788
40.800000 542.517908 545.275879 547.687401 547.466084 549.628953 551.190647
40.900000 544.096883 547.091163 549.288080 549.068775 551.081539 552.543305
41.000000 546.293192 548.870406 550.876322 550.724925 552.536645 554.016565
41.100000 548.134489 550.513636 552.471043 552.271711 554.003978 555.580509
41.200000 549.827015 552.082682 553.871484 553.785846 555.460238 557.111920
41.300000 551.441492 553.643485 555.433839 555.349415 557.097206 558.731121
41.400000 553.721931 555.326787 557.009718 557.009358 558.726740 560.394947
41.500000 555.269387 556.846431 558.498616 558.531204 560.240767 561.828967
41.600000 556.700640 558.279665 560.002055 559.986645 561.756406 563.227541
41.700000 557.995151 559.644293 561.391141 561.382951 563.222585 564.610746
41.800000 559.096608 560.842199 562.753137 562.704370 564.623370 566.103212
41.900000 560.422820 562.099327 564.081970 564.049911 565.918576 567.379850
42.000000 561.679171 563.470882 565.551962 565.444917 567.194113 568.639167
42.100000 563.269157 565.171648 567.105283 566.924339 568.625236 569.679990
42.200000 564.828352 566.954888 568.649594 568.487242 570.025787 571.152907
42.300000 566.298925 568.726113 570.210933 570.061806 571.462854 572.487127
42.400000 568.333651 570.334191 571.627371 571.548143 572.856271 573.944328
42.500000 570.360080 571.894264 572.975332 572.973159 574.146470 575.173182
42.600000 571.973449 573.158431 574.202231 574.195569 575.220065 576.360984
42.700000 573.238048 574.300290 575.380016 575.353639 576.381019 577.386730
42.800000 574.543997 575.488724 576.555682 576.548474 577.582264 578.641449
42.900000 575.700151 576.837806 577.831408 577.836171 578.878576 579.909915
43.000000 577.389446 578.400538 579.547604 579.635966 580.913064 582.333689
43.100000 578.693244 579.798258 580.959054 581.099014 582.459572 583.969963
43.200000 579.905636 581.162422 582.493388 582.557747 584.006876 585.237161
43.300000 581.153821 582.593381 584.033409 584.063985 585.497951 586.805995
43.400000 582.629687 584.035894 585.505686 585.488909 586.913452 588.363845
43.500000 583.870670 585.353700 586.884745 586.853090 588.264604 589.782847
43.600000 584.891701 586.658030 588.204913 588.190725 589.667765 591.467996
43.700000 585.868250 587.804349 589.534802 589.566873 591.312838 593.497260
43.800000 586.988485 588.902473 590.743805 590.852316 592.863953 595.041385
43.900000 588.361568 590.089690 591.963881 592.151362 594.184791 596.631645
44.000000 589.582216 591.429927 593.405456 593.607319 595.916307 598.240361
44.100000 591.087162 592.929626 595.060752 595.166291 597.509613 600.016167
44.200000 592.429382 594.218442 596.654985 596.691299 599.121896 601.450105
44.300000 593.861363 595.646301 598.207370 598.238754 600.767883 603.047224
44.400000 595.195096 597.072902 599.645274 599.740695 602.412526 604.550159
44.500000 596.523493 598.607252 601.271037 601.260196 603.998144 606.119729
44.600000 597.940748 600.140859 603.025083 602.885446 605.609179 607.492493
44.700000 599.492334 601.790911 604.668123 604.466511 606.987133 608.615157
44.800000 600.863578 603.572645 606.141531 605.945339 608.297721 609.788424
44.900000 602.671358 605.175133 607.706622 607.400759 609.471406 610.838688
45.000000 604.272081 606.548567 608.967798 608.706388 610.678515 611.835646
45.100000 605.778448 608.051873 610.198169 609.968963 611.803114 612.874641
45.200000 607.020980 609.473969 611.394108 611.141837 612.851233 614.022822
45.300000 608.376159 610.733958 612.500382 612.302932 613.873525 614.950405
45.400000 609.834436 611.952096 613.597211 613.416046 614.942583 616.014778
45.500000 611.018558 613.139454 614.666495 614.534366 615.998698 617.081014
45.600000 612.604191 614.494575 615.833735 615.711644 617.065817 618.054819
45.700000 614.013202 615.736247 616.965402 616.896676 618.110803 619.025662
45.800000 615.540325 617.001719 618.171013 618.084627 619.178514 620.133098
45.900000 617.074452 618.332792 619.306570 619.299757 620.287360 621.211592
46.000000 618.577899 619.575358 620.594653 620.580649 621.589704 622.608152
46.100000 619.845779 620.802559 621.812115 621.864191 622.908461 623.917634
46.200000 621.150507 622.039134 623.098654 623.158265 624.257970 625.546335
46.300000 622.321459 623.293070 624.435653 624.538870 625.679290 627.614590
46.400000 623.413808 624.509388 625.825193 626.096293 627.506081 630.797880
46.500000 624.536173 625.802076 627.337833 627.736160 629.555591 633.646817
46.600000 625.764508 627.125248 629.012106 629.371776 631.514946 635.416852
46.700000 626.917023 628.549759 630.731225 631.021962 633.562672 636.809163
46.800000 627.981865 629.963193 632.374788 632.609387 635.358915 638.284571
46.900000 629.324003 631.591072 634.012792 634.241063 637.058229 639.906306
47.000000 630.753553 633.073296 635.740074 635.842754 638.700237 641.420810
47.100000 632.332573 634.731444 637.445729 637.523931 640.373927 643.053788
47.200000 633.940620 636.538087 639.216771 639.261415 642.025243 644.717191
47.300000 635.634119 638.224906 641.100527 640.996854 643.689804 646.099177
47.400000 637.339599 639.997003 642.878369 642.743641 645.469932 647.483276
47.500000 639.156156 641.893642 644.543373 644.464378 647.015153 649.351308
47.600000 640.802806 643.782986 646.269769 646.193446 648.649331 650.680300
47.700000 642.395605 645.348537 647.898348 647.791689 650.288182 652.371979
47.800000 643.804036 646.934294 649.449334 649.388092 651.966464 654.246098
47.900000 645.607816 648.450111 651.019285 650.991494 653.493565 656.082688
48.000000 647.378884 649.856223 652.512412 652.563280 655.151430 658.196750
48.100000 648.935812 651.230612 653.941963 653.993734 656.726326 659.577557
48.200000 650.239181 652.594415 655.335844 655.396910 658.153544 660.961371
48.300000 651.611984 653.943965 656.667427 656.774252 659.626413 662.292349
48.400000 652.664252 655.254621 658.120273 658.174725 661.267044 663.754294
48.500000 653.960755 656.403190 659.641220 659.517289 662.527110 665.022820
48.600000 655.293141 657.808992 660.832959 660.885139 663.881287 666.729388
48.700000 656.593986 659.235032 662.264247 662.306294 665.410977 668.020749
48.800000 657.920726 660.732758 663.778117 663.736561 666.758253 669.005312
48.900000 659.371345 662.227196 665.303867 665.153787 668.066651 670.470855
49.000000 660.746890 663.573709 666.813742 666.577944 669.437251 671.520408
49.100000 662.102080 665.071230 668.178480 667.964282 670.727280 672.998071
49.200000 663.791825 666.486402 669.422653 669.336568 672.043188 674.366425
49.300000 665.153327 667.848535 670.874401 670.661792 673.333878 675.640889
49.400000 666.781536 669.329379 672.158447 671.978107 674.562097 676.620310
49.500000 667.985900 670.697610 673.454469 673.228770 675.667178 677.730169
49.600000 669.252590 672.028014 674.680756 674.453097 676.783112 678.715565
49.700000 670.858230 673.156294 675.810996 675.647899 677.988738 679.630662
49.800000 672.214762 674.487951 676.976231 676.830334 679.024069 680.689192
49.900000 673.674754 675.845381 678.172573 678.020358 680.104875 681.847390
50.000000 675.124573 677.130902 679.270362 679.171913 681.129981 682.861154
50.100000 676.260974 678.310095 680.374922 680.270576 682.167203 683.876118
50.200000 677.338863 679.532513 681.434114 681.355009 683.139124 684.760535
50.300000 678.650306 680.609796 682.429053 682.406699 684.225445 685.649693
50.400000 679.822010 681.722746 683.485132 683.442033 685.190296 686.700300
50.500000 680.874541 682.806127 684.439518 684.421456 686.174117 687.639551
50.600000 682.041390 683.819523 685.491184 685.423854 687.061752 688.515517
50.700000 683.025693 684.877610 686.493089 686.438308 687.972850 689.432498
50.800000 684.155343 686.018412 687.584228 687.511671 689.014384 690.279597
50.900000 685.649895 687.227595 688.765311 688.692377 690.217657 691.252419
51.000000 687.059660 688.440603 689.874758 689.851331 691.328944 692.444184
51.100000 688.058773 689.553676 690.988196 690.978005 692.474411 693.558022
51.200000 689.191193 690.531725 692.073851 692.020210 693.482863 694.559635
