depth(m) lower_95(kyr) lower_68(kyr) median(kyr) mean(kyr) upper_68(kyr) upper_95(kyr)
19.500000 299.808364 303.749972 306.666181 306.309735 308.957961 310.984531
19.600000 301.608339 305.480483 308.073804 307.862469 310.399542 312.345744
19.700000 303.892284 306.898995 309.485075 309.371373 311.973400 313.919848
19.800000 305.996684 308.385006 310.868283 310.844457 313.415063 315.374579
19.900000 308.037035 310.167127 312.448626 312.467675 314.899489 316.985704
20.000000 309.887681 312.058546 314.140084 314.193479 316.527618 318.333306
20.100000 312.112999 313.738994 315.991337 315.927841 318.089128 319.760425
20.200000 313.673578 315.511235 317.747977 317.610099 319.588602 321.127785
20.300000 315.273308 317.583271 319.516294 319.349778 321.162070 322.653274
20.400000 317.487876 319.564951 321.178307 321.063169 322.655165 324.013575
20.500000 319.546513 321.367298 322.693339 322.655891 323.979059 325.251971
20.600000 321.516874 322.951043 324.130898 324.131237 325.324653 326.517312
20.700000 323.231373 324.318063 325.443614 325.471683 326.652984 327.917131
20.800000 324.434243 325.601441 326.746773 326.750884 327.959989 329.126687
20.900000 325.620409 326.793252 328.056463 328.011067 329.242432 330.372478
21.000000 326.693190 327.988203 329.319942 329.296199 330.533035 331.775434
21.133333 328.442219 329.646674 331.102583 331.184939 332.608886 334.425786
21.266667 329.856438 331.264103 332.900740 333.085572 334.913788 337.379004
21.400000 331.396247 332.983696 334.724795 335.017594 337.134440 340.160495
21.533333 332.862580 334.700025 336.634360 336.972981 339.387736 342.610113
21.666667 334.438755 336.556437 338.730953 338.987500 341.636262 344.569614
21.800000 336.438237 338.317043 340.717769 340.970746 343.778429 346.694355
21.900000 337.686927 339.603212 342.178264 342.454287 345.326730 348.327268
22.000000 339.131675 340.920176 343.643839 343.943646 347.000536 350.105650
22.106667 340.471593 342.414949 345.237631 345.467647 348.652725 351.457373
22.213333 341.928260 343.963970 346.688876 347.013359 350.308452 353.061800
22.320000 343.288399 345.624989 348.311628 348.604775 351.950918 354.480072
22.420000 344.485943 347.117648 350.002814 350.204078 353.468734 355.904227
22.520000 345.961096 348.568180 351.775629 351.813263 355.165242 357.642006
22.620000 347.447637 350.309894 353.716353 353.518270 356.655738 359.087512
22.720000 349.224805 352.143051 355.466637 355.249930 358.297899 360.333290
22.820000 351.013038 353.943133 357.204141 356.927248 359.704261 361.673826
22.920000 352.742639 355.795608 358.824039 358.588246 361.241197 363.234839
23.020000 354.773278 357.643331 360.443924 360.249681 362.752263 364.850186
23.120000 356.602415 359.454367 362.029461 361.880706 364.313649 366.479770
23.220000 358.778669 361.518968 363.800730 363.697292 365.935402 368.223096
23.320000 361.011094 363.520796 365.594582 365.592375 367.729332 370.227485
23.420000 362.565573 365.100628 367.305052 367.326014 369.431702 372.191196
23.520000 364.464213 366.723119 369.037280 369.029769 371.287618 373.776880
23.660000 367.060348 368.982655 371.429158 371.496637 373.814404 376.526081
23.760000 368.460122 370.803476 373.221841 373.272701 375.746005 378.283946
23.860000 370.006261 372.481124 375.143768 375.173748 377.820144 380.391740
23.960000 371.944302 374.513109 377.160025 377.303347 380.296094 382.949127
24.060000 373.963227 376.724569 379.443991 379.569324 382.514256 385.441098
24.160000 376.032520 378.878071 381.821299 381.930831 384.995956 388.032700
24.260000 378.209403 381.289812 384.381152 384.609619 387.991163 391.607168
24.360000 380.786706 383.930130 387.671395 387.895608 391.954248 395.716776
24.460000 383.721382 387.498828 392.565526 392.069439 396.415774 398.891763
24.560000 386.899397 392.780747 397.094605 396.195434 399.451421 401.604923
24.660000 395.284513 398.423286 400.230433 400.021649 401.811127 403.542447
24.760000 398.997662 400.753419 402.242516 402.221975 403.735560 405.361054
24.860000 400.941292 402.503294 403.964702 403.980426 405.465345 407.144250
24.960000 402.356925 404.003648 405.540282 405.581221 407.182496 409.003187
25.060000 404.123709 405.528379 407.229686 407.260247 408.943498 410.731103
25.120000 405.294041 406.676772 408.429170 408.493905 410.217496 411.988004
25.220000 407.346698 408.990551 410.851664 410.963976 412.958636 415.088884
25.320000 410.458466 412.481347 414.662736 414.780820 417.091002 419.593873
25.420000 413.693783 415.920500 418.237382 418.260244 420.719132 423.018855
25.520000 416.934338 419.347452 421.709650 421.658265 424.049446 426.036784
25.620000 419.987264 422.392561 424.658956 424.521852 426.628144 428.319514
25.720000 423.941259 425.965921 427.745721 427.700063 429.473051 431.256693
25.820000 427.044346 428.645603 430.275510 430.307358 431.930430 433.888234
25.920000 428.877299 430.613445 432.246015 432.302628 434.044066 435.861846
26.020000 430.534388 432.162488 433.993914 434.113599 435.941595 438.307933
26.120000 432.030835 433.687879 435.814535 435.875780 437.870140 440.533170
26.220000 433.576464 435.364186 437.683985 437.683603 439.868617 442.654757
26.320000 435.197595 437.158536 439.440653 439.579945 442.005321 444.760416
26.420000 436.920275 439.122348 441.655574 441.861945 444.552807 447.929929
26.520000 439.432547 441.466494 443.937332 444.310768 447.147205 451.211944
26.620000 442.528228 444.621373 447.588975 447.937288 451.163462 455.006287
26.760000 445.066438 447.991074 451.486696 451.588341 455.119864 459.019997
26.860000 446.985656 450.158568 453.744931 453.944951 457.915062 461.409565
26.960000 448.741534 452.080160 456.039495 456.131718 460.285433 463.742903
27.060000 450.826636 454.122107 458.415479 458.346603 462.583480 465.561183
27.160000 453.305739 456.383620 460.669757 460.550272 464.763417 467.360091
27.260000 455.250031 458.522404 463.113338 462.842733 466.929718 469.321456
27.360000 457.406287 460.584473 465.472300 464.908052 468.723053 471.067501
27.460000 459.041752 462.972264 467.492710 466.884429 470.444812 472.755020
27.560000 460.986570 464.914321 469.353088 468.761331 472.186069 474.184779
27.660000 462.926656 467.030190 471.224382 470.608774 473.928787 475.784788
27.760000 465.169962 469.101513 473.079644 472.514450 475.550005 477.587004
27.860000 467.067077 471.417068 474.931399 474.442309 477.296114 479.138778
27.960000 469.149621 473.661074 476.677828 476.270723 478.938788 480.811855
28.080000 471.394307 475.747714 478.573024 478.195944 480.700578 482.595528
28.200000 473.985621 477.716619 480.287085 480.041139 482.460932 484.526286
28.320000 476.455548 479.592898 482.111940 481.875136 484.182982 485.823034
28.440000 478.835657 481.599938 483.745325 483.650612 485.639443 487.726295
28.560000 481.592839 483.528714 485.511835 485.470331 487.348307 489.268868
28.660000 483.664504 485.357557 487.095233 487.141095 488.849132 490.841855
28.760000 485.380274 487.197358 488.812384 488.837302 490.501581 492.299321
28.860000 487.117252 488.832913 490.473366 490.466427 492.142610 493.771965
28.960000 488.650110 490.468504 492.081734 492.069141 493.702759 495.371949
29.060000 490.009878 491.975532 493.636800 493.623033 495.244030 496.893102
29.160000 491.587507 493.577475 495.151357 495.154791 496.765024 498.613962
29.260000 493.015880 495.064439 496.657471 496.644457 498.334042 499.998428
29.360000 494.837388 496.591360 498.061843 498.107301 499.729797 501.528039
29.460000 496.445298 498.002689 499.491532 499.561036 501.146293 502.997781
29.560000 497.865496 499.513387 500.958792 501.023769 502.608240 504.283024
29.660000 499.600616 501.053922 502.431208 502.526313 504.029673 505.851116
29.760000 501.341960 502.622755 504.167163 504.253179 505.853738 507.870211
29.860000 502.918666 504.443003 506.276151 506.356130 508.210791 510.545463
29.960000 504.622390 506.467735 508.476181 508.553623 510.574327 513.212358
30.060000 506.433262 508.623218 510.806393 510.879719 513.137312 515.503922
30.160000 508.200541 510.678012 513.129270 513.132738 515.554912 518.078845
30.260000 509.965836 512.708386 515.371450 515.318799 517.858497 520.183558
30.360000 512.067551 514.840759 517.562239 517.435619 519.853719 522.418118
30.460000 513.868158 516.742917 519.519969 519.362708 521.853161 524.258929
30.560000 515.785390 518.540437 521.322610 521.130173 523.747712 525.740200
30.660000 517.475236 520.308008 522.983715 522.871257 525.566336 527.616083
30.760000 519.310393 522.023216 524.674961 524.637860 527.207305 529.203318
30.860000 521.295680 523.935152 526.371553 526.382700 528.871832 530.838243
30.960000 523.288993 525.867905 528.219126 528.244387 530.762646 532.510649
31.060000 525.522623 527.891715 530.255478 530.212279 532.688043 534.530925
31.160000 527.373592 529.910267 532.100558 532.165878 534.563517 536.806581
31.260000 530.103773 532.438980 534.514836 534.617916 536.970747 539.357080
31.360000 532.456196 534.459743 536.686652 536.812685 539.264318 542.158057
31.460000 534.433483 536.464781 538.838207 538.940581 541.360549 544.269051
31.560000 536.340270 538.480336 540.912254 541.022489 543.508006 546.269605
31.660000 538.450843 540.535078 543.039117 543.088944 545.663846 548.259397
31.760000 540.217213 542.726209 545.260674 545.267166 547.733041 550.135017
31.860000 542.527276 545.034442 547.595425 547.510074 549.966863 552.109628
31.960000 544.580230 547.449553 549.975998 549.803569 552.102059 554.182331
32.060000 546.974296 550.097178 552.345644 552.270123 554.552050 556.894928
32.160000 549.758259 552.409226 554.619641 554.666530 557.057421 559.425282
32.260000 551.950199 554.545241 556.919493 556.875790 559.337349 561.815260
32.360000 554.464075 556.836183 559.212097 559.257054 561.834759 564.192835
32.460000 556.769647 559.115393 561.579975 561.634986 564.214775 566.467993
32.560000 558.810329 561.113044 563.717934 563.733904 566.338255 568.697061
32.660000 560.860986 562.932269 565.898676 565.768059 568.444282 570.721271
32.760000 562.889807 565.121143 568.119279 567.949357 570.656449 572.627739
32.860000 564.545415 567.295456 570.243360 570.116108 572.852872 575.374131
32.960000 566.312972 569.362747 572.535479 572.331268 575.145804 577.720517
33.060000 568.317637 571.603433 574.905425 574.629246 577.323932 579.576199
33.160000 570.415055 574.084851 577.449298 576.946834 579.533078 581.420852
33.260000 573.447198 577.182908 579.555285 579.300797 581.445223 583.515301
33.360000 578.214728 580.251533 581.929150 581.944100 583.738782 585.608214
33.460000 580.521116 582.375544 583.967971 584.060281 585.810711 587.462258
33.560000 582.528851 584.199102 585.865451 585.901489 587.531317 589.521503
33.660000 584.135040 585.889543 587.693504 587.683185 589.302130 591.312259
33.760000 585.940896 587.699554 589.381109 589.506600 591.217589 593.836128
33.860000 587.943449 589.611856 591.356992 591.566337 593.489454 596.857620
33.960000 589.903159 591.509138 593.345733 593.749219 596.143662 599.533149
34.060000 591.717056 593.438741 595.537900 595.923255 598.776841 601.619131
34.160000 593.350547 595.392620 597.829191 598.011186 600.961804 603.672096
34.260000 595.199231 597.441321 600.035501 600.167671 602.884066 605.605706
34.360000 597.189149 599.612516 602.457648 602.407059 605.173876 607.426408
34.460000 599.384810 602.212338 604.900247 604.807272 607.348167 609.632634
34.560000 602.174928 604.840204 607.301921 607.137895 609.397830 611.616246
34.660000 605.043863 607.604723 609.668603 609.508931 611.349794 613.324871
34.760000 607.718982 610.079631 611.892421 611.799550 613.595416 615.165077
34.860000 609.967098 612.310590 614.081871 613.964511 615.651810 617.119910
34.960000 612.499849 614.702621 616.348158 616.236933 617.847625 618.989408
35.060000 615.734703 617.543911 618.898180 618.844846 620.209410 621.449825
35.160000 618.961511 620.228786 621.562243 621.609929 622.995174 624.579325
35.260000 621.198942 622.389048 624.044322 624.118076 625.646768 627.834916
35.360000 622.903534 624.565540 626.421753 626.619068 628.677334 631.488574
35.460000 624.569106 626.602207 628.747086 628.974122 631.511629 634.217538
35.560000 626.095663 628.564052 630.934399 631.198508 633.971651 636.964388
35.660000 627.934328 630.565793 633.277097 633.435446 636.406938 639.382867
35.760000 629.953895 632.591607 635.472414 635.593734 638.632787 641.743684
35.860000 632.097575 634.753839 637.822094 637.843444 640.889806 643.829731
35.960000 634.008142 637.191334 640.132177 640.095429 643.212558 645.727370
36.060000 636.312103 639.563660 642.524420 642.569974 645.552692 648.598714
36.160000 638.724139 642.197241 645.092910 645.108621 648.263650 651.383837
36.260000 641.812257 644.868324 647.707508 647.829096 650.918343 654.221608
36.360000 644.555692 647.513690 650.417862 650.637378 653.938093 657.746011
36.460000 647.247117 650.407972 653.543386 653.732813 657.133836 660.935447
36.560000 650.449314 653.456556 656.912543 656.993006 660.519484 664.094556
36.660000 653.087520 656.179569 659.819254 659.901689 663.603291 666.931389
36.760000 655.733035 659.135378 662.795479 662.812545 666.572781 669.655783
36.860000 658.068691 661.834189 665.457911 665.373986 669.047649 671.928592
36.960000 660.751322 664.244079 667.855425 667.708699 671.110168 673.838181
37.060000 663.043350 666.408645 670.155424 669.912525 673.337965 675.854130
37.160000 665.365546 668.689052 672.394073 672.055211 675.444811 677.558113
37.293333 668.302033 671.642891 675.115917 674.824743 677.931531 679.954792
37.426667 671.925627 674.607708 677.929605 677.641673 680.519956 682.419076
37.560000 674.996079 677.744350 680.573427 680.376750 683.039985 684.865649
37.660000 677.163967 679.917246 682.587995 682.404818 684.880593 686.690964
37.760000 679.044934 682.012706 684.586139 684.288222 686.570349 688.267088
37.860000 681.185579 683.647343 686.218044 685.960761 688.199455 689.763164
37.960000 683.097267 685.470984 687.877819 687.627035 689.782968 691.158723
38.060000 685.122655 687.457476 689.547659 689.374911 691.319720 692.660843
38.160000 686.911535 689.263632 691.285990 691.107291 692.997780 694.258155
38.260000 688.457791 690.758425 692.846487 692.658654 694.502261 695.690745
38.360000 689.780033 692.334634 694.473290 694.215862 696.028701 696.986441
38.460000 691.477657 694.011887 696.165411 695.810656 697.547734 698.409576
38.560000 693.196864 695.763786 697.912185 697.581602 699.341193 699.848169
