depth(m) lower_95(kyr) lower_68(kyr) median(kyr) mean(kyr) upper_68(kyr) upper_95(kyr)
19.700000 300.745560 304.396573 306.872703 306.886193 309.352214 313.020337
19.800000 303.396955 306.352062 308.443954 308.599404 310.953006 314.284297
19.900000 306.028652 308.403953 310.235002 310.495578 312.937586 315.825545
20.000000 308.471559 310.467042 312.328709 312.604102 314.961507 317.502623
20.100000 310.772947 312.419436 314.506664 314.643133 316.949258 318.931081
20.200000 312.589873 314.373811 316.489690 316.522524 318.720794 320.407267
20.300000 314.446442 316.317362 318.554182 318.426888 320.419039 321.819306
20.400000 316.558074 318.563581 320.517721 320.317241 321.983091 323.359905
20.500000 318.683569 320.654834 322.266335 322.109727 323.471695 324.746071
20.600000 320.941850 322.589395 323.829874 323.766724 324.907209 326.176666
20.700000 322.575837 324.120981 325.254242 325.221485 326.367591 327.587158
20.800000 324.266106 325.353758 326.558957 326.586387 327.763567 329.089460
20.900000 325.579695 326.679848 327.819809 327.871658 329.063597 330.343165
21.000000 326.728871 327.930524 329.188637 329.190529 330.409770 331.910865
21.133333 328.129481 329.512766 330.982273 331.076467 332.608622 334.603745
21.266667 329.816958 331.202406 332.772586 332.994055 334.823086 337.699839
21.400000 331.408547 332.831327 334.619635 334.904257 336.977944 340.166699
21.533333 332.960033 334.546899 336.465344 336.814842 339.042322 342.456916
21.666667 334.720198 336.292704 338.343056 338.801074 341.399404 344.922360
21.800000 336.360243 338.043718 340.357352 340.803464 343.712603 347.191694
21.900000 337.594553 339.351460 341.828041 342.296434 345.598322 348.725276
22.000000 338.882066 340.571056 343.455189 343.809211 347.205475 350.068004
22.106667 340.225887 342.194409 345.016165 345.473775 349.261489 351.752652
22.213333 341.707361 343.675347 346.730937 347.144473 350.998663 353.616100
22.320000 343.117781 345.340359 348.396665 348.800956 352.789507 355.444224
22.420000 344.796522 346.852140 350.202500 350.480225 354.271744 356.985205
22.520000 346.269038 348.468710 352.106700 352.153617 355.841450 358.344285
22.620000 347.741551 350.342656 354.091690 353.948130 357.419258 359.876568
22.720000 349.188934 352.266650 355.958728 355.718358 358.992398 361.346774
22.820000 350.889595 354.145527 357.727619 357.446064 360.540997 362.852502
22.920000 352.634392 356.070253 359.371328 359.154319 362.085282 364.426650
23.020000 354.615383 358.022611 361.098488 360.897451 363.751121 366.389021
23.120000 356.248989 359.922988 362.730978 362.625351 365.347837 368.313655
23.220000 358.992030 362.047315 364.591408 364.544720 367.064391 369.974280
23.320000 361.289487 364.141579 366.432909 366.467923 368.847869 371.687779
23.420000 363.475697 365.952118 368.197803 368.254148 370.655814 373.519223
23.520000 364.889686 367.687618 369.864271 369.971779 372.551409 374.873534
23.660000 367.330253 369.872076 372.215437 372.389055 375.033328 377.631625
23.760000 369.159489 371.422179 374.100621 374.174800 376.874782 379.567537
23.860000 370.708137 373.394022 376.053414 376.053305 378.630085 381.465822
23.960000 372.588423 375.340990 377.998489 378.054118 380.732059 383.720243
24.060000 374.931909 377.484168 380.277733 380.255436 382.912993 385.930975
24.160000 377.165827 379.728260 382.739492 382.706821 385.549480 388.964122
24.260000 379.389590 382.033171 385.444929 385.470863 388.939566 392.209107
24.360000 381.423592 384.776451 388.517447 388.557759 392.499806 395.690552
24.460000 384.101494 388.448971 393.007927 392.488422 396.489007 398.724594
24.560000 387.476992 392.909011 396.798884 396.165513 399.269085 401.096252
24.660000 395.863605 398.175839 400.038739 399.883897 401.619000 403.363027
24.760000 398.758187 400.472305 402.040508 402.019111 403.435656 404.953108
24.860000 400.594268 402.210654 403.695229 403.753823 405.258945 406.922355
24.960000 402.324048 403.781540 405.371414 405.426982 406.944636 408.887139
25.060000 403.925381 405.479065 407.071961 407.143034 408.815604 410.555717
25.120000 405.047980 406.593654 408.292254 408.349965 410.066911 412.051158
25.220000 406.989157 408.800015 410.709481 410.770284 412.623586 415.148821
25.320000 410.454133 412.334975 414.544237 414.667042 417.185305 419.715621
25.420000 413.607314 415.855576 418.032149 418.106771 420.503716 423.108692
25.520000 416.857326 419.339091 421.520072 421.489916 423.679341 425.749183
25.620000 419.823609 422.369749 424.379047 424.342504 426.522790 428.231906
25.720000 423.987569 425.699298 427.626553 427.495823 429.154330 430.936037
25.820000 426.623212 428.362772 430.091825 430.113657 431.750026 433.914919
25.920000 428.751635 430.360595 432.145459 432.150719 433.806095 436.120674
26.020000 430.301123 432.071320 433.919598 433.988020 435.904192 437.940001
26.120000 431.776466 433.755248 435.676498 435.804728 437.960159 440.520327
26.220000 433.363244 435.368346 437.505258 437.674882 439.990021 442.914767
26.320000 435.030013 437.082750 439.518241 439.654980 442.210292 445.386015
26.420000 437.115503 439.215804 441.853742 441.970706 444.670847 447.995537
26.520000 439.252393 441.596376 444.359941 444.459552 447.251095 450.709229
26.620000 442.210992 445.305526 448.085708 448.288247 451.394932 455.056123
26.760000 445.998397 448.682595 451.956938 452.029414 455.368072 458.926621
26.860000 448.028805 451.120910 454.484880 454.463522 457.852421 460.807875
26.960000 449.921797 453.465109 456.821455 456.790231 460.167134 462.934481
27.060000 451.926098 455.627618 459.209139 459.046213 462.386692 464.805351
27.160000 454.234788 457.896846 461.672353 461.260066 464.498048 466.669154
27.260000 456.070505 460.318763 464.009593 463.477672 466.450824 468.583649
27.360000 458.115712 462.311667 466.104044 465.506607 468.369649 470.189696
27.460000 459.855061 464.515928 467.963663 467.406635 470.112674 472.122193
27.560000 461.736172 466.645768 469.652354 469.280575 471.781812 473.738281
27.660000 463.714565 468.686460 471.417191 471.036734 473.423079 475.432719
27.760000 465.943896 470.558045 473.176379 472.818644 475.101008 477.067035
27.860000 467.677900 472.519743 475.010257 474.643504 476.805440 478.705006
27.960000 470.092742 474.343617 476.625593 476.361737 478.432408 480.392046
28.080000 472.736919 476.114632 478.340703 478.148367 480.154680 482.463192
28.200000 474.793854 477.852077 480.038172 479.884422 481.878460 483.972490
28.320000 477.213420 479.518939 481.660466 481.564731 483.584487 485.477875
28.440000 479.118829 481.339241 483.356150 483.283112 485.181741 487.016262
28.560000 481.476534 483.290356 485.126965 485.074177 486.853275 488.725898
28.660000 483.025772 484.964293 486.654354 486.665256 488.385360 490.259827
28.760000 484.801995 486.668713 488.278735 488.348405 490.022344 492.057793
28.860000 486.627006 488.281907 489.979845 490.024320 491.775832 493.597209
28.960000 488.132235 489.797118 491.644219 491.653529 493.487343 495.405231
29.060000 489.522697 491.484325 493.168937 493.237617 495.137487 497.055477
29.160000 491.120531 493.098704 494.764069 494.829701 496.744514 498.732855
29.260000 492.727528 494.632253 496.403516 496.414487 498.237997 500.468211
29.360000 494.210476 496.002251 497.842117 497.891028 499.731761 501.865067
29.460000 495.640531 497.500838 499.313410 499.381135 501.226626 503.454469
29.560000 497.241349 499.029716 500.848834 500.861699 502.644070 504.822545
29.660000 498.798225 500.651408 502.457926 502.430522 504.249467 506.141643
29.760000 500.516854 502.355639 504.126736 504.193926 506.021183 507.885590
29.860000 502.382461 504.449812 506.366355 506.508499 508.700010 511.188467
29.960000 504.486112 506.529094 508.740028 508.875260 511.284205 514.177716
30.060000 506.628376 508.804971 511.282117 511.319806 513.781866 516.225615
30.160000 508.577444 510.980889 513.615317 513.640158 516.259375 518.821381
30.260000 510.301899 513.495323 515.981517 515.905394 518.419871 520.852456
30.360000 512.254275 515.567247 518.053523 518.011656 520.537173 522.699141
30.460000 514.222411 517.436204 520.046404 519.959202 522.549260 524.508538
30.560000 516.020875 519.206024 521.936231 521.740251 524.344488 526.294900
30.660000 517.720637 521.025362 523.613225 523.478253 526.086310 527.921331
30.760000 519.440786 522.753455 525.338426 525.199000 527.824877 529.373164
30.860000 521.068297 524.411411 527.095522 526.869516 529.471491 530.978458
30.960000 523.467154 526.147465 528.906698 528.688224 531.031960 532.730729
31.060000 525.738275 528.230629 530.760396 530.647701 532.965152 534.878893
31.160000 528.186963 530.252945 532.558843 532.599709 534.894287 537.715422
31.260000 530.820030 532.758620 534.923131 535.063971 537.337058 539.967014
31.360000 533.042008 534.938072 537.094458 537.275113 539.795383 542.303248
31.460000 535.013505 537.012405 539.196626 539.383154 541.885753 544.403828
31.560000 536.980084 538.912617 541.201301 541.426652 543.976064 546.536456
31.660000 538.808254 540.967779 543.480972 543.503273 546.155041 548.339361
31.760000 540.795102 543.187223 545.663704 545.704824 548.251075 550.656461
31.860000 542.742772 545.551132 547.953181 547.887805 550.288321 552.597004
31.960000 544.730533 547.970664 550.386844 550.249456 552.688819 554.671273
32.060000 547.475325 550.515053 552.717915 552.701576 554.988366 557.632708
32.160000 550.065196 552.944448 555.063544 555.120247 557.294427 560.189899
32.260000 552.176811 554.969701 557.281227 557.242770 559.554125 561.996578
32.360000 555.128470 557.161522 559.480347 559.636266 562.147099 564.678153
32.460000 557.468060 559.421311 561.918425 561.924628 564.419642 566.670327
32.560000 559.214456 561.313426 564.074324 563.998750 566.537632 568.591703
32.660000 561.096737 563.317469 566.207137 566.022814 568.480013 570.879805
32.760000 563.222151 565.496015 568.445322 568.239920 570.755966 573.116433
32.860000 564.869156 567.620519 570.537858 570.341981 572.919820 575.061087
32.960000 566.908254 569.880846 572.878482 572.623112 575.168029 577.285448
33.060000 569.291380 572.170044 575.386395 575.000352 577.599523 579.408576
33.160000 571.326109 574.580097 577.663801 577.263695 579.656448 581.528432
33.260000 574.009776 577.581844 579.804819 579.571459 581.652647 583.590627
33.360000 578.498425 580.259128 582.115009 582.118071 583.949334 585.898343
33.460000 580.882052 582.367046 584.088811 584.172208 585.983394 588.294867
33.560000 582.635684 584.144394 585.910840 586.042548 587.836692 590.480384
33.660000 584.410465 585.976895 587.698299 587.882265 589.804642 592.693600
33.760000 586.339740 587.750310 589.617539 589.867093 591.964227 595.131831
33.860000 588.075146 589.711569 591.650619 592.026594 594.480206 597.824182
33.960000 589.928960 591.688530 593.821099 594.151234 596.980071 599.727626
34.060000 591.686556 593.534887 595.899998 596.255232 599.252242 601.746631
34.160000 593.332611 595.556777 598.127821 598.295454 601.205190 603.591519
34.260000 595.346185 597.735545 600.394169 600.463898 603.219558 605.558369
34.360000 597.412409 600.047716 602.774951 602.703357 605.349269 607.375330
34.460000 599.853524 602.450982 605.078341 604.943117 607.306935 609.491337
34.560000 602.360434 604.957799 607.353774 607.224269 609.368824 611.509154
34.660000 605.383897 607.810935 609.652240 609.580425 611.581932 613.372897
34.760000 608.193974 610.079603 611.841555 611.807549 613.590458 615.318402
34.860000 610.170595 612.330774 614.087513 613.996984 615.737205 617.172091
34.960000 612.918777 614.737338 616.333242 616.241850 617.812595 619.024353
35.060000 615.641846 617.507339 618.908682 618.831014 620.236644 621.483120
35.160000 618.620389 620.232596 621.635066 621.582943 622.860632 624.217464
35.260000 621.067523 622.615082 624.037140 624.151927 625.576463 627.728894
35.360000 622.971966 624.655282 626.442091 626.679196 628.570010 632.104751
35.460000 624.898312 626.658914 628.852059 629.149546 631.618788 634.872409
35.560000 626.637208 628.588258 631.376709 631.421472 634.203583 637.055904
35.660000 628.558719 630.645288 633.753550 633.720891 636.493531 639.577106
35.760000 630.616381 632.802916 635.825753 635.945650 638.830866 641.788435
35.860000 632.377056 635.127573 638.204305 638.220757 641.263480 644.488978
35.960000 634.245515 637.602034 640.533027 640.586052 643.720552 646.911732
36.060000 636.628705 639.917508 643.138731 643.215305 646.485688 649.688665
36.160000 639.538175 642.573962 645.654101 645.785622 649.143394 652.166791
36.260000 641.993475 645.136101 648.524638 648.588874 651.983433 655.201151
36.360000 644.793161 647.859613 651.191932 651.381461 654.934921 658.464761
36.460000 647.603563 650.967642 654.432155 654.563899 658.310123 662.008750
36.560000 650.625090 653.789854 657.591174 657.691559 661.566488 665.095209
36.660000 653.764149 656.488658 660.658249 660.608154 664.347978 667.722282
36.760000 656.236338 659.511871 663.717592 663.421757 667.030750 670.050067
36.860000 658.683602 662.250475 666.132894 665.912656 669.381082 672.056405
36.960000 661.150833 664.689103 668.395538 668.194077 671.575282 674.307675
37.060000 663.397355 667.082690 670.484546 670.315601 673.573764 676.080648
37.160000 665.197084 669.327535 672.509076 672.406719 675.517384 677.875783
37.293333 668.499240 672.375207 675.415233 675.192338 678.211757 680.530019
37.426667 671.629537 675.175293 677.976594 677.871437 680.775610 683.029649
37.560000 674.990551 677.911492 680.685229 680.577940 683.340676 685.497639
37.660000 677.455712 680.153651 682.768123 682.648805 685.124460 687.558793
37.760000 679.269404 682.136965 684.661747 684.624210 687.155476 689.972475
37.860000 680.866707 683.888463 686.489562 686.408627 688.870485 691.816265
37.960000 682.941118 685.811750 688.431575 688.416868 690.918314 694.391831
38.060000 685.042297 687.833562 690.509110 690.653224 693.281327 697.691224
