depth(m) lower_95(kyr) lower_68(kyr) median(kyr) mean(kyr) upper_68(kyr) upper_95(kyr)
6.580000 313.619834 318.246426 321.104822 320.728117 323.272333 325.384048
6.670000 322.175521 324.298128 326.034272 325.933967 327.700062 329.203997
6.760000 326.342840 328.623817 330.225917 330.072185 331.574779 332.902540
6.850000 330.946291 332.553010 334.069955 334.441674 336.072088 340.623380
6.940000 333.689873 335.306539 337.188888 338.087523 340.353015 349.835974
7.030000 337.184331 338.743671 341.387031 342.919700 348.155823 354.361778
7.120000 340.900982 342.978061 346.898504 348.084285 354.037162 358.545946
7.210000 344.581577 348.063792 353.891819 353.734645 359.189941 362.486108
7.300000 348.942350 353.785516 360.259595 359.163307 363.737655 367.063813
7.390000 353.191994 359.476758 365.063969 364.236102 368.590078 372.008198
7.480000 358.396791 364.353994 368.776240 368.467514 372.654338 376.058549
7.570000 363.742851 368.849088 372.882140 372.776049 376.723853 380.500240
7.660000 368.435732 373.719426 377.421478 377.419750 381.465416 385.775675
7.750000 374.568570 379.409535 383.337411 383.166087 387.199917 390.674376
7.830000 380.857523 386.037345 389.565570 389.262641 392.600294 395.005358
7.930000 388.940244 392.435700 395.107871 394.826466 397.244838 398.839486
8.020000 394.389508 397.257726 399.228030 399.098763 401.025940 402.552894
8.110000 398.614116 400.688373 402.608736 402.568951 404.396508 406.399014
8.200000 402.037675 403.774214 405.685627 405.745452 407.699799 409.918891
8.290000 404.988662 406.870251 408.903779 408.982237 411.069528 413.508911
8.380000 408.595038 410.515776 412.806482 412.928451 415.323576 418.229753
8.470000 412.640234 414.833270 417.285385 417.534365 420.248705 422.934541
8.560000 416.840421 419.904039 422.878553 422.744862 425.618201 427.775270
8.650000 424.602512 427.481317 430.115206 430.073475 432.653433 435.268790
8.740000 429.686730 432.529930 435.128236 435.103408 437.651505 440.075860
8.830000 433.790665 436.988040 439.582815 439.563844 442.264213 444.589008
8.920000 438.362727 440.793023 443.865740 443.885503 446.703406 450.272787
9.010000 441.902021 444.240454 447.371211 447.716925 451.106110 455.053626
9.100000 445.432837 447.627639 451.148855 451.549692 455.203320 460.375017
9.180000 448.458442 450.854471 454.395968 454.914462 459.160778 464.071475
9.280000 451.862988 454.857980 458.612729 459.059723 463.635528 467.903007
9.370000 455.276950 458.297167 462.273164 462.735308 467.562418 471.407667
9.460000 458.861955 462.359524 466.205634 466.630820 471.474255 474.963880
9.550000 463.021119 467.083826 471.294609 471.232536 475.326589 478.690842
9.640000 469.170929 473.512975 477.316210 476.983107 480.415507 483.036062
9.730000 478.175010 481.603690 484.246715 484.188233 486.827559 489.609879
9.820000 483.882653 487.373429 489.986528 489.872280 492.488856 494.714128
9.910000 487.964614 492.050126 494.819907 494.600720 497.196098 499.970975
10.000000 492.861202 496.121812 498.763360 498.726330 501.355107 503.752649
10.090000 496.910237 499.651425 502.520545 502.439549 505.141017 508.053866
10.180000 500.686049 503.428739 505.957575 506.154836 508.920773 512.673503
10.270000 505.452421 507.649545 510.348322 510.531424 513.377075 517.157032
10.360000 508.961038 511.883519 514.715113 514.853542 518.068872 521.266661
10.450000 512.783145 515.973258 519.106458 519.164328 522.246090 525.382644
10.530000 516.524744 519.874668 523.023668 522.854357 525.897095 528.531207
10.630000 520.715208 524.189713 527.397451 527.222489 530.131308 532.939331
10.720000 525.240617 528.583371 531.346612 531.313704 533.962694 537.171747
10.810000 530.469547 533.460663 536.123653 536.264021 539.153103 542.394220
10.900000 534.931688 537.681270 540.593017 540.705083 543.818577 547.108423
10.990000 539.073931 542.116424 545.201564 545.017510 547.774456 550.605393
11.080000 543.546709 546.891860 549.766534 549.603426 552.237752 554.807742
11.170000 548.076752 551.690858 554.218874 554.188752 556.823234 559.627428
11.260000 553.579143 556.310722 558.985538 558.969775 561.675816 564.012743
11.350000 558.449256 560.904568 563.431568 563.362068 565.961504 568.077679
11.440000 562.054780 564.757112 567.260688 567.124236 569.416989 571.210970
11.520000 565.946690 568.239976 570.373691 570.267090 572.215815 574.098404
11.620000 570.389906 572.411307 574.136264 574.133329 575.724147 577.476999
11.710000 573.940936 575.576315 577.278924 577.206447 578.743674 580.421483
11.800000 576.816027 578.741341 580.375592 580.414532 582.139144 584.042702
11.890000 579.815693 581.643322 583.237344 583.371634 585.145178 587.366162
11.980000 582.872916 584.524462 586.209247 586.347170 588.115333 590.926039
12.070000 585.929906 587.499894 589.292478 589.563136 591.443900 594.822612
12.160000 588.775415 590.674421 592.539474 592.964079 595.222766 599.123160
12.250000 591.503514 593.657626 595.912872 596.352621 599.254267 603.382855
12.340000 594.674650 596.598745 599.129315 599.695267 602.984722 607.389985
12.430000 597.799357 599.600501 602.720176 603.163783 606.860093 611.256583
12.520000 600.833396 602.964523 606.214072 606.760226 610.685613 614.940752
12.610000 604.568302 607.036516 610.386223 610.769949 614.575450 618.234032
12.700000 609.315488 612.222013 615.655759 615.635681 618.978865 621.884662
12.790000 619.608283 622.142022 624.419283 624.517972 626.808116 629.915584
12.870000 623.959800 626.054834 628.516273 628.670859 630.950223 634.680011
12.970000 627.176726 629.738427 633.057142 633.113547 636.078857 639.780830
13.060000 629.829854 633.347705 636.894511 636.903829 640.416419 643.740210
13.150000 633.645886 637.485700 641.448513 641.306868 644.897628 648.929435
13.230000 637.667199 641.676394 645.891914 645.692877 649.459612 653.740753
13.330000 642.073762 646.648569 651.021186 650.845712 654.897718 659.265825
13.420000 646.561373 650.492538 654.761171 654.758290 658.879002 662.872344
13.510000 650.247378 654.119955 658.520215 658.516421 662.831052 667.251226
13.570000 652.822254 657.086659 661.371926 661.267576 665.584390 669.501215
13.690000 658.481126 662.891640 667.056958 666.887873 670.861913 674.905618
13.780000 663.274511 667.805711 671.590359 671.548831 675.459704 679.003459
13.870000 668.329908 672.697471 676.461477 676.259824 679.908230 682.777593
13.960000 673.796902 678.040699 681.448620 681.173980 684.503334 686.957151
14.050000 678.158639 682.990508 686.320818 685.883085 688.837295 691.313408
14.140000 686.255007 688.953051 691.781972 691.607204 694.130499 695.962147
14.220000 690.122942 692.783153 695.661646 695.505007 698.279384 699.698824
