depth(m) lower_95(kyr) lower_68(kyr) median(kyr) mean(kyr) upper_68(kyr) upper_95(kyr)
88.017000 296.064588 300.925684 304.540317 304.054280 306.948048 309.463905
88.146667 296.696445 301.288874 304.892075 304.417951 307.312332 309.740401
88.276333 297.289516 301.628138 305.225651 304.777017 307.651289 310.080529
88.406000 297.633917 302.031605 305.583062 305.133550 307.997424 310.402216
88.542364 297.976737 302.425632 305.953689 305.489483 308.250387 310.730349
88.678727 298.619666 302.820338 306.276529 305.852599 308.671286 311.124141
88.815091 299.017114 303.345947 306.600974 306.211342 309.003071 311.462030
88.951455 299.663855 303.733781 306.956545 306.590973 309.355367 311.821612
89.087818 300.105774 304.107035 307.258452 306.963347 309.793176 312.099230
89.224182 300.624100 304.583570 307.581855 307.323940 310.095413 312.424809
89.360545 300.928479 304.969126 307.878496 307.675985 310.372517 312.860819
89.496909 301.249017 305.442081 308.216513 308.034602 310.757674 313.194840
89.633273 301.802040 305.896411 308.497555 308.388209 311.157258 313.505394
89.769636 302.303352 306.253753 308.790638 308.731659 311.493656 313.747292
89.906000 303.014135 306.685158 309.080168 309.063082 311.802157 314.036273
90.033714 303.243862 307.003405 309.371424 309.373708 312.123735 314.257102
90.161429 303.476462 307.400870 309.632673 309.679380 312.448108 314.597572
90.289143 303.951530 307.759836 309.877697 309.978883 312.746349 314.843745
90.416857 304.428978 308.053226 310.129362 310.267281 313.050360 315.116119
90.544571 305.008725 308.366083 310.404833 310.551337 313.337285 315.329350
90.672286 305.568358 308.621943 310.665765 310.839282 313.596417 315.563568
90.800000 306.079134 308.957379 310.908043 311.125682 313.922957 315.764403
90.940250 306.283165 309.378995 311.184033 311.433513 314.156752 316.024003
91.080500 306.744995 309.697455 311.464448 311.744605 314.425647 316.247216
91.220750 307.118746 310.060982 311.762541 312.047855 314.678003 316.520325
91.361000 307.455699 310.414284 312.073789 312.349754 314.934326 316.778147
91.501250 307.719184 310.795639 312.334896 312.650698 315.219319 317.000062
91.641500 308.349584 311.122852 312.644647 312.947538 315.449088 317.261618
91.781750 308.766032 311.422389 312.968208 313.252575 315.726311 317.500768
91.922000 309.102844 311.766208 313.266880 313.557676 316.093100 317.745431
92.062250 309.389514 312.149762 313.565308 313.866984 316.347652 318.040101
92.202500 309.671468 312.428015 313.908462 314.171801 316.608591 318.255636
92.342750 310.067790 312.741351 314.218120 314.468609 316.893964 318.522704
92.483000 310.446060 313.072969 314.514270 314.771761 317.117025 318.769811
92.623250 310.749997 313.391975 314.865531 315.080132 317.401203 319.060093
92.763500 311.083559 313.702971 315.213026 315.385259 317.656286 319.263868
92.903750 311.455575 314.031061 315.553549 315.691044 317.985798 319.551273
93.044000 311.743620 314.317037 315.896240 316.010470 318.287849 319.808791
93.184250 312.145136 314.599032 316.211304 316.326102 318.608229 320.086986
93.324500 312.506515 314.919844 316.532725 316.641693 318.955164 320.347419
93.464750 312.926937 315.189950 316.905190 316.971529 319.231617 320.677640
93.605000 313.304661 315.529538 317.257932 317.307174 319.501804 321.011719
93.697500 313.551085 315.740228 317.530939 317.545032 319.667455 321.174132
93.790000 313.817590 315.950588 317.810866 317.795713 319.943512 321.319990
93.922000 314.091735 316.303610 318.204874 318.164891 320.222418 321.688521
94.054000 314.607490 316.743609 318.629377 318.556780 320.568548 321.991685
94.186000 314.928432 317.062048 319.060563 318.938682 320.902682 322.336989
94.317286 315.358802 317.420769 319.473894 319.349397 321.243880 322.617010
94.448571 315.808198 317.833904 319.895264 319.767655 321.608831 322.936592
94.579857 316.313743 318.268839 320.343271 320.192365 321.945692 323.216048
94.711143 316.808088 318.703968 320.859964 320.632061 322.365338 323.599421
94.842429 317.392151 319.226775 321.387592 321.097818 322.809639 324.056288
94.973714 317.783006 319.740235 321.832699 321.554890 323.237621 324.498079
95.105000 318.153183 320.312293 322.321107 322.032153 323.699038 324.938443
95.207000 318.406974 320.709356 322.698928 322.410296 324.047139 325.286880
95.309000 318.585111 321.076928 323.116308 322.795402 324.466910 325.648654
95.411000 319.039936 321.468793 323.464293 323.181568 324.869488 326.167151
95.545200 319.609956 321.908802 323.943595 323.712567 325.455382 326.901826
95.679400 319.980748 322.382838 324.482126 324.261136 326.048289 327.587359
95.813600 320.438374 322.995433 325.003583 324.853300 326.679783 328.510348
95.947800 320.788207 323.561985 325.578625 325.411294 327.225471 329.040008
96.082000 321.181916 324.018744 326.179122 325.963833 327.851025 329.694326
96.216200 321.730272 324.549230 326.808963 326.548989 328.487226 330.509645
96.350400 322.215074 325.060709 327.322635 327.094736 329.063204 331.158704
96.484600 322.625395 325.602149 327.871217 327.672243 329.699047 331.753737
96.618800 323.431198 326.134280 328.419595 328.281596 330.331742 332.209852
96.753000 323.971907 326.658516 329.007113 328.866432 330.870499 332.674625
96.890667 324.743726 327.479159 329.720181 329.614585 331.732782 333.503087
97.028333 325.715970 328.207760 330.489097 330.367901 332.547490 334.660294
97.166000 326.556785 328.974314 331.266697 331.143052 333.304444 335.255187
97.303667 327.482983 329.937526 332.025945 332.043064 334.118596 336.255789
97.441333 328.432551 330.784316 332.964989 332.898192 334.953235 337.275225
97.579000 329.520983 331.691398 333.760793 333.797987 335.796255 338.251943
97.716667 330.126212 332.570327 334.620115 334.603575 336.623840 339.148911
97.854333 331.052900 333.462428 335.430542 335.443074 337.400908 339.735442
97.992000 332.025284 334.320574 336.277417 336.303990 338.186775 340.830895
98.129667 332.942438 335.235331 337.112668 337.172556 338.952543 341.577539
98.267333 334.273673 336.135812 337.931459 337.986788 339.702320 342.621740
98.405000 334.948681 336.935726 338.649808 338.713260 340.399455 343.343425
98.519333 335.705592 337.503571 339.198034 339.295120 341.039022 343.805243
98.633667 336.411246 338.066589 339.763524 339.867639 341.642356 344.302451
98.748000 336.961871 338.487568 340.294329 340.382431 342.188629 344.627479
98.870600 337.645384 339.038389 340.802149 340.888918 342.652233 345.140877
98.993200 338.070398 339.560048 341.246030 341.374380 343.136811 345.602239
99.115800 338.725967 340.016035 341.698586 341.826072 343.601916 346.068613
99.238400 339.252998 340.488332 342.139931 342.305381 344.080636 346.586355
99.361000 339.678865 340.930861 342.578901 342.769137 344.544709 346.990468
99.478250 340.086573 341.387589 342.995057 343.197243 344.961507 347.387806
99.595500 340.526683 341.824604 343.398345 343.623665 345.350944 347.810060
99.712750 340.852902 342.279025 343.802394 344.029602 345.751999 348.258877
99.830000 341.172511 342.650319 344.207643 344.432205 346.182834 348.636803
99.967273 341.626956 343.125276 344.765191 344.921434 346.682739 349.157585
100.104545 341.994896 343.609837 345.281904 345.409658 347.169575 349.651251
100.241818 342.340992 344.063161 345.788277 345.920373 347.688025 350.285423
100.379091 342.771535 344.502083 346.234174 346.425334 348.240008 351.142364
100.516364 343.199888 344.982608 346.710261 346.936694 348.938285 351.867542
100.653636 343.583234 345.397448 347.159350 347.411594 349.488009 352.369987
100.790909 343.911088 345.935672 347.645096 347.892900 349.990897 352.996646
100.928182 344.167722 346.345483 348.165171 348.384026 350.647167 353.411801
101.065455 344.419917 346.762344 348.634275 348.837297 351.125989 354.084587
101.202727 344.659479 347.183038 349.056857 349.282343 351.595268 354.671102
101.340000 344.926045 347.611916 349.520786 349.720691 352.105631 355.280524
101.484000 345.239791 348.008869 349.984870 350.198704 352.551496 355.899036
101.628000 345.708042 348.447441 350.495095 350.668150 352.915993 356.402094
101.772000 345.930779 348.909905 351.038515 351.128474 353.348808 356.867778
101.916000 346.352461 349.309678 351.534651 351.592944 353.943227 357.312913
102.060000 346.702994 349.697482 352.054170 352.052110 354.379586 357.684708
102.204000 346.936823 350.075439 352.541140 352.520749 354.882770 358.049243
102.348000 347.194468 350.392839 353.028766 352.976428 355.407669 358.405014
102.492000 347.589783 350.747030 353.522134 353.440024 355.939970 358.792032
102.636000 347.944565 351.065942 354.022500 353.893550 356.540670 359.099483
102.780000 348.236021 351.477083 354.517423 354.342867 357.076626 359.489461
102.890500 348.552099 351.754879 354.864328 354.686049 357.370940 359.766916
103.001000 348.924511 351.985054 355.240301 355.027910 357.659125 360.083839
103.111000 349.188141 352.299500 355.603319 355.371712 357.988038 360.337415
103.220667 349.608868 352.640870 355.989336 355.731262 358.324020 360.650037
103.330333 349.855257 353.026483 356.336599 356.081683 358.698225 361.017976
103.440000 350.124860 353.368982 356.692068 356.437877 359.038163 361.465292
103.545333 350.506350 353.678884 357.028477 356.756015 359.372325 361.713410
103.650667 350.857339 353.918282 357.333575 357.076987 359.699499 361.942624
103.756000 351.153481 354.281981 357.683958 357.403068 360.059226 362.210115
103.889545 351.794863 354.709386 358.096876 357.835306 360.497128 362.688292
104.023091 352.193170 355.252555 358.552379 358.251535 360.890644 363.042845
104.156636 352.716076 355.793061 358.986163 358.661593 361.299120 363.318597
104.290182 353.328709 356.282341 359.442494 359.080319 361.751353 363.745231
104.423727 353.713078 356.767085 359.899172 359.494528 362.145486 364.279104
104.557273 354.052022 357.262051 360.287989 359.927982 362.539453 364.623791
104.690818 354.424739 357.703879 360.748721 360.339625 362.927661 364.969690
104.824364 354.626527 358.173113 361.183124 360.762815 363.315696 365.328671
104.957909 354.909935 358.558583 361.615102 361.171579 363.691658 365.772075
105.091455 355.388209 358.924086 362.084779 361.585420 364.048335 366.320300
105.225000 355.792103 359.324859 362.544850 361.982234 364.360731 366.753126
105.256000 355.859294 359.413550 362.658018 362.072890 364.460607 366.856942
105.398000 356.134764 359.758475 363.054748 362.482992 364.829619 367.212059
105.540000 356.673645 360.143043 363.530661 362.923130 365.312357 367.787460
105.682000 356.871459 360.505807 363.909228 363.329114 365.701536 368.230262
105.824000 357.278647 360.822439 364.306891 363.733405 366.168968 368.762396
105.966000 357.630907 361.188460 364.757764 364.144278 366.619566 369.283064
106.108000 358.002900 361.548896 365.118180 364.553440 367.032486 369.702280
106.250000 358.383810 362.089466 365.494326 364.958483 367.406711 369.996982
106.392000 358.736873 362.438826 365.890836 365.361397 367.859186 370.457500
106.534000 359.198093 362.856986 366.238725 365.757626 368.254095 370.759064
106.676000 359.660524 363.201046 366.589215 366.138126 368.584083 371.261720
106.820833 359.950452 363.602176 366.947046 366.518894 368.984315 371.660893
106.965667 360.273833 363.947801 367.269827 366.897734 369.345710 372.119970
107.110500 360.722764 364.314762 367.608711 367.276466 369.732717 372.699001
107.255333 361.112292 364.696168 367.966351 367.657056 370.130012 373.158110
107.400167 361.453807 365.116143 368.350463 368.028175 370.541529 373.515726
107.545000 361.786174 365.509024 368.718556 368.406465 370.895150 373.927935
107.689833 362.282706 365.825197 369.110634 368.784511 371.264115 374.269335
107.834667 362.667923 366.221835 369.419492 369.171427 371.726852 374.641303
107.979500 362.945617 366.651415 369.835311 369.565601 372.116362 375.028252
108.124333 363.329927 367.067315 370.176271 369.945310 372.432423 375.402707
108.269167 363.705926 367.506961 370.516932 370.322019 372.806076 375.698408
108.414000 364.045773 367.932058 370.919191 370.695607 373.171233 376.133399
108.558833 364.293760 368.327127 371.307661 371.070102 373.547129 376.569047
108.703667 364.617125 368.607018 371.662844 371.439778 373.932848 376.924105
108.848500 365.096958 368.931053 372.004021 371.795564 374.302904 377.312894
108.993333 365.503880 369.274119 372.312470 372.147896 374.652642 377.636466
109.138167 366.110576 369.610279 372.625563 372.506263 375.041380 377.913196
109.283000 366.417293 369.941325 372.989506 372.852527 375.417508 378.265584
109.424421 366.899861 370.310539 373.302836 373.209003 375.810938 378.762339
109.565842 367.266502 370.626021 373.643515 373.550068 376.179707 379.020939
109.707263 367.595913 370.932529 373.964758 373.883494 376.473053 379.469081
109.848684 368.174501 371.274239 374.347071 374.220222 376.835986 379.842039
109.990105 368.514504 371.724731 374.667559 374.554810 377.253141 380.115113
110.131526 368.896809 372.109392 375.017494 374.887032 377.595582 380.445632
110.272947 369.304305 372.379966 375.348100 375.228559 377.925031 380.898777
110.414368 369.749807 372.723850 375.685089 375.557291 378.284006 381.294872
110.555789 370.101853 373.110096 375.996338 375.887463 378.652361 381.688563
110.697211 370.397801 373.440281 376.290865 376.221549 378.979638 382.101280
110.838632 370.707174 373.772448 376.624116 376.558140 379.309613 382.479096
110.980053 371.080531 374.055089 376.983556 376.884997 379.689109 382.741050
111.121474 371.438708 374.347396 377.302206 377.216665 380.000346 383.131816
111.262895 371.910222 374.704790 377.599846 377.554146 380.383267 383.491912
111.404316 372.226174 374.997258 377.914257 377.889888 380.698906 383.737188
111.545737 372.738775 375.316735 378.239981 378.234389 381.055119 384.053397
111.687158 373.099743 375.631303 378.558970 378.583261 381.429725 384.559715
111.828579 373.417482 375.942222 378.873047 378.927984 381.873861 384.983184
111.970000 373.744657 376.305033 379.211503 379.267354 382.219202 385.351288
112.115111 374.239318 376.643701 379.559522 379.623252 382.558840 385.711434
112.260222 374.706906 376.931984 379.944181 379.985685 382.916854 386.075334
112.405333 375.078355 377.305734 380.297244 380.357344 383.269037 386.429939
112.550444 375.407442 377.708246 380.659661 380.749825 383.625937 386.796312
112.695556 375.850970 378.144170 381.079804 381.148311 384.024810 387.137844
112.840667 376.376260 378.583978 381.434851 381.532914 384.416136 387.395967
112.985778 376.802206 379.114533 381.804307 381.926916 384.813755 387.793227
113.130889 377.224392 379.596475 382.151652 382.336199 385.217099 388.134176
113.276000 377.566929 380.129739 382.595369 382.734457 385.654151 388.463687
113.412364 377.904701 380.568569 382.929465 383.108335 386.077091 388.772234
113.548727 378.311864 380.907112 383.341874 383.486355 386.532921 389.107669
113.685091 378.877727 381.292997 383.695900 383.902238 386.853032 389.537757
113.821455 379.234169 381.721661 384.074032 384.304373 387.280468 389.903328
113.957818 379.672245 382.179764 384.489847 384.698552 387.650982 390.184186
114.094182 380.044379 382.558680 384.844430 385.109580 388.070119 390.516565
114.230545 380.327766 382.924436 385.223893 385.523971 388.494767 391.077013
114.366909 380.724886 383.474598 385.665237 385.951433 388.970964 391.523753
114.503273 381.116846 383.867902 386.131027 386.363649 389.372842 391.999304
114.639636 381.579012 384.431395 386.502844 386.795626 389.739268 392.344426
114.776000 382.035709 384.846625 386.866547 387.204374 390.141272 392.736263
114.918400 382.445267 385.262872 387.311363 387.647165 390.533493 393.230731
115.060800 383.051493 385.751146 387.788051 388.106758 390.931959 393.697224
115.203200 383.546384 386.178197 388.276514 388.563853 391.292501 394.056871
115.345600 384.065970 386.630274 388.760895 389.033800 391.679296 394.581139
115.488000 384.316367 387.109896 389.222003 389.498360 392.168051 394.958671
115.597333 384.680186 387.488932 389.535168 389.843655 392.494867 395.382123
115.706667 385.056348 387.824169 389.944506 390.213910 392.871704 395.633887
115.816000 385.400208 388.211644 390.311975 390.577468 393.201165 395.912470
115.932500 385.717540 388.629125 390.715643 390.956593 393.519279 396.290035
116.049000 386.230734 388.968863 391.166025 391.332960 393.911979 396.497918
116.165500 386.699680 389.339986 391.589599 391.726589 394.259647 396.854533
116.282000 387.050546 389.719409 391.944798 392.109853 394.577413 397.308326
116.417818 387.475389 390.128022 392.435753 392.571767 394.923023 397.736510
116.553636 388.027610 390.549013 393.005834 393.016237 395.325215 398.280032
116.689455 388.482893 391.010675 393.459526 393.518732 395.745040 399.450824
116.825273 388.982301 391.501812 393.954982 394.033157 396.285927 400.476128
116.961091 389.504217 392.064583 394.477053 394.541198 396.762411 400.907434
117.096909 389.997138 392.555345 394.950703 395.048034 397.238533 401.991040
117.232727 390.651059 393.054126 395.425726 395.549043 397.682219 402.662799
117.368545 391.090747 393.577196 395.831948 396.049689 398.159235 403.499264
117.504364 391.708544 394.021059 396.318495 396.582957 398.612203 405.006528
117.640182 392.386219 394.497991 396.817928 397.107274 399.042442 406.343359
117.776000 392.995604 394.975724 397.328233 397.622684 399.519575 407.401611
117.912364 393.448374 395.537090 397.840306 398.199829 400.299247 407.839614
118.048727 393.966311 396.178179 398.395732 398.833335 401.074061 408.393422
118.185091 394.608161 396.729221 398.969291 399.523528 402.106624 408.620831
118.321455 395.198828 397.358193 399.565631 400.244418 403.166335 409.932740
118.457818 395.991378 397.863843 400.161452 400.981619 404.217076 410.606818
118.594182 396.481241 398.459524 400.908742 401.784852 405.269568 412.188522
118.730545 397.067718 398.947298 401.495053 402.496564 406.315766 412.915016
118.866909 397.566995 399.511502 402.143112 403.246607 407.514637 413.878557
119.003273 398.085924 400.039777 402.782626 403.965402 408.563174 414.663466
119.139636 398.696453 400.535516 403.470170 404.679294 409.532575 415.098202
119.276000 399.249496 401.030629 404.169655 405.404042 410.285716 415.877885
119.356000 399.593600 401.368079 404.568125 405.787394 410.667962 416.260081
119.487111 400.213662 402.276160 406.452203 407.175459 412.165516 418.035621
119.618222 400.993928 403.553273 408.610171 408.733085 413.726647 418.739873
119.749333 402.140615 405.401605 411.096751 410.917116 416.023952 420.557459
119.880444 403.744219 408.161388 413.277464 413.318341 418.210142 422.003780
120.011556 406.026808 411.001438 415.448012 415.396710 420.260259 423.519668
120.142667 408.914026 412.836276 417.627686 417.398115 421.869698 424.641855
120.273778 411.302144 414.729039 419.596838 419.310693 423.666574 425.988659
120.404889 413.084209 416.870808 421.414910 420.923442 424.708407 426.810431
120.536000 414.574721 418.593796 422.741259 422.174636 425.511387 427.478965
120.659500 415.941543 419.982210 423.979364 423.345321 426.367360 428.260742
120.783000 417.038126 421.175459 424.985906 424.332005 427.182980 428.739246
120.906500 417.717968 422.405972 425.823473 425.225721 427.817628 429.194954
121.030000 418.787021 423.446149 426.588299 425.994114 428.477336 429.749936
121.164250 419.697991 424.591064 427.525020 427.011263 429.335852 431.247228
121.298500 421.599401 426.019638 428.422892 428.083590 430.258517 432.392114
121.432750 423.639099 427.277315 429.326100 429.129098 431.118501 433.298290
121.567000 425.396663 428.269869 430.043128 430.026573 431.857248 433.971401
121.704500 425.947235 428.893124 430.648498 430.630986 432.495599 434.493318
121.842000 426.359277 429.440386 431.296867 431.198306 433.072352 435.340287
121.981737 426.943611 429.892673 431.815966 431.753215 433.658506 435.935781
122.121474 427.620104 430.355789 432.389685 432.292479 434.231720 436.554875
122.261211 428.101408 430.823386 432.895414 432.805014 434.766167 437.141644
122.400947 428.602569 431.292471 433.435228 433.327118 435.339519 437.646446
122.540684 429.051401 431.771058 433.943315 433.845923 435.887798 438.135119
