depth(m) lower_95(kyr) lower_68(kyr) median(kyr) mean(kyr) upper_68(kyr) upper_95(kyr)
19.500000 300.274162 301.091206 302.003078 302.008975 302.900963 303.980671
19.600000 301.827186 302.731999 303.840401 304.158237 305.577582 308.350428
19.700000 303.166949 304.197218 305.518849 306.075256 308.152346 311.699175
19.800000 304.413368 305.619550 307.243536 307.867497 310.407450 314.129707
19.900000 306.043050 307.282554 309.397891 310.030123 313.117817 316.310639
20.000000 307.803459 309.440890 312.198415 312.520490 315.740947 318.326045
20.100000 309.635140 311.751786 314.846893 314.902202 317.955373 320.164524
20.200000 311.235946 314.416204 317.547860 317.217232 319.956262 321.567716
20.300000 313.854734 316.961339 320.023052 319.501931 321.768828 323.179625
20.400000 316.876610 319.752450 321.909666 321.594513 323.393357 324.807711
20.500000 320.176792 322.479646 323.669681 323.613756 324.903884 326.131483
20.600000 322.865316 324.166609 325.268327 325.254299 326.381567 327.443102
20.700000 324.390276 325.572076 326.641197 326.652459 327.815428 328.850341
20.800000 325.727198 326.835468 327.938935 327.941847 329.098066 330.156594
20.900000 326.981026 328.117199 329.225057 329.220509 330.318399 331.423965
21.000000 328.155080 329.347023 330.533892 330.522363 331.672739 332.938291
21.133333 329.826460 331.032406 332.383879 332.442012 333.788745 335.530280
21.266667 331.482794 332.761501 334.247114 334.399070 336.047720 338.549183
21.400000 333.321752 334.547787 336.097940 336.372397 338.270730 341.021179
21.533333 334.982660 336.319063 338.046096 338.340297 340.344685 343.289194
21.666667 336.624658 338.099311 340.045403 340.345285 342.646172 345.361150
21.800000 338.295100 340.038900 342.003251 342.350382 344.902724 347.461433
21.900000 339.643462 341.383767 343.668328 343.935495 346.659327 349.084591
22.000000 340.964749 342.771513 345.370924 345.497295 348.210856 350.593871
22.106667 342.410184 344.343090 346.980012 347.128930 349.888491 352.366653
22.213333 343.958098 346.040802 348.825182 348.808719 351.499841 354.330175
22.320000 345.576633 347.760083 350.514688 350.536705 353.209494 355.714253
22.420000 347.040928 349.478609 352.204816 352.190075 354.890225 357.269839
22.520000 348.573656 351.117497 353.948325 353.857997 356.624044 358.688967
22.620000 350.308516 352.869692 355.683142 355.576342 358.266352 360.464117
22.720000 352.118199 354.816473 357.457321 357.324082 359.861765 362.071889
22.820000 353.935159 356.511952 359.330120 359.078095 361.591564 363.543357
22.920000 355.589978 358.346828 361.046585 360.835233 363.249093 365.139738
23.020000 357.483659 360.258791 362.756468 362.577836 364.926051 366.945690
23.120000 359.311478 361.876100 364.346015 364.230340 366.520167 368.643768
23.220000 361.688206 363.838522 366.093062 366.046634 368.265705 370.384455
23.320000 363.579263 365.763815 367.949457 367.932145 370.046226 372.135113
23.420000 365.046387 367.338703 369.584180 369.613079 371.842633 374.040866
23.520000 366.583057 368.956479 371.212702 371.253811 373.657087 375.646698
23.660000 368.913302 371.178512 373.479894 373.553227 375.928547 378.337987
23.760000 370.366828 372.776904 375.322219 375.271773 377.727743 380.307379
23.860000 372.125261 374.519216 377.189586 377.167256 379.773219 382.415166
23.960000 374.139049 376.429837 379.210576 379.303253 382.078416 384.891566
24.060000 375.894310 378.733225 381.665230 381.764310 384.766818 387.746484
24.160000 378.315956 381.258766 384.462664 384.526199 387.790339 391.112194
24.260000 380.946482 383.910875 387.684852 387.680278 391.369867 394.918805
24.360000 383.847963 387.280010 391.317817 391.204443 395.092082 398.004506
24.460000 386.887695 390.909812 395.383600 394.962411 398.762820 400.811217
24.560000 391.762277 395.844336 399.259477 398.681973 401.315310 403.154904
24.660000 398.923264 400.681983 402.100886 402.049348 403.441957 404.955366
24.760000 401.436294 402.664263 403.863841 403.956850 405.265287 406.875003
24.860000 402.886256 404.118975 405.281629 405.431768 406.806961 408.298448
24.960000 404.286286 405.420989 406.765658 406.817316 408.245217 409.681567
25.060000 405.463005 406.879037 408.239983 408.270857 409.654044 411.239068
25.120000 406.394284 407.821184 409.303604 409.289668 410.810697 412.177365
25.220000 408.229339 409.757822 411.357863 411.416446 413.012987 414.827361
25.320000 411.086377 412.806844 414.647135 414.827084 416.882087 419.001963
25.420000 414.062197 415.952661 418.097141 418.129879 420.254340 422.724669
25.520000 417.058115 419.476216 421.581904 421.625030 423.867554 425.525050
25.620000 419.955458 422.416128 424.627465 424.435365 426.409842 427.897870
25.720000 423.876910 426.272176 427.989219 427.862021 429.416200 431.288093
25.820000 427.612967 429.018027 430.419969 430.514958 432.055638 433.912658
25.920000 429.280864 430.677635 432.183228 432.359334 434.073765 436.094729
26.020000 430.760520 432.116043 433.764998 434.004911 435.885691 438.286139
26.120000 432.145177 433.491068 435.477726 435.681245 437.780837 440.913487
26.220000 433.432725 435.003231 437.077814 437.413107 439.755264 443.215488
26.320000 434.974287 436.602328 438.807093 439.232475 441.984936 445.527944
26.420000 436.501261 438.536024 441.095091 441.535004 444.577039 448.389338
26.520000 438.454892 440.680139 443.629280 444.059661 447.367712 451.930742
26.620000 441.260634 443.980488 447.668572 447.929412 451.682210 456.612323
26.760000 444.629982 447.708003 451.906343 452.111217 456.534182 460.856188
26.860000 446.233425 449.611600 454.496222 454.684392 459.679013 463.624409
26.960000 447.984879 451.578562 457.253014 457.062574 462.179571 465.753781
27.060000 449.941241 453.889412 459.748507 459.399680 464.583283 467.778869
27.160000 451.883156 456.105823 462.142941 461.621291 466.789567 469.788924
27.260000 453.640348 458.515689 464.650405 463.911772 468.791451 471.306461
27.360000 455.814082 460.499146 466.937306 465.887743 470.423362 472.555248
27.460000 457.518666 462.833972 468.772230 467.769450 472.082892 473.775535
27.560000 459.783894 465.103361 470.675734 469.634683 473.568283 475.165658
27.660000 461.751224 467.442959 472.548476 471.456900 474.935322 476.621145
27.760000 463.700349 469.799292 474.258178 473.312236 476.580435 477.991928
27.860000 465.671302 472.113323 475.986668 475.183909 478.342576 479.800075
27.960000 467.802947 474.327434 477.774232 477.036921 479.880502 481.535376
28.080000 470.008412 476.308594 479.501428 478.866565 481.533250 483.199669
28.200000 472.221220 478.426665 481.074971 480.605620 483.114519 484.915042
28.320000 475.364542 480.282511 482.627505 482.347147 484.722969 486.415749
28.440000 478.424407 482.135828 484.308558 484.110535 486.216961 488.043467
28.560000 481.527332 483.954459 485.940750 485.867981 487.786269 489.517368
28.660000 484.038038 485.521017 487.395272 487.398835 489.173859 490.830052
28.760000 485.780687 487.221486 488.854343 488.912634 490.594548 492.239303
28.860000 487.108504 488.672182 490.358144 490.396253 492.099887 493.516871
28.960000 488.341056 490.108925 491.857630 491.844628 493.548786 495.175924
29.060000 489.963409 491.598938 493.331157 493.328777 495.082474 496.742634
29.160000 491.333673 493.003057 494.746972 494.821147 496.596781 498.273779
29.260000 492.768649 494.412686 496.273334 496.258100 498.038981 500.136028
29.360000 493.973229 495.762341 497.656218 497.645653 499.434039 501.531660
29.460000 495.610996 497.182201 499.066440 499.092025 500.896009 503.016613
29.560000 496.597343 498.624298 500.546435 500.545453 502.388194 504.780658
29.660000 498.073559 500.184243 502.076106 502.081898 503.902145 506.174008
29.760000 499.680378 501.804230 503.823530 503.893625 505.959485 508.208816
29.860000 501.785123 503.835292 506.004646 506.251364 508.805283 511.808029
29.960000 503.621766 506.057575 508.660272 508.773356 511.571210 514.366843
30.060000 505.908913 508.522402 511.329008 511.310067 514.144352 516.841910
30.160000 507.551962 510.616636 513.778157 513.646461 516.521554 519.405689
30.260000 509.564260 513.136871 515.986593 515.905878 518.822421 521.407497
30.360000 511.871357 515.441303 518.148295 518.046009 520.774889 523.026042
30.460000 513.994955 517.572031 520.153905 520.053538 522.717646 524.794698
30.560000 515.647075 519.297474 521.941066 521.736623 524.369964 526.180961
30.660000 517.484428 520.957948 523.676764 523.453683 526.034805 528.086093
30.760000 519.024668 522.760584 525.259320 525.145005 527.699575 529.513872
30.860000 520.958741 524.375308 527.061823 526.825526 529.312561 531.272689
30.960000 523.332575 526.254167 528.841936 528.677846 531.170308 533.268010
31.060000 525.573188 527.974203 530.716936 530.699047 533.140872 536.143430
31.160000 527.548384 530.319621 532.665007 532.717439 535.125451 538.672437
31.260000 530.564899 532.944388 535.219940 535.404762 537.937800 541.424957
31.360000 532.826605 534.924389 537.374489 537.722166 540.552060 544.701661
31.460000 534.975010 536.957639 539.518925 539.961731 543.279338 546.779263
31.560000 536.811821 538.934757 541.770167 542.177039 545.636043 548.976841
31.660000 538.468390 541.033723 543.981694 544.337835 548.040068 550.783808
31.760000 540.322349 543.346959 546.547089 546.679888 550.280011 552.985363
31.860000 542.615806 545.872225 549.197631 549.080704 552.277027 554.923733
31.960000 545.006782 548.515225 551.879540 551.611874 554.763969 557.121101
32.060000 548.118640 551.404898 554.625928 554.423064 557.402614 560.188577
32.160000 551.317786 554.473220 557.193192 557.243300 560.058132 562.752640
32.260000 553.902585 556.789352 559.582691 559.653463 562.477877 565.487736
32.360000 556.377198 559.192764 562.111441 562.108187 565.026516 567.923782
32.460000 559.592620 561.764145 564.419029 564.553535 567.367507 570.204950
32.560000 561.836536 563.962207 566.679777 566.680222 569.330467 572.050042
32.660000 563.634506 566.041885 568.557875 568.645331 571.130381 573.959989
32.760000 565.669603 568.102782 570.742084 570.723453 573.378825 575.732678
32.860000 567.641954 569.953792 572.599270 572.619486 575.161402 577.898071
32.960000 569.180110 571.844959 574.468747 574.460447 577.060824 580.000143
33.060000 570.846905 573.717106 576.281891 576.288274 578.716390 582.193444
33.160000 572.754241 575.609444 578.119265 578.106201 580.457996 583.721973
33.260000 575.410727 577.920442 579.915304 580.114590 582.443804 585.572353
33.360000 579.342566 580.820045 582.643238 582.948812 585.116412 588.168006
33.460000 581.284323 582.968412 585.039641 585.279440 587.532812 590.563566
33.560000 583.123086 584.988490 587.253650 587.490360 590.014031 593.040611
33.660000 584.919907 587.081771 589.689276 589.861274 592.483993 595.837857
33.760000 586.806594 589.455621 592.139188 592.294213 595.230566 598.887994
33.860000 589.121096 591.734566 594.781528 594.888300 598.102584 601.330338
33.960000 591.389336 594.331545 597.331367 597.439797 600.706483 603.863888
34.060000 593.602201 596.713008 599.963827 599.875882 603.196778 605.684700
34.160000 595.422947 598.724246 602.203132 601.981275 605.245401 607.397973
34.260000 597.798403 600.782641 604.365776 604.052384 607.203553 608.951148
34.360000 599.807404 603.167874 606.477661 606.131914 609.047482 610.550904
34.460000 602.089096 605.606684 608.626928 608.242474 610.762495 612.199952
34.560000 604.906042 608.064056 610.629059 610.240102 612.391738 613.557327
34.660000 607.744281 610.231027 612.461299 612.157401 613.954449 615.066239
34.760000 610.008627 612.259866 614.116788 613.878971 615.404361 616.534535
34.860000 611.846186 614.055505 615.679236 615.487355 616.888867 617.886939
34.960000 613.693200 615.816664 617.385935 617.205240 618.538405 619.509866
35.060000 616.247928 618.139006 619.292301 619.212917 620.373113 621.348972
35.160000 619.204184 620.410410 621.426414 621.485471 622.597551 623.872788
35.260000 621.165804 622.243000 623.347465 623.500324 624.807146 626.485038
35.360000 622.714973 623.836784 625.255392 625.538820 627.336815 629.946346
35.460000 624.175625 625.399913 627.153875 627.488984 629.596391 632.591851
35.560000 625.508334 627.043950 628.993014 629.385308 631.938378 634.715016
35.660000 627.064489 628.591926 630.906166 631.258264 634.110773 637.023402
35.760000 628.593530 630.315200 632.821779 633.140114 636.062616 639.327202
35.860000 630.126293 632.117711 634.922106 635.123419 638.215469 641.566780
35.960000 631.942877 634.162291 637.102281 637.300027 640.425023 643.968165
36.060000 633.792992 636.494999 639.864943 639.934848 643.384644 646.998335
36.160000 636.107461 639.093890 642.524365 642.735624 646.392310 650.367799
36.260000 639.025720 641.998669 645.474124 645.778991 649.900141 653.560355
36.360000 641.585934 645.003170 649.054572 649.007274 652.949857 656.909005
36.460000 645.239755 648.733088 652.604453 652.642213 656.528097 660.396663
36.560000 648.658464 652.428477 656.321867 656.335287 660.255025 663.717042
36.660000 651.932820 655.816704 659.568245 659.452992 663.039154 665.968149
36.760000 655.413045 658.773474 662.403291 662.264199 665.659018 668.353992
36.860000 658.145047 661.664790 664.963398 664.846516 668.006253 670.705992
36.960000 660.883388 663.968421 667.206425 667.105406 670.130298 672.859289
37.060000 662.640799 666.239862 669.443028 669.200714 672.193270 674.698999
37.160000 665.083403 668.298529 671.404860 671.216008 674.092607 676.194304
37.293333 668.140660 670.983522 674.088957 673.871198 676.677176 678.981014
37.426667 670.947153 673.739428 676.703702 676.447877 679.036658 681.097984
37.560000 673.653738 676.464138 679.101935 678.944584 681.349005 683.231078
37.660000 675.860049 678.531023 680.930482 680.796642 683.013190 684.800331
37.760000 677.939736 680.624854 682.763680 682.626598 684.620659 686.438246
37.860000 680.207031 682.479304 684.429146 684.316803 686.167116 687.922122
37.960000 682.436172 684.461531 686.199658 686.155361 687.794862 689.500325
38.060000 685.078416 686.699653 688.277513 688.314823 689.903561 691.789789
38.160000 686.778262 688.542089 690.193072 690.295738 692.147259 694.208818
38.260000 688.178143 690.029550 691.847118 691.998349 693.998322 696.407893
38.360000 689.689511 691.568260 693.554379 693.665664 695.879932 698.180350
38.460000 691.307463 693.243095 695.251472 695.329314 697.638638 699.764021
38.560000 692.780806 694.825279 697.036542 697.035412 699.279840 701.239383
38.650000 694.401745 696.420812 698.615802 698.635190 700.805827 702.917578
38.740000 696.009138 698.141406 700.261123 700.311304 702.507233 704.535234
38.840000 698.135789 700.269533 702.380705 702.388898 704.478246 706.759100
38.940000 700.346041 702.514942 704.602943 704.577187 706.679534 708.614418
39.040000 702.840650 705.113463 707.212542 707.137472 709.178468 710.877798
39.140000 705.436041 707.615762 709.653387 709.552746 711.508201 713.078008
39.240000 707.664757 709.869476 711.911109 711.753689 713.569656 715.516645
39.340000 709.307035 711.732938 713.906522 713.874756 715.922757 718.255334
39.440000 711.081125 713.671793 715.801903 715.814445 717.884559 720.468774
39.540000 712.914877 715.303890 717.540794 717.606675 719.850206 722.670702
39.640000 714.307617 716.936329 719.214228 719.323762 721.647733 724.870623
39.740000 715.959687 718.462957 720.841193 721.021362 723.505225 727.448348
39.840000 717.658596 719.993992 722.413624 722.711351 725.164087 730.568745
39.940000 719.216560 721.576064 723.893454 724.443494 727.123546 734.236930
40.040000 720.975179 723.223521 725.640237 726.394214 729.477779 736.903150
40.140000 722.857448 725.201514 727.695493 728.660866 732.716026 739.312673
40.240000 724.891178 727.629232 730.314030 731.448689 736.197667 740.879561
40.340000 726.846450 730.373880 734.043230 734.454317 738.650907 743.492436
40.440000 728.297500 733.606719 738.030430 737.894278 742.068353 746.143905
40.540000 730.183463 736.472158 741.310530 740.882591 745.504626 749.203118
40.640000 732.639029 738.838966 743.491914 743.299142 748.109776 751.808172
40.740000 734.355503 740.744030 745.646267 745.503990 750.362867 754.226348
40.840000 735.920082 742.779488 747.717324 747.626225 752.783230 756.030077
40.940000 738.225128 744.883229 749.978950 749.721852 754.732403 758.225351
41.040000 740.431882 746.946559 752.219492 751.732628 756.539252 760.115810
41.140000 742.253297 748.903778 754.192713 753.676461 758.457990 761.742715
41.240000 744.119404 750.970889 756.186171 755.528442 760.151762 763.311010
41.340000 746.735828 752.823696 758.020894 757.287036 761.770152 764.675373
41.473333 749.604865 755.159940 760.348785 759.611659 763.981951 766.719126
41.606667 753.061683 757.775790 762.561349 762.010507 765.960052 768.703562
41.740000 756.138935 760.172764 764.637002 764.304735 768.271050 770.556547
41.840000 758.930578 762.486952 766.550502 766.244496 770.017908 772.083303
41.940000 760.890171 764.755702 768.472450 768.135965 771.714868 773.868256
42.040000 763.832526 767.178458 770.603063 770.301532 773.433487 775.587613
42.140000 766.563876 769.813699 772.785650 772.588100 775.395227 777.225843
42.240000 769.486260 772.378634 775.190947 774.943292 777.327764 779.380759
42.340000 772.128066 774.865285 777.367237 777.168937 779.374963 781.205706
42.440000 774.725165 777.187175 779.380034 779.257742 781.319597 783.187916
42.540000 776.673017 779.044054 781.259659 781.070076 783.123628 784.797720
42.640000 778.000678 780.868724 782.967603 782.796280 784.771027 786.464860
42.740000 780.058422 782.773014 784.719550 784.591231 786.454549 788.091646
42.840000 782.734382 784.894718 786.701777 786.618218 788.343609 789.934055
42.940000 785.837467 787.648175 789.340992 789.387581 791.154675 793.104766
43.040000 789.584278 791.554889 793.601001 793.790001 795.947550 798.999367
43.140000 792.465122 794.788548 797.231180 797.264994 799.819313 802.337263
43.240000 794.667010 797.110528 799.905693 799.969195 802.870504 805.303628
43.340000 796.766494 799.448765 802.452153 802.361024 805.169736 807.327075
43.440000 798.626917 801.699577 804.664768 804.462397 807.199314 809.328717
43.540000 800.868700 804.120355 806.972120 806.751830 809.278478 811.370894
43.640000 803.916044 806.730756 809.367613 809.278172 811.766944 814.062890
43.740000 806.168492 808.902783 811.448987 811.446329 813.922340 816.682575
43.840000 808.623144 811.295907 813.623832 813.825505 816.181060 820.509629
43.940000 810.664340 813.484318 816.015125 816.444278 819.252806 824.799329
44.040000 812.552990 815.718328 819.210936 819.584920 823.572149 828.101850
44.140000 814.814394 817.471887 822.191506 822.303555 826.993429 831.104840
44.240000 816.836972 819.925330 825.414390 825.233194 830.132105 834.155024
44.340000 819.347281 822.761476 828.248646 828.112041 832.921983 836.926813
44.440000 822.411582 825.942963 831.111408 830.962489 835.534681 839.484244
44.540000 824.952323 829.395941 834.030256 833.815614 838.102241 841.493464
44.640000 828.358242 832.678360 837.082582 836.792006 840.729426 843.806484
44.740000 831.813034 836.053767 840.184654 839.885442 843.497653 846.926477
44.840000 835.638238 839.917308 843.747884 843.630950 847.317363 851.270012
44.940000 839.794558 844.088480 847.435232 847.541096 851.756424 854.537747
45.040000 842.731765 846.799401 850.482981 850.621574 854.848105 857.162893
45.140000 845.185961 849.370259 853.511798 853.245702 857.177670 858.995876
45.240000 847.933215 851.863148 856.350457 855.744889 859.308615 860.652879
45.340000 850.003690 854.525591 858.993632 858.137081 861.164314 862.305946
45.440000 852.872859 857.791373 861.242571 860.443534 862.962016 864.038761
45.540000 855.143322 860.450440 863.103485 862.438343 864.537015 865.475621
45.640000 857.535307 863.452711 865.223434 864.785155 866.485852 867.636570
45.773333 861.967522 865.609118 867.351744 867.180666 869.031386 870.744168
45.906667 865.077577 867.780031 869.532708 869.517225 871.396618 873.916844
46.040000 868.343131 869.902810 871.599160 871.811505 873.687828 876.258407
46.140000 869.868821 871.454939 873.169076 873.445643 875.486189 878.441103
46.240000 871.470426 873.008314 874.828874 875.092500 877.083420 880.288596
