depth(m) lower_95(kyr) lower_68(kyr) median(kyr) mean(kyr) upper_68(kyr) upper_95(kyr)
34.110000 302.082343 303.177447 304.088503 304.086690 305.049131 305.787949
34.250000 303.770308 304.887329 306.217686 306.533812 308.035339 311.533186
34.390000 305.277352 306.574396 308.509296 309.061263 311.609391 316.063445
34.530000 306.792231 308.369152 311.132579 311.622321 315.063398 318.963746
34.670000 308.411402 310.337375 313.989599 314.220783 318.018758 321.406277
34.810000 309.707116 312.478987 317.064255 316.976851 320.769211 325.232344
34.943333 311.271597 315.001414 320.061123 319.986764 324.255448 330.477618
35.076667 312.924686 317.921118 323.426726 323.126325 327.889732 333.589183
35.210000 314.426087 320.981285 326.741722 326.276580 331.128127 337.145441
35.343333 315.836957 324.939704 330.053286 329.421768 333.922762 339.254457
35.476667 317.171549 328.704389 333.445015 332.491321 336.552851 341.848150
35.610000 318.734161 333.057092 336.257285 335.376308 339.061869 345.300413
35.750000 322.483256 334.827152 338.583411 338.134261 342.581578 348.631204
35.890000 326.187999 336.387058 341.098202 340.750928 346.016544 350.926961
36.030000 329.994434 338.119952 343.650685 343.357340 348.867307 353.483921
36.170000 334.787759 339.839027 346.095941 345.725628 351.209819 355.514541
36.310000 337.970788 341.714608 348.580680 348.064602 353.709875 357.470687
36.410000 339.682600 342.837109 350.242012 349.668310 355.449015 359.274169
36.543333 341.280059 344.770328 352.320347 351.591372 357.504939 360.973838
36.676667 342.909993 346.625979 354.014712 353.365435 359.177725 362.456957
36.810000 344.306217 348.373503 355.782971 355.113559 360.812548 364.067761
36.943333 345.886658 350.267527 357.552475 356.852673 362.309327 365.713883
37.076667 347.220461 352.045757 359.449498 358.516523 364.093008 366.933612
37.210000 348.963608 354.117064 361.211382 360.269423 365.636589 368.528036
37.350000 350.669728 356.097811 363.083957 362.132361 367.382209 370.050097
37.490000 352.608988 358.189337 365.016466 364.032031 369.025777 371.750880
37.630000 354.869882 360.693864 366.781036 365.878072 370.708229 373.134626
37.770000 356.905532 362.912692 368.713699 367.751371 372.297024 374.695300
37.910000 359.118594 364.942478 370.450047 369.596004 373.865557 376.192597
38.043333 361.469013 366.757868 372.208801 371.337817 375.431755 377.912009
38.176667 363.792629 368.746148 373.886054 373.076367 377.018087 379.256322
38.310000 366.096252 370.888380 375.589338 374.851178 378.513248 380.722117
38.443333 368.411170 372.760259 377.224791 376.583434 380.038436 382.176690
38.576667 370.434187 374.649615 378.808844 378.253930 381.692961 383.512151
38.710000 372.292315 376.351494 380.415666 379.872415 383.172568 384.955574
38.850000 374.226167 378.038054 381.911260 381.429885 384.534687 386.495521
38.990000 375.581276 379.695760 383.455046 382.990078 385.955915 387.823618
39.130000 377.341847 381.300160 385.059818 384.510225 387.378196 389.089734
39.270000 378.479624 382.906713 386.598061 385.981727 388.905622 390.649853
39.410000 380.023037 384.613111 388.119632 387.522583 390.252543 391.898292
39.543333 381.385656 386.172778 389.534875 388.918254 391.573956 393.375375
39.676667 382.803798 387.781722 390.882362 390.340430 392.930456 394.651519
39.810000 384.132666 389.020005 392.320037 391.725920 394.238985 396.026264
39.943333 385.725866 390.623739 393.743614 393.147717 395.586197 397.408959
40.076667 387.367565 392.253254 395.114128 394.548121 396.875799 398.468652
40.210000 389.067363 393.749298 396.514102 395.991292 398.272552 399.845266
40.354444 390.473191 395.423920 398.145762 397.638906 399.861571 401.578984
40.498889 392.430390 397.170684 399.773582 399.373059 401.642191 403.609055
40.643333 394.129290 398.771576 401.433410 401.052571 403.319738 405.680958
40.787778 395.733043 400.672796 403.077086 402.732172 405.061285 407.026437
40.932222 397.679816 402.320237 404.709365 404.443692 406.749838 408.903834
41.076667 399.835972 404.091253 406.422808 406.185819 408.442278 410.804821
41.221111 402.318817 406.052526 408.144333 407.965746 410.067157 412.376231
41.365556 404.807271 407.917235 409.901614 409.766979 411.725917 414.164646
41.510000 406.704640 409.791718 411.637616 411.542818 413.388841 415.854421
41.610000 408.296123 411.079176 412.881668 412.845332 414.675290 417.140130
41.710000 409.801586 412.380237 414.206429 414.173611 415.982147 418.367530
41.830000 411.425902 414.032515 415.846489 415.899412 418.079654 420.357002
41.950000 413.242718 415.604647 417.499753 417.645455 419.921016 422.453914
42.070000 415.069198 417.195859 419.228181 419.422250 421.816080 424.673455
42.190000 416.770556 418.870020 420.816280 421.109589 423.627723 426.278228
42.310000 418.627446 420.437308 422.531399 422.793126 425.327516 427.869763
42.450000 420.245329 422.027071 424.186607 424.417731 426.880566 429.405370
42.590000 421.775551 423.654378 425.881800 426.089099 428.594789 431.014717
42.730000 423.377713 425.326688 427.493108 427.696122 430.113359 432.724650
42.870000 424.857863 426.871026 429.105993 429.279414 431.721286 434.269440
43.010000 426.403519 428.500648 430.700151 430.874573 433.274003 436.209391
43.143333 427.703689 429.800993 432.118107 432.351722 435.039042 438.133960
43.276667 429.107910 431.126449 433.455009 433.809034 436.526700 439.928986
43.410000 430.377212 432.446039 434.867931 435.229106 437.916809 442.340341
43.543333 431.546414 433.827883 436.278588 436.700328 439.468950 443.869545
43.676667 432.815299 435.191084 437.746740 438.188465 441.055275 445.530368
43.810000 434.245665 436.607966 439.130957 439.691790 442.717778 447.742453
43.950000 435.773923 438.022157 440.616516 441.254877 444.503176 449.882542
44.090000 437.106948 439.400032 442.093805 442.821952 446.336727 451.912874
44.230000 438.378215 440.890284 443.680821 444.477133 448.147042 455.135489
44.370000 439.848144 442.336478 445.137336 446.154064 450.173972 457.944608
44.510000 441.229940 443.790970 446.740736 447.897181 452.369933 460.678120
44.643333 442.818416 445.454449 448.692753 449.894688 454.492524 462.568487
44.776667 444.395558 447.066774 450.743949 451.973678 457.184477 465.963937
44.910000 445.949541 448.831656 452.990089 454.276421 460.083439 468.086260
45.043333 447.687286 450.538651 455.594812 456.718106 463.080791 471.209806
45.176667 449.101527 452.375866 458.613095 459.405417 466.294691 473.922600
45.310000 450.580802 454.167930 461.479121 462.133063 470.011543 476.991397
45.451176 452.260089 456.015483 464.436453 465.283311 474.041687 483.902543
45.592353 453.517456 457.683409 467.444765 468.420890 477.962112 490.241479
45.733529 454.974259 459.518858 470.505153 471.526016 481.488696 496.113185
45.874706 456.234314 461.478341 473.814481 474.705369 485.426122 503.419539
46.015882 457.564314 463.577587 476.958863 478.020440 489.701368 509.592798
46.157059 458.897144 465.717077 480.224084 481.320685 494.475192 515.483700
46.298235 460.266794 468.296836 483.414954 484.717450 498.744501 523.450704
46.439412 461.620818 471.058777 486.246147 488.078366 503.299348 528.635968
46.580588 462.847462 473.476011 489.367360 491.486504 508.669645 535.371850
46.721765 464.063848 476.007361 492.527818 494.929228 513.634889 541.715817
46.862941 465.602551 478.390982 495.594933 498.401618 519.185833 547.512491
47.004118 466.959265 481.183653 498.860075 501.879723 524.262133 553.337850
47.145294 468.461537 483.682704 501.759472 505.368775 528.916156 560.834650
47.286471 469.794948 485.450681 504.697994 508.731311 533.620614 569.144556
47.427647 471.247972 487.462772 507.581736 512.116923 540.034771 574.967727
47.568824 472.595780 489.882794 510.092838 515.382351 544.329519 580.252080
47.710000 474.189437 492.885817 512.545827 518.781301 550.176348 584.771084
47.830000 475.566354 494.861023 514.885851 521.404860 552.498312 588.414767
47.950000 476.710419 497.736770 517.063783 523.909988 555.394704 591.534794
48.070000 477.832272 499.721612 518.823936 526.363452 557.018806 593.322978
48.190000 479.054166 501.548455 520.969730 528.855090 559.789922 595.077006
48.310000 480.231035 503.471934 523.233688 531.303546 561.875009 597.169917
48.410000 481.050032 504.688316 524.922453 533.035417 563.764099 598.498033
48.510000 482.143759 505.958057 527.005945 534.835466 566.208352 599.600817
48.520000 482.245516 506.141649 527.143629 535.009143 566.438112 599.723598
48.658000 485.057011 508.965826 529.202760 537.600224 571.291967 601.839870
48.796000 487.364307 510.929325 531.169037 540.231944 574.742440 604.743366
48.934000 490.352586 512.429236 533.070858 542.945151 579.122189 606.776791
49.072000 492.640182 514.451008 535.414975 545.919822 584.476251 611.800207
49.210000 494.997391 516.161876 537.865849 548.733462 588.593640 617.586613
49.343333 497.035714 517.846773 540.659219 551.504846 592.163031 625.652658
49.476667 499.233198 519.283256 543.046558 554.166969 595.256046 631.959385
49.610000 501.414957 521.026875 545.197800 556.871075 599.273059 638.152310
49.743333 503.933323 522.511663 547.705354 559.569927 602.699428 642.846087
49.876667 506.434697 523.829059 549.902328 562.287669 606.557959 652.188277
50.010000 508.750975 525.169564 552.760844 565.005287 610.638498 658.332042
50.020000 508.883863 525.349573 552.870879 565.189057 610.779883 658.470005
50.158000 510.790785 527.173524 557.846110 568.876915 615.905293 660.200655
50.296000 512.467120 528.998899 561.076377 572.653617 622.530575 664.534966
50.434000 514.796405 530.802774 565.658455 576.414496 629.931007 666.758331
50.572000 516.815471 532.870115 568.719233 580.474114 638.823954 673.114043
50.710000 518.569758 534.700192 570.965532 584.532325 648.034747 679.723913
50.843333 520.382562 536.828943 574.732393 588.250941 654.232895 686.130828
50.976667 522.556524 539.109163 581.243077 592.188036 661.122284 691.951392
51.110000 524.579942 540.633579 584.499344 596.158112 667.000931 697.203760
51.243333 526.339935 541.932933 588.713695 600.066537 673.995061 701.467789
51.376667 527.711491 543.508399 592.048312 604.117021 680.138908 705.433920
51.510000 529.559740 544.711756 593.704391 608.205203 686.386182 708.636927
51.647500 532.576063 546.641937 596.579864 613.015769 694.950133 713.141983
51.785000 535.504020 548.464134 599.185745 617.708961 703.904874 716.033687
51.922500 539.309483 550.488334 601.976042 622.348701 709.157254 719.641288
52.060000 542.229447 554.130318 603.873664 627.090043 715.355178 723.393599
52.135000 543.687814 555.842738 605.154053 628.911892 716.992933 724.761972
52.210000 545.113082 557.947524 606.855521 630.695131 718.614405 726.012774
52.340000 549.032348 567.438240 608.886402 635.095833 721.514496 728.593309
52.470000 551.853799 572.015969 611.307194 639.271325 724.501984 731.646184
52.600000 553.954446 577.991669 613.718879 643.495640 727.473344 734.273594
52.730000 556.655538 585.784823 615.890711 647.817216 730.463570 736.567066
52.860000 559.194714 592.316215 618.228025 652.004060 733.064215 738.756622
52.935000 560.322049 593.626932 619.662512 653.986976 734.659843 740.818490
53.010000 561.547412 595.886112 621.276079 655.964700 736.156938 742.389518
53.147500 567.247147 601.655074 625.118568 659.879240 739.149940 745.746349
53.285000 572.420905 606.801176 629.516677 663.840260 741.904238 750.102245
53.422500 578.566401 614.571409 635.956138 667.813818 745.168673 753.526607
53.560000 584.731170 621.367245 642.128731 671.771184 747.938398 756.448851
53.703750 588.076652 623.707382 647.868802 675.532727 750.902034 760.859094
53.847500 594.169602 625.976742 653.286956 679.255349 753.948125 763.912679
53.991250 598.791891 628.902041 660.448582 682.953418 756.840911 767.661218
54.135000 602.899611 631.036759 666.715497 686.751486 759.793880 771.090304
54.278750 606.078945 633.378037 674.321173 690.419570 763.344741 774.425447
54.422500 609.300770 635.622597 682.010613 694.026999 766.751699 778.057146
54.566250 613.032119 637.297705 687.514325 697.556801 770.160452 781.014230
54.710000 616.693166 639.503686 694.785904 701.243092 773.429895 784.768074
54.853750 620.876963 641.543932 701.865851 704.993369 776.518616 787.981104
54.997500 626.094256 643.615498 706.026391 708.653380 779.874593 790.905575
55.141250 629.868001 645.498361 714.029881 712.341692 783.264273 793.361283
55.285000 632.470394 647.858431 721.835216 715.879219 786.630386 796.094180
55.428750 636.096426 650.342259 728.282273 719.464124 789.965396 799.411734
55.572500 640.288954 652.354716 735.255951 723.191712 793.448946 802.053769
55.716250 643.069481 654.743571 739.938913 726.719149 796.619295 804.519839
55.860000 647.271330 657.194163 743.439029 730.244343 799.975967 807.040347
56.000000 651.049460 659.458998 746.601399 733.276962 802.891420 809.606947
56.140000 653.738028 661.782149 749.569708 736.397312 805.352279 812.357233
56.280000 656.432274 664.370062 752.145347 739.463384 807.817746 815.540131
56.420000 658.797130 666.932813 754.935151 742.486813 810.361160 817.012377
56.560000 660.778270 669.235150 758.666051 745.497119 812.854516 819.324693
56.701667 662.960366 671.457636 762.675848 748.926053 815.517578 822.985187
56.843333 664.750422 673.215823 765.986430 752.519427 817.958664 826.149529
56.985000 666.192224 674.863397 770.058591 755.980760 820.281814 828.240436
57.126667 668.046566 676.537414 774.857087 759.608228 822.450428 830.263227
57.268333 669.927023 678.269895 779.165056 763.075808 824.685357 832.626800
57.410000 671.822637 680.039366 783.267192 766.582892 826.939567 834.984383
57.551667 673.923381 681.874303 788.095700 770.055141 829.333305 837.217908
57.693333 676.210520 683.615252 793.801904 773.515945 831.516113 839.493807
57.835000 678.405866 685.175673 798.267701 777.081701 833.646560 841.230490
57.976667 680.307450 686.897517 802.574538 780.481326 835.480905 843.102819
58.118333 682.159120 688.597570 808.499335 783.900059 837.652291 844.857727
58.260000 683.780556 690.363235 813.683925 787.249041 839.994378 846.827159
58.401667 685.734981 691.975489 819.173066 790.629711 842.157698 849.079717
58.543333 687.380702 693.647290 824.016930 794.003983 844.104070 850.656795
58.685000 689.328094 695.613977 828.567573 797.407103 846.287214 852.514286
58.826667 691.525685 697.095571 833.802632 800.673219 848.378538 854.625773
58.968333 693.385643 698.932565 838.833438 803.949770 850.337165 856.810755
59.110000 695.088321 700.513232 842.683512 807.001922 852.875857 859.013096
59.246364 696.784014 702.190451 845.653964 809.727038 854.871013 860.752052
59.382727 698.599033 704.076432 848.832888 812.532348 856.922477 862.820835
59.519091 700.300904 705.637766 851.445885 815.273664 858.972406 864.661435
59.655455 702.122385 707.249735 854.340841 817.882548 860.952345 866.815739
59.791818 703.752762 708.870157 856.935614 820.421272 862.895772 868.733199
59.928182 705.450462 710.377875 859.353374 823.054835 865.243243 870.454726
60.064545 708.016292 712.039419 862.000325 825.692068 867.465912 872.264893
60.200909 709.730683 714.138639 864.113169 828.088394 869.498691 874.026304
60.337273 711.270830 715.814851 866.305209 830.474117 871.398029 875.917497
60.473636 712.989091 717.331256 868.407138 832.865236 873.329157 877.786761
60.610000 714.485672 719.084646 870.614446 835.132327 875.206987 879.774824
60.743333 716.095114 720.717147 872.431915 836.946597 877.100496 881.668635
60.876667 717.737233 722.490593 874.172833 838.758741 878.920645 883.420034
61.010000 719.161311 724.047810 875.981231 840.517489 880.712523 885.217638
61.110000 720.478294 725.243853 877.111032 841.787159 882.125909 886.613050
61.210000 721.605337 726.798324 878.361231 843.115570 883.354781 888.149160
61.310000 722.845536 728.342600 879.616077 844.424017 884.584893 889.650659
61.435000 724.287344 730.499982 881.237952 846.178162 886.129756 891.084633
61.560000 726.157492 732.897784 882.912385 847.976503 887.736474 893.372343
61.685000 727.758395 735.550005 884.479108 849.759836 889.184667 895.273790
61.810000 729.707053 738.384011 886.069007 851.615525 890.663763 898.292554
61.910000 731.302795 740.143858 887.477114 853.075812 891.854358 899.337159
62.010000 733.136002 742.680472 888.684378 854.555879 893.046472 902.186026
62.110000 735.193676 744.734321 889.987884 856.026561 894.238815 903.893925
62.243333 737.891678 748.547649 891.516852 857.956128 895.699351 906.539149
62.376667 741.135107 751.759871 893.017241 859.915199 897.135849 910.086543
62.510000 743.863288 755.565980 894.658136 861.935720 898.531160 912.676329
62.643333 747.245439 758.352290 896.302181 863.933134 900.287018 913.930035
62.776667 749.275630 762.383972 897.947579 865.956959 901.788676 916.333621
62.910000 752.932142 765.275521 899.409529 867.988174 903.289279 918.465189
63.043333 756.350620 768.087969 900.938389 870.115320 904.982928 921.648153
63.176667 760.127002 771.171669 902.609743 872.266892 906.569584 922.842700
63.310000 763.661335 774.798270 904.056156 874.367147 907.935961 924.558221
63.450000 765.577480 778.556478 905.722091 876.507547 909.664808 926.633279
63.590000 769.009794 782.552763 907.305390 878.818830 911.225563 928.708912
63.730000 771.408111 785.868049 908.893976 881.116454 912.764989 930.279818
63.870000 774.363185 788.818544 910.531672 883.385046 914.253087 931.447280
64.010000 778.176523 791.483463 912.199185 885.658932 916.082601 933.328839
64.143333 781.356471 794.975824 913.919725 887.989943 918.034183 934.877460
64.276667 785.784853 798.407421 915.631693 890.391697 919.924326 936.660322
64.410000 790.145301 802.388972 917.458268 892.650609 921.895823 938.097406
64.543333 794.190985 805.493597 919.208569 895.077467 923.845258 939.672704
64.676667 797.356764 809.245131 921.129086 897.561228 926.172464 941.239150
64.810000 800.704733 814.208831 923.310636 900.299071 928.327158 942.705658
64.950000 804.372507 823.316655 926.116647 904.267320 933.458590 944.626711
65.090000 808.604798 831.426891 929.093835 908.413416 938.476220 946.623022
65.230000 812.001520 838.971394 932.804181 912.613433 942.625013 949.292898
65.370000 815.446688 848.791916 936.470036 916.695598 946.640618 951.811715
65.510000 819.113044 857.799996 939.960523 920.729766 950.693314 954.758794
65.651111 822.108133 866.369437 942.117824 923.995881 953.039689 957.686172
65.792222 825.301015 875.606786 944.268606 927.145197 955.633713 960.402394
65.933333 829.239029 886.162258 946.145480 930.312798 958.179605 962.867059
66.074444 832.254529 894.525420 947.762114 933.244328 960.398600 965.795496
66.215556 834.808623 903.458669 949.430834 936.235937 962.586086 968.812876
66.356667 839.355331 913.370966 950.913724 939.343828 964.893938 970.730883
66.497778 841.847648 923.329404 952.618778 942.406833 967.386089 972.953880
66.638889 845.737058 934.266986 954.240484 945.435745 969.908532 975.483773
66.780000 848.301131 940.892949 955.851787 948.331313 972.000746 977.492070
66.895000 849.612079 942.608667 957.420002 950.230919 973.362995 979.253940
67.010000 851.330800 944.395504 958.967366 952.154705 974.785271 981.444511
67.143333 852.726402 946.116301 961.349886 954.888263 976.280998 983.536621
67.276667 854.093631 948.359140 964.007147 957.699413 977.964495 985.261863
67.410000 855.400257 949.998374 966.803137 960.544670 979.427492 986.755869
67.543333 857.002290 951.572351 969.687532 963.372054 981.034405 988.432732
67.676667 859.174029 953.050200 972.234022 966.132189 982.584613 990.592605
67.810000 860.588339 955.235976 974.660132 968.818267 984.131035 992.482060
67.927500 862.522632 957.110939 976.651095 970.884853 986.233322 994.719953
68.045000 865.093419 959.103070 978.407615 972.915269 987.892227 996.360582
68.162500 868.335072 961.606044 980.400857 974.972522 989.673322 997.635196
68.280000 873.331757 964.445945 982.210577 976.956713 991.216718 998.777275
68.413333 883.291009 967.593692 984.515764 979.352600 992.880088 1000.601778
68.546667 889.348823 971.740492 986.710314 981.763058 994.507649 1002.491220
68.680000 902.327346 974.812524 989.204929 984.226047 996.032829 1004.447350
