depth(m) lower_95(kyr) lower_68(kyr) median(kyr) mean(kyr) upper_68(kyr) upper_95(kyr)
9.720000 300.531669 301.345469 302.266669 302.291381 303.178523 304.233253
9.820000 303.985992 305.873602 308.583112 308.824276 311.915566 314.586049
9.900000 307.033504 309.547689 312.632275 312.498806 315.347492 317.354396
9.960000 309.128524 312.216189 315.314713 314.906112 317.529621 319.111773
10.030000 311.467129 315.281192 317.826971 317.442252 319.568773 321.046739
10.120000 315.200732 318.448169 320.431317 320.168516 321.823538 323.104004
10.260000 320.948325 322.430000 323.667607 323.565553 324.750545 325.747938
10.335000 322.529951 324.122869 325.259326 325.183866 326.314446 327.341908
10.410000 324.255253 325.635935 326.779541 326.723623 327.832987 328.825734
10.520000 326.554553 327.836581 328.878026 328.832077 329.837070 330.659429
10.590000 328.189806 329.329660 330.379416 330.318395 331.307012 332.048033
10.670000 330.032374 331.089035 332.230829 332.152747 333.130742 334.138420
10.750000 332.114150 333.071526 334.042420 334.045414 335.035904 336.144542
10.825000 333.907348 334.835921 335.868890 335.906342 336.939985 338.074847
10.900000 335.884149 336.837470 337.812087 337.870610 338.925216 340.280895
10.975000 337.566382 338.680136 339.840681 339.963810 341.298914 343.076363
11.050000 339.379579 340.613377 341.855098 342.030959 343.495613 345.618719
11.170000 342.138599 343.598969 345.037881 345.202388 346.912524 349.023074
11.190000 342.851791 344.218511 345.631636 345.839555 347.594165 349.860778
11.250000 344.596067 346.011130 347.622451 347.879394 349.758205 352.436984
11.370000 348.334251 350.199652 352.577537 352.959759 355.819698 359.194489
11.400000 349.254144 351.279462 353.906011 354.202131 357.193565 360.412113
11.460000 350.813716 353.263702 356.287056 356.278217 359.168116 362.354867
11.470000 351.238414 353.603697 356.623889 356.644519 359.526666 362.610220
11.580000 354.507776 357.331829 360.249100 360.269404 363.155634 365.878972
11.720000 359.432960 362.397114 365.229608 365.073313 367.767907 370.251748
11.820000 363.713235 366.328838 369.014186 369.041344 371.904315 374.466640
11.920000 367.120144 369.266343 371.976516 372.072470 374.878176 377.860199
12.030000 370.178083 372.318795 375.188070 375.221719 378.056896 380.839288
12.120000 372.540149 374.834499 377.587934 377.641863 380.558247 383.128395
12.220000 375.251138 377.588401 380.438130 380.516382 383.419054 386.172379
12.320000 378.140980 380.763054 383.847282 383.864839 386.891418 390.104199
12.420000 381.209594 384.319073 388.090223 388.099094 392.080855 394.747396
12.520000 384.506087 388.721154 393.585691 393.005747 396.915917 398.809243
12.620000 400.056292 401.432324 402.944000 403.122124 404.831307 407.208258
12.720000 403.255696 404.774005 406.470831 406.569035 408.429899 410.520616
12.833333 405.665437 407.674452 409.837297 410.024242 412.388378 415.545258
12.946667 408.467728 410.454459 413.013921 413.300820 416.132826 420.006141
13.060000 411.457339 413.623354 416.320824 416.617153 419.741539 422.913314
13.170000 415.052023 417.776448 420.873809 420.953058 424.355939 427.064281
13.280000 419.027592 422.027806 425.117290 425.097451 428.265608 430.252008
13.380000 421.938209 424.999543 427.772827 427.678375 430.540250 432.193670
13.480000 425.309022 427.798739 430.303949 430.193381 432.722862 434.351154
13.580000 428.683486 430.575708 432.742555 432.678900 434.785059 436.581156
13.640000 430.531920 432.092841 434.132950 434.119832 436.064493 437.994847
13.690000 431.710313 433.344610 435.350048 435.340077 437.206702 439.200044
13.810000 434.524072 436.132119 438.099914 438.130263 440.045830 442.158116
13.880000 436.165859 437.838548 439.910130 439.957859 441.913039 444.182364
13.950000 438.032314 439.798636 441.758543 441.926540 444.022824 446.771778
14.030000 440.117068 441.694138 443.864216 444.146367 446.343265 450.272753
14.140000 442.643791 444.568443 446.671609 447.237253 449.990811 455.017045
14.250000 445.039827 447.610295 450.547789 451.385990 455.541088 460.885067
14.360000 448.070167 451.084540 455.289150 456.002443 461.215529 466.549176
14.440000 450.866496 454.359714 459.769981 459.972516 465.609928 470.210605
14.530000 454.434261 458.708095 464.323189 464.333483 469.942101 474.075013
14.640000 458.868014 464.213217 469.867542 469.422347 474.440003 478.054233
14.750000 463.631957 470.406400 474.864401 474.263793 478.110857 481.539809
14.870000 476.466912 479.591812 481.735979 481.776823 484.072482 486.728904
14.980000 481.770228 484.020375 485.956496 486.153035 488.074181 492.686651
15.080000 484.379539 486.853101 489.170911 489.426570 491.919181 496.302019
15.180000 487.299762 489.629206 492.264867 492.581217 495.649195 499.242144
15.270000 490.370481 492.464976 495.242269 495.525735 498.636962 501.676893
15.370000 493.784512 495.949264 499.048426 499.051358 501.998993 504.225964
15.470000 497.103986 499.393183 502.755087 502.485153 505.152876 507.474742
15.570000 499.916991 502.804995 505.772420 505.997421 508.769018 515.311720
15.670000 503.021152 505.676779 508.444329 509.202606 512.285818 520.394735
15.770000 506.453712 508.973969 511.616107 512.510583 516.135977 524.019505
15.870000 509.205430 511.958567 515.153468 515.977486 520.738805 526.485374
15.970000 512.059181 514.947671 518.907643 519.646514 524.969200 528.974841
16.070000 514.938430 518.255609 523.267145 523.289173 528.241254 531.976099
16.170000 518.357802 522.619088 527.947085 527.372519 531.632936 535.510078
16.270000 521.779809 527.163197 531.948273 531.503784 535.638642 539.061749
16.370000 526.162368 531.622273 535.463874 535.360517 539.189607 542.414995
16.470000 531.241268 534.818851 538.483613 538.539815 542.403820 545.180991
16.570000 535.243164 538.120820 541.581251 541.705092 545.396626 548.036798
16.670000 538.308044 541.250730 544.743461 544.702767 548.100938 550.442120
16.770000 541.569885 544.545076 547.892798 547.787821 550.898704 553.114275
16.870000 544.464820 548.092814 551.342154 551.099650 553.977348 556.643240
16.970000 549.451591 552.483641 555.290603 555.505920 558.451032 562.259510
17.070000 553.783959 556.587377 559.648997 559.938761 563.788600 567.264946
17.170000 558.514766 561.441084 565.399621 565.226448 568.857954 571.529065
17.270000 562.678650 566.185061 570.012071 569.707164 573.008663 575.083498
17.370000 568.115558 571.479668 574.305671 573.907838 576.126528 577.668793
17.470000 572.474952 575.592337 577.768958 577.424412 579.121719 580.265947
17.570000 577.613000 579.724460 581.484606 581.671924 583.587763 587.374292
17.670000 581.226727 582.927968 585.328085 585.618768 588.372672 591.429203
17.770000 583.728423 585.884454 589.041764 589.234978 592.610595 595.401674
17.870000 586.584796 589.120945 592.661869 592.615694 596.115067 599.058064
17.970000 589.212023 592.159474 596.050281 595.962570 599.569883 602.680757
18.070000 592.094379 595.453363 599.291108 599.204935 602.723472 605.664692
18.170000 594.949311 598.734944 602.386889 602.198475 605.689496 608.602233
18.270000 597.838059 601.961678 605.685479 605.419422 608.823055 611.806797
18.370000 601.830996 605.789182 608.999501 608.871519 612.095322 614.625654
18.470000 606.343029 610.225963 612.923241 612.745783 615.339546 617.445144
18.570000 611.860156 614.464805 617.034884 616.832250 619.083023 621.139559
18.670000 618.516512 620.728156 622.577562 622.526070 624.497315 626.165811
18.770000 621.581148 623.635680 625.455472 625.489454 627.392516 629.249668
18.870000 624.555741 626.246916 628.025979 628.059254 629.827732 631.651016
18.970000 626.951606 628.633742 630.498968 630.524618 632.329794 634.180833
19.030000 628.443306 630.155124 632.121637 632.090371 633.946878 635.885140
19.070000 629.508930 631.165350 633.224775 633.207395 635.269988 637.095907
19.150000 631.471605 633.113929 635.279600 635.311757 637.525682 639.679579
19.270000 634.021041 636.054887 638.340309 638.437623 640.658942 643.456988
19.380000 637.118523 639.166654 641.543292 641.708447 644.210095 647.592574
19.480000 639.804465 642.087202 644.557010 644.861375 647.617351 651.486491
19.570000 642.067976 644.769256 647.554638 647.752346 650.798988 654.379312
19.660000 644.461406 647.375787 650.535052 650.705829 653.985386 657.894845
19.750000 647.632087 650.609893 654.109574 654.297943 658.108157 661.420276
19.850000 651.423938 654.576358 658.506378 658.771028 662.623941 668.252823
19.950000 655.303667 659.109975 663.538314 663.599541 668.248471 672.729492
20.060000 660.462657 664.343699 669.190767 669.223177 674.022996 678.582453
20.170000 664.935233 669.823002 675.275940 674.880777 679.664715 682.850570
20.280000 673.313280 678.547004 682.430923 681.936128 685.332428 687.785618
20.380000 681.202784 685.084021 687.286555 687.299132 689.727282 693.040393
20.470000 686.707183 688.923658 691.132439 691.382925 694.132692 697.005430
20.550000 689.957890 691.910694 694.508235 694.693559 697.547882 700.198489
20.630000 692.517618 695.160350 697.799221 697.792100 700.330680 702.833262
20.700000 695.355600 698.544352 701.207283 700.968117 703.422843 705.205776
20.710000 695.707216 698.901836 701.629244 701.393047 703.832100 705.543350
20.780000 698.709122 701.885034 704.275440 704.090886 706.348695 708.612574
20.850000 702.937205 705.329755 707.311018 707.300708 709.263490 711.320880
20.920000 706.464911 708.514523 710.578316 710.555802 712.608990 714.262029
21.000000 709.402057 711.610566 713.904681 713.736390 715.730859 717.498739
21.080000 711.747870 713.921201 716.658788 716.302987 718.420296 720.171068
21.160000 714.276239 716.355620 718.896844 718.685275 720.799809 722.537705
21.230000 716.498338 718.422727 721.085612 720.772994 722.767048 724.430544
21.240000 716.745016 718.832030 721.411655 721.118048 723.093923 724.714835
21.330000 719.720908 722.282641 724.102203 723.997652 725.797225 727.564265
21.410000 722.243718 724.872841 726.810363 727.001013 728.976663 732.828941
21.420000 722.709551 725.151796 727.166301 727.376158 729.495254 733.108000
21.500000 725.167053 727.303784 729.618894 730.156918 733.160822 738.065645
21.590000 727.552223 729.676134 732.635389 733.300307 736.774887 743.657814
21.670000 729.934060 732.414781 735.515808 736.198144 739.702844 748.363396
21.750000 732.452550 735.338915 738.809650 739.433679 742.829783 752.122306
21.840000 736.368924 739.785689 743.490945 744.402900 749.617063 756.544056
21.930000 741.656591 744.858835 749.512594 750.198262 755.891532 760.885285
22.030000 746.862975 752.662448 758.679663 758.217021 763.533245 767.457630
22.130000 756.341476 761.679917 766.172163 765.794984 769.981639 772.513334
22.240000 766.308281 769.563523 772.621462 772.326271 775.030348 777.146237
22.350000 771.881623 774.509320 776.851501 776.674395 778.795601 780.963160
22.460000 776.046202 778.098645 780.084772 780.039296 781.929463 783.826909
22.570000 779.193259 781.082342 783.058118 782.956021 784.774682 786.515293
22.670000 782.235088 784.147074 785.840256 785.751197 787.355684 788.892021
22.760000 785.451235 787.220325 788.823757 788.870099 790.527595 792.580912
22.850000 788.523706 790.374697 792.176192 792.357639 794.365378 797.540829
22.940000 792.575748 794.996640 797.796095 797.925467 800.919919 804.074569
23.030000 795.818341 799.484427 802.803340 802.766960 806.220521 808.916877
23.120000 800.119972 804.252100 807.667953 807.463898 810.735865 813.559224
23.220000 807.102500 810.194939 812.905910 813.146802 815.870077 822.087792
23.340000 812.306210 814.630984 817.560697 818.943645 824.560958 831.644846
23.470000 816.878645 819.645821 824.520377 825.698247 832.579374 837.456749
23.610000 821.145892 825.040662 832.824421 832.321495 838.774245 842.302355
23.750000 826.385409 832.706640 839.576959 838.315519 843.185826 845.992897
23.880000 831.582519 839.866149 843.952895 843.224157 846.841466 849.156277
23.990000 839.025564 844.334834 847.506440 847.054749 849.983455 851.874039
24.100000 844.019323 847.816769 850.640784 850.293916 852.741841 854.439794
24.200000 847.031245 850.702258 853.268800 852.914542 855.257273 856.866284
24.300000 849.546760 853.603650 855.978518 855.583587 857.728821 858.962641
24.400000 851.969719 856.102587 858.406605 858.027338 860.100861 861.431421
24.500000 854.683229 858.560959 860.793920 860.388220 862.327435 863.449065
24.610000 857.499289 861.325267 863.279894 862.890888 864.544891 865.625412
24.720000 860.740787 863.899281 865.800338 865.605857 867.417435 868.862249
24.840000 868.389523 869.639163 871.323135 871.691857 873.770342 876.847827
24.950000 871.381424 872.978805 875.193802 875.463675 877.962752 881.361115
25.060000 874.318547 876.215861 878.742588 879.031632 881.787986 885.064950
25.140000 876.805775 878.816913 881.674707 881.899064 885.050554 887.883642
25.170000 877.609910 879.803132 882.750007 882.964446 886.222468 888.716632
25.270000 880.264102 882.906476 886.000665 886.088833 889.337220 891.606087
25.370000 883.068502 885.622749 889.264164 889.038583 892.282484 894.638004
25.420000 884.836981 887.325189 891.011457 890.804395 894.043030 896.340463
25.460000 886.265440 888.885709 892.543989 892.314401 895.393999 897.594104
25.520000 888.610505 891.588628 895.012347 894.868322 897.752824 901.400588
25.620000 892.092710 895.176370 898.406080 898.366991 901.177774 905.303032
25.710000 895.201300 898.595314 901.707520 901.776653 904.945705 908.966900
25.830000 899.929159 902.981169 906.496446 906.643538 910.342276 913.859807
25.920000 903.111958 906.377135 910.523998 910.314237 914.108566 916.751263
26.020000 906.390931 910.772429 914.804325 914.350766 917.715444 919.980426
26.120000 910.867054 915.525584 918.772179 918.415822 921.302115 923.791434
26.220000 915.682982 919.117588 922.351753 921.954044 924.724303 927.252696
26.320000 919.051896 922.633630 925.642977 925.421613 928.029655 930.889273
26.420000 923.536833 926.405859 929.297456 929.273347 932.086400 935.608766
26.520000 928.011202 930.377487 933.065547 933.190037 936.006479 939.268990
26.620000 932.061174 934.440033 937.047131 937.206553 940.109390 942.809512
26.740000 936.458668 938.584511 941.368075 941.478458 944.350307 946.778653
26.760000 937.149577 939.471519 942.244582 942.319612 945.201373 947.700247
26.810000 939.823771 942.387196 945.217337 945.105549 947.786868 949.889537
26.860000 942.202757 944.546827 947.266022 947.170093 949.793428 951.609522
26.960000 946.050781 948.173668 950.616256 950.512942 952.786767 954.483605
27.060000 949.652247 951.910274 954.044197 953.836398 955.720368 957.207056
27.160000 953.032324 955.596843 957.091873 957.048239 958.550554 960.492070
27.260000 958.376110 959.155575 960.031479 960.273900 961.321943 963.713455
27.360000 960.795884 961.664706 962.884371 963.096696 964.524926 966.720646
27.460000 962.925424 964.077066 965.547706 965.768716 967.356095 969.735516
27.560000 965.320286 966.809674 968.496199 968.811150 970.677905 973.738869
27.660000 968.199570 970.051703 972.130245 972.648046 975.144463 978.859298
27.760000 971.601052 973.526871 976.344590 976.581084 979.501291 982.910560
27.860000 974.628447 977.210792 980.466294 980.669218 983.680243 988.503406
27.960000 977.744770 981.488859 984.865244 984.934616 988.424982 992.907552
28.060000 981.583942 985.325107 988.630447 988.837752 992.576070 996.981770
28.150000 984.175910 988.704317 992.648602 992.635202 996.881290 1000.494616
28.260000 988.007345 992.673524 997.356933 996.904676 1000.892022 1003.689321
28.370000 991.796544 997.818038 1001.601055 1001.169537 1004.610759 1007.651473
28.470000 997.614527 1002.381993 1005.122429 1004.960656 1007.850568 1010.663536
28.560000 1003.111309 1005.695845 1008.117818 1008.119101 1010.635833 1013.438903
28.660000 1006.568087 1009.120548 1011.672207 1011.784215 1014.308343 1017.214829
28.750000 1009.871231 1012.599547 1015.485044 1015.591452 1018.571640 1022.075092
28.850000 1013.855039 1016.795137 1019.713001 1019.833104 1023.180992 1025.687439
28.960000 1017.844829 1020.998515 1024.230515 1023.968076 1026.909801 1028.897825
29.060000 1021.823524 1025.148375 1028.149458 1027.699089 1030.211711 1031.808544
29.160000 1026.438423 1029.474850 1031.449720 1031.444850 1033.412198 1036.346899
29.250000 1031.767266 1033.314994 1034.995209 1035.338843 1037.415598 1041.242724
29.360000 1034.937629 1036.634832 1038.653397 1039.130698 1041.574716 1046.288906
29.445000 1037.203006 1039.264862 1041.807949 1042.257135 1045.218732 1050.324959
29.530000 1039.782241 1041.901030 1045.171531 1045.450630 1048.864869 1053.888965
29.560000 1040.818971 1043.190809 1046.508255 1046.762637 1050.103786 1054.803733
29.680000 1045.532809 1049.087655 1052.803373 1052.845855 1056.638311 1059.795697
29.790000 1051.033462 1055.250654 1059.237331 1058.754480 1061.871083 1063.693028
29.890000 1059.038884 1062.542797 1064.437819 1064.127988 1065.859056 1067.332406
29.990000 1064.719322 1066.518638 1067.894319 1067.942406 1069.438778 1071.102453
30.100000 1068.814831 1070.132149 1071.525179 1071.487102 1072.869661 1074.217506
30.210000 1071.848716 1073.347947 1074.753399 1074.657748 1075.957188 1077.142843
30.310000 1075.499766 1076.606103 1077.945567 1077.969644 1079.286943 1081.094667
30.400000 1078.220855 1079.386820 1080.651170 1080.850996 1082.280401 1084.606823
30.470000 1080.264684 1081.423571 1083.045294 1083.272442 1084.949056 1087.482356
30.550000 1082.351044 1084.014670 1086.152817 1086.359154 1088.747189 1091.252105
30.650000 1085.010225 1087.062800 1090.119065 1089.966114 1092.738618 1095.020925
30.770000 1089.051568 1092.775980 1095.963689 1095.510865 1098.016624 1099.954299
30.900000 1092.578147 1097.865407 1101.169606 1100.769504 1103.666179 1106.991824
31.030000 1098.208254 1102.837243 1105.903153 1106.103389 1109.902813 1113.697225
31.135000 1102.051459 1106.809301 1110.190951 1110.255889 1113.993596 1117.304928
31.240000 1107.275289 1111.483378 1114.266785 1114.346739 1117.485739 1120.790535
31.340000 1112.508653 1115.009900 1117.991666 1118.041320 1121.166509 1124.631919
31.450000 1116.220709 1118.876228 1122.050142 1122.155440 1125.386753 1128.950463
31.560000 1119.366124 1122.203728 1125.891790 1125.760288 1129.169905 1132.274581
31.670000 1122.485962 1125.674529 1129.500624 1129.294523 1132.739222 1135.475762
31.770000 1125.387064 1129.286676 1132.948480 1132.654725 1135.810810 1138.481370
31.880000 1130.697859 1134.083045 1136.912594 1137.015201 1140.058371 1143.685654
31.990000 1135.960255 1138.938168 1142.085904 1142.559281 1146.548814 1151.536849
32.120000 1140.667869 1144.792027 1149.840654 1150.096975 1154.732296 1163.816347
32.240000 1147.107949 1151.723623 1156.422511 1157.134165 1162.297677 1173.107293
32.340000 1153.066090 1156.980962 1160.909801 1162.587531 1169.843647 1178.169993
32.410000 1157.917212 1160.803397 1164.768729 1166.352442 1173.820383 1180.205183
32.470000 1161.304781 1163.932179 1168.237177 1169.454022 1176.326278 1182.209638
32.520000 1163.787233 1166.665589 1170.864115 1172.040046 1178.810848 1183.726379
32.580000 1166.893875 1170.254931 1174.607881 1175.401446 1181.675129 1185.398974
32.620000 1168.799830 1172.790764 1176.982776 1177.531385 1183.527381 1186.401507
32.690000 1172.918140 1176.267208 1181.198598 1181.098595 1185.910544 1188.071251
32.780000 1177.201931 1181.138210 1185.834905 1184.970203 1188.305800 1189.802954
32.900000 1182.974116 1187.735466 1189.885793 1189.405028 1191.249131 1192.552813
32.985000 1187.430496 1190.498957 1192.145518 1191.923318 1193.445607 1194.888983
33.070000 1191.560103 1193.006063 1194.244506 1194.238902 1195.589656 1196.944725
33.175000 1193.961369 1195.402957 1196.749579 1196.793420 1198.258974 1199.762368
33.280000 1196.657588 1197.922329 1199.309781 1199.324922 1200.763193 1202.245725
33.360000 1198.202343 1199.688233 1201.129096 1201.189089 1202.633017 1204.429108
33.440000 1200.287547 1201.605940 1203.108833 1203.137375 1204.645315 1206.419260
33.530000 1202.444054 1203.756626 1205.432788 1205.411913 1207.043795 1208.485196
33.610000 1204.589902 1206.106760 1207.800692 1207.831623 1209.538363 1211.421801
