depth(m) lower_95(kyr) lower_68(kyr) median(kyr) mean(kyr) upper_68(kyr) upper_95(kyr)
5.910000 298.628117 299.642158 300.626038 300.658101 301.634971 302.873004
6.010000 301.217755 303.439980 306.772267 310.347352 318.339237 333.938343
6.110000 303.914226 307.890301 335.884528 327.410441 340.485035 345.947365
6.190000 307.598594 319.917593 339.820826 335.230809 346.002693 351.858359
6.270000 311.047325 337.413259 344.096680 342.454401 351.047954 356.179447
6.380000 317.732973 343.127014 349.760262 348.262967 355.998342 361.051929
6.490000 328.007883 348.416826 355.049865 353.627995 360.491882 364.719816
6.600000 336.644570 353.503258 360.141151 358.849817 364.671826 369.209722
6.710000 351.416305 359.119528 364.685908 363.800924 368.745456 373.130817
6.770000 353.669118 361.392309 366.728775 366.085911 370.821764 375.475182
6.890000 359.826847 365.715653 370.676129 370.418340 375.003152 379.338614
7.010000 365.453092 370.163454 374.651568 374.678522 379.285522 383.708703
7.110000 369.105825 373.852465 378.311023 378.551295 383.489884 388.066127
7.195000 372.111705 377.143884 382.034390 382.184320 387.667445 392.693237
7.280000 375.159183 380.359982 385.589707 385.952483 392.205501 395.908493
7.390000 380.776575 386.311079 392.574374 392.155119 397.921144 401.647014
7.500000 386.942219 394.255528 399.430646 398.643595 403.078525 405.998156
7.610000 398.745915 402.410784 404.901216 404.808623 407.291802 409.966991
7.685000 401.950814 405.399865 407.916435 407.893040 410.455662 413.457536
7.760000 404.493176 408.157872 410.795478 410.858256 413.467974 417.017331
7.872500 409.112345 412.491205 415.956491 416.514896 420.490822 427.929043
7.985000 413.837494 417.244019 421.787513 422.452299 427.590103 434.485932
8.097500 418.389408 423.073605 428.350317 428.602006 434.026830 439.466482
8.210000 424.686417 429.963586 434.913086 435.119066 440.547018 446.059310
8.341250 428.388273 435.438328 442.931796 443.263730 450.820171 461.262117
8.472500 432.560015 441.145740 450.404112 451.094531 460.921581 474.413030
8.603750 436.574223 447.366387 458.648699 459.161524 470.976798 484.360463
8.735000 440.233491 454.205703 467.088540 467.677851 481.964090 496.239184
8.866250 443.784792 460.982627 475.481551 475.641111 490.060716 504.903996
8.997500 448.283404 469.231877 484.865902 483.568684 497.527721 513.375513
9.128750 452.106124 477.226868 493.327760 491.739396 505.543345 520.038546
9.260000 455.265072 484.030642 500.497468 499.435393 514.816043 525.486969
9.385000 458.675604 491.938947 507.837294 506.359349 521.635158 531.205365
9.510000 460.372818 500.690129 515.137550 513.071199 527.953872 536.076371
9.635000 464.377889 509.385033 522.777618 520.108513 533.866874 540.191090
9.760000 467.575595 517.972196 530.796566 527.034984 538.782197 544.202625
9.885000 470.690643 527.034235 537.363683 533.724155 544.130788 548.378127
10.010000 473.819104 537.354452 543.718932 540.708097 549.080171 552.723729
10.110000 476.121333 543.134313 548.948385 545.579001 553.302597 556.974292
10.210000 480.451733 548.658823 553.568669 550.439408 557.420754 561.461842
10.310000 490.318178 554.545581 559.345356 556.960336 563.508320 574.829958
10.410000 497.975257 558.404203 562.868069 560.890006 567.111474 578.565140
10.510000 511.186058 561.169713 565.666997 564.173802 569.834914 582.181997
10.610000 517.086113 564.158388 568.507652 567.327527 573.121248 584.993589
10.730000 523.746571 568.088533 572.708642 571.466145 577.591477 587.754935
10.850000 534.041928 571.046588 576.515163 575.608705 582.622954 590.957743
10.970000 547.404342 574.233016 580.474438 579.682020 587.731099 594.121228
11.090000 558.582358 577.214076 584.674871 583.663476 591.642700 597.275306
11.210000 567.075629 580.315037 588.683673 587.583257 595.236598 600.215912
11.310000 573.452671 583.509873 592.026372 590.825691 598.109455 602.812099
11.415000 576.929318 588.224465 595.186845 594.340173 600.987194 605.500292
11.520000 580.216962 592.692059 598.479849 597.834531 603.835929 607.820816
11.620000 582.998041 596.367375 601.504859 600.950539 606.460583 610.609703
11.710000 590.182945 599.215761 604.106793 603.604534 608.763091 612.329327
11.810000 594.608511 602.210579 606.951923 606.401638 611.280206 614.693467
11.910000 599.522056 605.104326 609.572061 609.110820 613.696611 616.855139
12.005000 602.833641 607.828670 611.803612 611.650271 616.035941 619.182134
12.100000 605.391354 610.342837 614.316195 614.252642 618.583718 622.131040
12.230000 609.205882 613.454274 617.397530 619.396271 624.873756 642.497521
12.360000 614.294116 617.160955 620.724594 625.217651 635.786641 660.133849
12.476667 620.898341 626.672913 638.447751 639.798638 652.835888 668.668837
12.593333 633.812626 643.949066 656.305782 655.827606 667.738267 675.273581
12.710000 655.842486 665.097882 672.237442 671.264456 677.694283 680.959706
12.810000 667.800147 673.399431 679.050563 678.148386 682.473222 684.771859
12.910000 675.645258 680.967661 684.222805 683.626975 686.247696 688.707660
13.010000 682.790278 685.485692 687.607748 687.487639 689.715086 692.403681
13.100000 685.595981 688.184061 690.293443 690.276912 692.657986 695.647912
13.210000 688.628602 690.884081 693.193805 693.351034 695.934588 699.146278
13.310000 691.041173 693.575000 695.962198 696.144687 698.806427 702.172958
13.450000 694.846305 697.456235 699.812024 699.931217 702.324727 705.403758
13.590000 698.559667 701.256031 703.577343 703.643882 705.865216 708.407055
13.730000 702.418230 704.933540 707.259428 707.405885 709.452740 712.447741
13.810000 705.177792 707.175996 709.430080 709.692443 711.616279 715.974024
13.890000 707.617538 709.387270 711.653292 712.118265 713.984315 723.780038
14.020000 710.312638 712.799008 715.362421 716.106649 718.489249 730.861841
14.150000 713.613587 716.115119 719.099995 720.035841 723.183043 735.942834
14.280000 716.831321 719.613579 722.821535 723.995334 727.408824 740.647600
14.410000 720.457342 722.958877 726.508173 727.949202 732.076129 745.494647
14.540000 723.643436 726.412661 730.083081 731.907613 736.786091 750.628607
14.670000 726.904428 729.955032 733.828651 735.914604 741.999528 754.901759
14.800000 730.779528 733.742750 737.709538 740.112588 748.492339 758.883337
14.900000 733.443682 736.852824 741.173621 743.718157 753.134706 762.127795
15.000000 737.512564 741.316186 746.462100 748.549315 757.170250 764.967499
15.100000 741.412641 746.404714 753.002888 753.750067 761.068296 767.196968
15.215000 747.212028 753.266505 760.700190 760.300444 766.162203 770.828679
15.330000 753.759945 761.074679 766.740672 766.372886 771.152930 774.743645
15.450000 759.383785 765.989379 770.962474 770.628792 774.534646 778.003423
15.570000 764.793743 770.524718 774.956755 774.727326 778.006098 781.194540
15.680000 769.076195 775.031289 778.802885 778.642471 781.346643 783.776620
15.780000 772.640215 778.767977 782.019698 781.881185 784.259412 786.547133
15.880000 776.642024 782.144495 785.164028 785.032718 787.146773 789.162350
15.980000 780.693610 785.347468 788.267675 788.148600 790.095622 792.441355
16.100000 784.725714 788.627701 791.110111 791.285487 793.120125 795.668794
16.200000 789.128293 791.801719 794.006313 794.460604 796.117956 798.843138
16.300000 792.986996 794.961738 797.081080 797.570589 799.111591 801.884726
16.400000 795.563421 797.869782 799.920337 800.464730 802.066309 804.756003
16.500000 798.650791 800.655777 802.796812 803.396755 805.135854 807.996787
16.600000 801.151322 803.607362 805.953645 806.608530 808.505615 811.752123
16.700000 804.798271 807.051219 809.948654 810.844785 813.362786 818.627693
16.800000 808.414765 810.864187 814.067318 815.270035 818.636465 824.658020
16.900000 811.474493 814.007805 817.542503 818.947082 823.198481 829.732023
17.000000 814.224105 816.988126 820.956714 822.380359 827.153738 833.839732
17.090000 816.891709 819.742265 824.233155 825.611627 830.651214 838.316722
17.175000 819.395123 822.505415 827.360667 828.709990 833.732971 841.776559
17.260000 822.150087 825.361865 830.486949 831.771057 836.868004 844.150165
17.380000 825.604176 829.776857 835.052240 836.355130 841.439787 851.396586
17.500000 830.005137 834.088426 839.802357 841.251041 846.929955 856.563933
17.600000 833.671313 838.697429 845.553364 846.899872 853.815900 860.518268
17.700000 839.170698 844.914359 852.672887 853.252448 860.691776 863.886375
17.800000 844.223243 852.180712 862.537157 860.741537 864.800379 867.458761
17.900000 862.789012 866.409161 868.048609 870.062661 872.745148 886.626491
18.000000 868.156006 869.991806 874.843940 877.016495 883.953962 892.377575
18.100000 871.836090 875.146507 882.373223 883.209692 890.148465 896.082128
18.200000 875.240437 881.806025 890.412415 890.249033 896.686920 903.416819
18.300000 882.229446 891.250220 897.862812 897.773814 903.204900 910.136602
18.400000 888.719909 900.807699 906.235636 905.978161 910.882607 914.714233
18.460000 890.727317 904.395528 910.598979 909.695160 914.536100 917.790201
18.560000 894.936145 908.968123 916.857178 915.417961 920.270978 924.034562
18.666667 900.057113 913.568236 920.192814 919.673148 923.809440 939.904634
18.773333 908.968559 918.043587 923.271626 923.901962 927.181786 954.578973
18.880000 918.018261 922.425590 926.665346 928.391857 930.448814 963.832935
19.000000 923.723455 928.122998 931.429814 933.808315 935.976281 967.655176
19.070000 925.888653 930.514679 934.090119 936.621306 939.641454 971.077917
19.200000 932.336134 935.591929 939.329758 943.905566 952.439900 976.817753
19.310000 935.854414 939.188841 942.641771 948.806646 958.909416 981.447893
19.400000 938.805712 941.774141 945.107110 953.027634 970.758272 986.151544
19.500000 942.194503 944.911381 948.132717 957.188799 975.424112 991.093029
19.600000 945.234709 948.148803 951.763193 961.018564 979.017660 994.769615
19.680000 948.098504 950.934968 954.847952 964.695022 982.256885 997.011664
19.760000 950.712691 953.930046 958.410409 968.667958 986.155607 999.645307
19.835000 954.053457 956.857926 966.689450 972.572872 991.002220 1003.251428
19.910000 957.337498 959.316016 974.244668 976.493786 995.460772 1006.721129
20.010000 960.139560 962.931625 982.737307 981.873297 1001.612752 1010.633978
20.120000 963.404118 967.386586 988.138363 988.167005 1008.582843 1015.916405
20.200000 967.027155 970.999377 991.596547 992.505414 1013.707382 1021.263041
20.300000 971.666185 975.706019 996.097404 998.035887 1020.324045 1026.792734
20.400000 976.286339 980.691246 1000.797554 1003.984915 1026.942173 1032.105970
20.480000 980.092726 985.754471 1006.545093 1011.374734 1038.114007 1050.414949
20.600000 984.689829 991.982537 1014.997826 1022.321172 1058.909596 1063.064552
20.670000 987.081985 995.401183 1018.334080 1026.410614 1063.640388 1066.294007
20.810000 993.100154 1008.607170 1023.623878 1035.127315 1071.104363 1074.958104
20.900000 996.681976 1019.328664 1027.222613 1039.765509 1076.614304 1079.914984
21.000000 1000.543299 1025.435411 1032.852243 1045.807448 1082.356266 1087.392739
21.100000 1003.775961 1031.568890 1041.043452 1051.862517 1087.591586 1092.063947
21.220000 1007.013119 1037.924376 1050.103327 1059.037426 1092.156531 1096.173627
21.340000 1011.603929 1045.932375 1058.333411 1066.363855 1096.328463 1100.026550
21.440000 1018.038754 1057.529265 1070.493886 1074.836041 1099.717425 1104.006800
21.540000 1026.294199 1075.084069 1079.982937 1083.855172 1102.916737 1107.561348
21.600000 1030.418584 1081.187156 1086.233924 1088.547584 1104.553883 1109.509621
21.700000 1037.468017 1086.353762 1095.302842 1094.055386 1107.426532 1112.153373
21.800000 1048.382026 1090.422226 1102.721696 1098.877296 1110.572491 1114.490964
21.880000 1053.603273 1094.648497 1105.394215 1102.405977 1113.441790 1116.735372
21.975000 1065.106188 1098.989131 1110.158270 1106.714924 1115.925100 1119.477509
22.070000 1085.922001 1103.496344 1113.889412 1111.021941 1118.660013 1121.841790
22.185000 1093.715809 1111.365221 1118.162926 1116.160100 1121.814225 1125.194526
22.300000 1105.965300 1117.934962 1121.979074 1120.853097 1125.071826 1127.968918
22.400000 1116.941988 1121.436401 1124.872146 1124.079598 1127.909698 1130.876440
22.500000 1120.605576 1124.520109 1127.765032 1127.110499 1130.700463 1133.749877
22.600000 1124.220363 1127.554383 1130.631992 1130.023607 1133.392554 1136.531224
22.660000 1126.319898 1129.487636 1132.466717 1131.986885 1135.288524 1138.440564
22.800000 1131.077884 1134.405578 1137.284312 1137.081571 1140.745234 1145.847996
22.933333 1135.525565 1139.413551 1143.555269 1143.705968 1149.231515 1156.448347
23.066667 1140.925833 1144.585719 1150.582405 1150.711433 1158.165289 1164.530876
23.200000 1145.154167 1150.533181 1158.959990 1157.807695 1165.115440 1170.546570
23.300000 1148.765323 1154.296559 1163.798396 1162.301124 1169.784225 1175.901022
23.400000 1151.975708 1157.495914 1167.930365 1166.309746 1175.018332 1180.519650
23.500000 1155.166510 1160.707606 1172.066051 1170.325967 1180.121060 1184.718010
23.570000 1157.360344 1162.741320 1175.023735 1173.240824 1183.768687 1188.078776
23.708333 1161.079967 1166.221101 1181.684347 1180.001133 1192.184669 1205.220573
23.846667 1165.001676 1169.809276 1189.754186 1187.356298 1204.288335 1216.021809
23.985000 1168.782198 1173.071470 1198.646415 1194.648597 1214.253037 1223.512591
24.123333 1171.877550 1176.640927 1208.669123 1202.059603 1223.341061 1228.741194
24.261667 1175.567089 1180.140463 1220.119578 1209.102219 1230.602545 1233.725147
24.400000 1179.082139 1183.208710 1230.236407 1215.800597 1235.909990 1238.102180
24.500000 1182.527835 1185.848095 1235.241382 1219.346332 1239.264503 1241.091937
24.610000 1185.883186 1188.720344 1240.193648 1223.068683 1242.216341 1243.589464
24.700000 1189.477077 1192.360510 1243.643862 1226.769564 1245.214288 1246.712986
24.800000 1192.812536 1197.278146 1246.278393 1230.672102 1248.178007 1249.869010
24.870000 1194.400809 1201.300241 1247.967289 1233.412622 1250.121341 1251.934443
25.000000 1198.290191 1210.583760 1251.245093 1238.893521 1253.547086 1255.486650
25.110000 1201.484687 1224.311386 1253.946664 1245.039884 1256.593061 1258.684910
25.220000 1204.522683 1247.540868 1256.748195 1251.245276 1259.488050 1261.562374
25.320000 1206.937534 1252.320996 1259.545548 1254.436422 1262.270042 1264.228380
25.400000 1209.779430 1255.516338 1262.101480 1257.297480 1264.718210 1266.999844
25.500000 1214.008776 1261.929366 1266.136945 1261.685518 1268.521683 1271.191715
25.590000 1218.084830 1267.500731 1270.422203 1266.495057 1273.383475 1276.320162
25.700000 1221.855020 1271.351169 1274.717907 1270.772123 1277.560512 1280.035186
25.780000 1226.214273 1274.552942 1277.871859 1274.001907 1280.337682 1282.463580
25.900000 1240.879041 1279.356622 1282.296722 1278.907261 1284.258675 1286.659858
26.010000 1246.632817 1284.198427 1286.427126 1283.725574 1288.997073 1293.123036
26.110000 1251.098694 1287.359998 1289.988894 1287.632568 1293.443008 1297.719862
26.210000 1255.671224 1290.261292 1293.446613 1291.297384 1297.609936 1301.903225
26.320000 1259.848962 1293.570616 1297.232628 1295.296402 1301.627830 1306.983056
26.415000 1263.297258 1296.399209 1300.622897 1298.740282 1305.416234 1311.614882
26.510000 1265.945051 1299.452407 1303.848606 1302.154828 1308.412503 1316.472128
26.615000 1269.121083 1303.016066 1307.410093 1305.879214 1312.438292 1321.405118
26.720000 1272.736299 1306.584069 1311.052226 1309.883022 1317.451559 1325.337962
26.810000 1277.251429 1309.663181 1314.873813 1313.597817 1321.161508 1329.329804
26.900000 1282.991416 1313.551650 1318.907239 1317.800225 1325.465775 1333.815610
27.000000 1289.252742 1318.882841 1323.461057 1323.610312 1333.402133 1341.035147
27.090000 1295.505083 1321.579559 1326.752197 1328.184720 1341.565511 1346.149068
27.210000 1310.726592 1324.961823 1330.837245 1336.688976 1357.675445 1360.759967
27.280000 1316.277194 1327.222552 1333.405108 1340.764704 1363.136952 1368.094962
27.410000 1321.269771 1331.549556 1337.901582 1346.452886 1370.154471 1375.986274
27.510000 1324.252314 1335.156161 1341.737188 1350.440234 1375.357663 1381.328893
27.610000 1326.995516 1338.470434 1346.403375 1354.841739 1379.866869 1387.805886
27.695000 1329.815086 1341.135122 1354.305857 1359.497973 1382.969455 1396.583279
27.780000 1333.212910 1343.953414 1361.472849 1363.943023 1386.159373 1402.287815
27.870000 1340.506104 1347.417243 1364.593799 1368.463921 1390.948513 1405.264812
27.990000 1347.898831 1356.984731 1368.954924 1375.853810 1402.695275 1410.365996
28.110000 1359.295117 1365.916506 1373.275689 1382.909070 1409.469240 1414.918180
28.210000 1365.480842 1371.044068 1376.993199 1387.227620 1413.632001 1418.965221
28.310000 1368.519289 1375.623921 1381.049300 1391.256707 1417.603842 1422.418851
28.410000 1371.635383 1379.607704 1385.380336 1395.726584 1422.063758 1427.425923
28.535000 1376.112302 1383.965725 1390.925513 1401.416180 1428.086287 1435.757766
28.660000 1380.391894 1388.362993 1396.073117 1406.898496 1433.783186 1442.304575
28.785000 1385.238764 1393.119489 1400.987674 1412.614102 1440.568684 1447.811453
28.910000 1389.749506 1397.565283 1405.822978 1418.186764 1447.835411 1452.249239
29.010000 1394.206220 1401.181053 1410.902005 1422.881537 1452.015825 1457.209479
29.110000 1399.058136 1404.925036 1415.346631 1427.666295 1455.935850 1461.140427
29.210000 1403.966046 1408.530968 1419.367666 1432.601157 1460.398872 1465.197273
29.300000 1408.432711 1413.375258 1422.474800 1436.688460 1463.767315 1467.926034
29.370000 1411.983029 1417.763516 1425.099730 1440.148850 1466.338955 1470.192975
29.510000 1421.840838 1427.161426 1437.755681 1448.955357 1472.628578 1477.513880
29.610000 1425.779905 1431.794813 1453.675520 1454.833658 1477.729146 1483.217027
29.710000 1431.132707 1436.619315 1470.559545 1460.427686 1482.339608 1486.898748
29.805000 1436.325961 1443.265655 1475.906157 1466.068835 1486.420194 1491.121207
29.900000 1445.505709 1449.622300 1483.665863 1471.930779 1490.405792 1496.046617
30.000000 1451.870173 1454.836201 1490.118809 1478.424404 1496.078053 1503.268865
30.090000 1455.229278 1461.367488 1493.524028 1483.669271 1501.890809 1507.955155
30.190000 1462.642913 1468.630495 1496.612092 1490.297580 1506.909497 1511.695994
30.280000 1468.116559 1477.128819 1500.018733 1496.627842 1510.336106 1515.313579
30.400000 1492.312580 1498.414028 1506.628582 1506.095356 1514.078009 1519.013335
30.510000 1500.016950 1507.393207 1513.439000 1512.638780 1518.042269 1522.762256
30.610000 1506.731132 1515.563340 1519.598416 1518.765004 1522.444272 1525.806329
30.710000 1512.826199 1520.791075 1524.425427 1523.799139 1527.104467 1530.485672
30.810000 1517.318073 1526.213983 1528.981485 1528.933204 1532.393158 1538.394155
30.870000 1522.526848 1528.714442 1531.786876 1531.883075 1535.799102 1541.247866
31.010000 1528.321939 1534.968655 1539.430152 1538.946572 1543.172320 1546.384761
31.110000 1533.025172 1540.247702 1544.426894 1543.778958 1547.302297 1550.230090
31.220000 1540.643263 1545.263409 1548.393024 1548.108490 1551.265699 1553.885797
31.310000 1543.924902 1548.113089 1551.376002 1551.186695 1554.291213 1556.933130
31.410000 1547.808371 1551.674875 1554.830800 1554.645541 1557.565582 1560.262154
31.510000 1550.782239 1554.769089 1557.924670 1557.874733 1560.801837 1563.377202
31.600000 1553.621830 1557.844455 1560.999334 1560.977120 1563.895693 1566.726485
31.690000 1557.436455 1561.054126 1564.041014 1564.050092 1566.884716 1569.526293
31.780000 1560.995581 1564.099756 1567.063207 1567.067795 1569.546411 1571.902579
31.910000 1566.446159 1569.120318 1571.368146 1571.560656 1573.662257 1576.798593
32.010000 1570.253371 1572.406318 1574.525100 1574.879712 1577.015929 1579.975742
32.110000 1573.455012 1575.660183 1577.865974 1578.281317 1580.548729 1583.731339
32.210000 1576.737697 1579.148655 1581.586508 1582.095373 1584.765659 1588.322957
32.290000 1579.708585 1582.344910 1585.162842 1585.775234 1588.894915 1593.044806
32.370000 1582.392060 1585.692107 1589.276652 1590.229573 1594.293671 1602.823375
