depth(m) lower_95(kyr) lower_68(kyr) median(kyr) mean(kyr) upper_68(kyr) upper_95(kyr)
56.235000 302.790966 303.759450 304.768866 304.748482 305.677235 306.608441
56.360000 303.593556 304.794495 305.889841 305.975759 307.150108 309.089886
56.485000 304.321722 305.711418 306.987501 307.162027 308.595117 310.800525
56.610000 305.312606 306.632793 308.216683 308.445418 310.286504 312.849676
56.735000 306.280831 307.651972 309.499369 309.702237 311.645561 314.379691
56.860000 307.047506 308.742333 310.853497 310.986215 313.190080 315.733522
56.985000 308.140321 309.853539 312.067828 312.225392 314.632494 317.299050
57.110000 309.009084 310.995515 313.369681 313.459736 315.931741 318.505249
57.235000 310.207090 312.147343 314.613861 314.680935 317.203650 319.396186
57.372500 311.411376 313.650693 316.132165 316.042924 318.480427 320.222053
57.510000 312.945939 315.016498 317.440316 317.366893 319.706861 321.351245
57.647500 314.328236 316.409140 318.749960 318.620617 320.803028 322.107922
57.785000 315.714555 317.842413 320.002819 319.880929 321.917638 322.951442
57.885000 316.830973 318.761751 320.897067 320.748937 322.593106 323.700783
57.985000 318.293938 319.871203 321.761534 321.622457 323.245550 324.350495
58.085000 319.574741 321.057613 322.652845 322.578553 324.037372 325.213583
58.185000 320.655420 322.280329 323.637521 323.563345 324.852386 326.089095
58.285000 321.764470 323.347814 324.602793 324.561296 325.774900 326.974738
58.385000 323.112705 324.377212 325.499675 325.479877 326.597227 327.674953
58.485000 323.917790 325.178588 326.265572 326.264982 327.404948 328.521221
58.585000 324.852921 325.917931 327.010471 327.040253 328.173797 329.329163
58.685000 325.536516 326.632262 327.743261 327.753111 328.898316 329.988605
58.785000 326.380046 327.338100 328.459704 328.455295 329.563823 330.599116
58.885000 327.080157 328.056086 329.200250 329.178424 330.274427 331.200727
58.985000 327.832262 328.837769 330.022801 329.962976 331.063542 331.922628
59.085000 328.615703 329.731140 330.837659 330.789972 331.843840 332.889546
59.185000 329.389370 330.699319 331.785961 331.768505 332.822911 333.961364
59.285000 330.403926 331.696790 332.833925 332.750092 333.781669 334.824126
59.385000 331.329036 332.700686 333.816435 333.806938 334.993731 336.047251
59.485000 332.620362 333.763893 334.786543 334.819172 335.952607 337.087177
59.618333 333.547180 334.919562 335.974234 335.997946 337.193169 338.251369
59.751667 334.767202 335.870314 337.133650 337.114878 338.309476 339.162186
59.885000 335.804901 336.990564 338.270016 338.164949 339.236907 340.175903
59.985000 336.530645 337.733383 338.987762 338.852888 339.872421 340.932825
60.085000 337.114652 338.351608 339.654178 339.473595 340.417395 341.537751
60.185000 337.672099 338.891474 340.206064 340.034947 340.940455 342.034166
60.285000 338.203412 339.400180 340.738363 340.563951 341.459067 342.498686
60.410000 338.838981 340.075805 341.401258 341.197863 342.081158 343.078280
60.535000 339.428700 340.636193 341.981992 341.806243 342.667621 343.609561
60.635000 339.924580 341.129000 342.477474 342.288507 343.139159 344.233418
60.735000 340.392602 341.580644 342.966292 342.764712 343.611198 344.722537
60.835000 340.843557 342.083133 343.436287 343.234239 344.087661 345.191901
60.935000 341.282571 342.563062 343.896266 343.705364 344.517795 345.670521
61.035000 341.755503 343.034789 344.373949 344.171630 344.977253 346.136248
61.135000 342.248560 343.483875 344.836604 344.631374 345.403047 346.512253
61.235000 342.789437 343.897447 345.278733 345.088070 345.841326 347.028543
61.335000 343.266082 344.376903 345.753172 345.550547 346.331967 347.498178
61.460000 343.770506 344.900969 346.306950 346.122171 346.896233 348.008634
61.585000 344.505774 345.474547 346.881378 346.689557 347.466075 348.588969
61.710000 345.033262 346.052769 347.442834 347.253340 348.015694 349.248494
61.835000 345.580785 346.637506 348.001804 347.826558 348.555104 349.690002
61.935000 346.056899 347.046348 348.446097 348.277644 348.989002 350.319826
62.035000 346.503765 347.520359 348.890481 348.737375 349.469401 350.712795
62.135000 346.958672 347.998521 349.329636 349.208867 349.944758 351.377676
62.235000 347.448743 348.516959 349.781368 349.668183 350.354045 351.915748
62.335000 347.956755 348.982163 350.228019 350.121507 350.769850 352.684357
62.435000 348.431112 349.517527 350.688965 350.579289 351.205973 353.267224
62.535000 348.858757 350.028777 351.134822 351.029360 351.655668 354.024700
62.635000 349.301817 350.567323 351.586931 351.488593 352.106134 354.525683
62.735000 349.768173 351.019007 352.024467 351.950894 352.558690 355.023257
62.835000 350.261398 351.534347 352.467718 352.407836 352.988780 355.586677
62.935000 350.748707 352.006593 352.902029 352.871777 353.487167 356.052376
63.035000 351.152372 352.496799 353.351777 353.333805 353.961671 356.650404
63.135000 351.564078 352.955156 353.806746 353.800253 354.392003 357.084415
63.235000 352.020872 353.470401 354.274588 354.269592 354.883079 357.808260
63.335000 352.479408 353.974143 354.712597 354.740814 355.301721 358.398589
63.435000 352.939916 354.417701 355.166582 355.213263 355.765916 358.839996
63.535000 353.448850 354.876419 355.622137 355.689044 356.267623 359.321525
63.635000 353.930658 355.357180 356.093871 356.175853 356.769134 360.145302
63.735000 354.399473 355.805047 356.549899 356.656328 357.267063 360.703068
63.835000 354.855815 356.279165 357.022178 357.148129 357.777708 361.388004
63.935000 355.405812 356.746556 357.502104 357.643626 358.284076 361.923535
64.035000 355.834495 357.250087 357.998115 358.168656 358.818872 362.528633
64.135000 356.363905 357.741002 358.489482 358.685529 359.341130 363.339039
64.235000 356.923846 358.228329 358.985516 359.216243 359.928614 363.958020
64.335000 357.485392 358.724313 359.458168 359.748823 360.560505 364.383106
64.435000 358.029850 359.203063 359.986796 360.305727 361.288127 365.007242
64.535000 358.531897 359.716238 360.499912 360.858866 361.780527 365.642476
64.635000 359.137669 360.254991 361.047675 361.440465 362.453259 366.314719
64.735000 359.705412 360.798071 361.586197 362.030411 363.348984 367.007911
64.835000 360.283395 361.313828 362.151783 362.631498 364.049028 367.632802
64.935000 360.934379 361.841739 362.703233 363.226720 364.829649 368.221607
65.035000 361.527928 362.373899 363.241950 363.819960 365.623295 368.830608
65.135000 362.060557 362.914931 363.817971 364.443786 366.404012 369.479953
65.235000 362.672443 363.433049 364.431607 365.062621 367.113825 370.139528
65.335000 363.275142 363.968915 365.033856 365.693153 367.789862 370.902826
65.435000 363.694801 364.488129 365.637182 366.329064 368.559204 371.681249
65.535000 364.284447 365.050950 366.263741 366.984460 369.720453 372.399420
65.635000 364.817446 365.641858 366.878823 367.648344 370.659592 372.991085
65.735000 365.350418 366.276074 367.580878 368.359615 371.522295 373.726681
65.835000 365.924282 366.982425 368.343732 369.091110 372.299338 374.308701
65.935000 366.599702 367.647617 369.055704 369.823194 373.117094 374.811344
66.035000 367.297971 368.380792 369.870350 370.579607 373.720155 375.379178
66.135000 368.112028 369.156850 370.598816 371.355562 374.403354 375.953004
66.235000 368.814404 370.000715 371.586252 372.172728 375.168266 376.569441
66.335000 369.595812 370.708071 372.449064 372.951846 375.846822 377.012105
66.460000 370.570821 371.643296 373.567210 373.949732 376.710281 377.864209
66.585000 371.416623 372.576335 374.733466 374.940347 377.553773 378.709003
66.685000 372.018343 373.396494 375.658695 375.727707 378.190094 379.327197
66.785000 372.898817 374.128008 376.472813 376.485761 378.878653 380.206957
66.885000 373.466381 374.779178 377.380506 377.221094 379.483743 380.742840
66.985000 374.152976 375.445708 378.262319 377.981607 380.072717 381.627723
67.085000 374.886410 376.321724 379.115661 378.774212 380.708065 382.549266
67.185000 375.521975 377.097913 379.889895 379.581683 381.503627 383.604651
67.285000 376.267266 377.910718 380.714836 380.403641 382.333621 384.568648
67.385000 376.919535 378.928721 381.548755 381.324038 383.263415 385.460233
67.485000 377.717257 380.032779 382.493370 382.279708 384.243748 386.371170
67.585000 378.452889 381.052337 383.410599 383.266990 385.280587 387.515070
67.685000 379.535275 382.168481 384.402808 384.292274 386.342884 388.664814
67.810000 380.930146 383.661560 385.700211 385.745211 387.935075 390.239790
67.935000 382.622510 385.105460 387.216172 387.279822 389.517647 391.794319
68.060000 383.972573 386.574812 388.754040 388.778607 391.134206 393.254230
68.185000 385.830010 388.160811 390.277805 390.295188 392.651857 394.518967
68.285000 387.169399 389.196764 391.464999 391.407052 393.651743 395.563098
68.385000 388.394539 390.392197 392.610647 392.551636 394.790442 396.566813
68.485000 389.464448 391.640019 393.803683 393.708192 395.876771 397.575930
68.585000 390.410222 392.867670 395.048356 394.942595 397.057973 398.605524
68.685000 391.589265 394.252296 396.354705 396.275872 398.295269 399.949561
68.785000 393.195575 395.789684 397.880734 397.669165 399.642845 401.056506
68.918333 394.919901 397.726563 399.706305 399.601368 401.592175 403.450595
69.051667 397.637428 399.725648 401.439989 401.453246 403.254237 404.963332
69.185000 400.434451 401.604046 403.142560 403.198773 404.762709 406.493182
69.285000 401.341986 402.635416 404.135912 404.235274 405.865899 407.675924
69.385000 402.214031 403.657935 405.115756 405.205746 406.837331 408.536820
69.485000 403.065796 404.390797 405.992498 406.049623 407.705056 409.283345
69.585000 403.865428 405.220479 406.857452 406.858281 408.551620 410.033946
69.715000 404.720948 406.213885 407.873656 407.893615 409.610208 411.265839
69.845000 405.766712 407.139119 408.905530 408.878854 410.689809 412.052893
69.975000 406.843401 408.185156 409.906928 409.917781 411.660019 412.962361
70.105000 407.918040 409.310974 410.959355 410.949321 412.572862 414.059986
70.235000 408.854961 410.422810 412.105455 412.023948 413.627997 415.081200
70.335000 409.934863 411.460233 413.008400 412.971028 414.477212 416.059905
70.435000 410.808415 412.440561 413.976020 413.962112 415.513234 417.081027
70.535000 411.925715 413.383734 414.877309 414.945798 416.518629 418.058660
70.635000 412.819418 414.384951 415.928804 415.963502 417.562884 419.118917
70.735000 413.957287 415.387761 417.137927 417.120572 418.717489 420.399772
70.835000 414.898766 416.530971 418.337116 418.227539 419.891127 421.415262
70.935000 415.785900 417.542126 419.352916 419.247225 420.902063 422.347557
71.035000 416.728228 418.506312 420.337932 420.230261 421.877674 423.282269
71.135000 417.452528 419.516843 421.285574 421.152421 422.792976 424.368487
71.235000 418.315116 420.347745 422.129428 422.033075 423.716930 425.095121
71.335000 419.069915 421.215890 422.997906 422.861198 424.540150 425.771179
71.435000 419.942544 422.095039 423.836949 423.679159 425.331024 426.467385
71.535000 421.045261 422.939815 424.707684 424.513799 426.107933 427.077343
71.668333 422.271092 424.316094 426.008666 425.801908 427.269652 427.953176
71.801667 424.139792 425.855885 427.357968 427.072018 428.225779 428.821748
71.935000 425.982845 427.395413 428.469954 428.283493 429.058718 429.496590
72.035000 426.991467 428.299526 429.179119 428.988756 429.598264 430.004261
72.135000 427.951480 429.073247 429.775398 429.649816 430.139423 430.528528
72.235000 428.851736 429.849529 430.303953 430.233694 430.625122 430.875081
72.335000 429.794516 430.495554 430.830809 430.794176 431.051571 431.307143
72.435000 430.667668 431.139844 431.321898 431.330667 431.507648 431.640897
72.535000 431.826957 431.839395 431.850150 431.891383 431.860344 431.875653
72.535500 431.830468 431.842941 431.853482 431.894991 431.864556 431.881331
72.635250 432.085288 432.252869 432.423464 432.571737 432.861200 433.756194
72.735000 432.461780 432.703687 432.997305 433.225898 433.737433 434.937194
72.835000 432.885885 433.204568 433.634374 433.878957 434.596260 435.873842
72.935000 433.336849 433.700177 434.258711 434.494258 435.358444 436.490341
73.035000 433.821787 434.234728 434.928603 435.128459 436.041831 437.436530
73.177857 434.422643 434.969432 435.801035 435.965460 436.971227 438.439592
73.320714 435.063083 435.642196 436.630424 436.744935 437.801464 439.369345
73.463571 435.674674 436.373168 437.421158 437.544794 438.660871 440.278579
73.606429 436.308104 437.091831 438.203662 438.320889 439.468518 441.042265
73.749286 436.922653 437.859531 438.967612 439.088644 440.334675 441.880227
73.892143 437.458884 438.591469 439.722054 439.829725 441.056109 442.717860
74.035000 438.064960 439.335215 440.461354 440.568933 441.891621 443.441370
74.168333 438.632292 440.013664 441.200247 441.267191 442.640313 444.154845
74.301667 439.178600 440.649954 441.872117 441.954405 443.324359 444.868755
74.435000 439.671646 441.291284 442.599375 442.647732 444.025266 445.542517
74.510000 440.041725 441.690956 443.044928 443.081724 444.477823 446.003166
74.585000 440.371343 442.181899 443.496843 443.532358 444.905655 446.478089
74.705000 440.986620 442.854384 444.257532 444.253512 445.692653 447.377267
74.825000 441.510544 443.530723 444.929410 444.948248 446.524874 448.123264
74.945000 442.134277 444.194727 445.594420 445.628700 447.300977 448.644478
75.065000 442.812625 444.853032 446.290317 446.314181 448.020177 449.341681
75.185000 443.468037 445.544119 446.964037 447.025185 448.827768 449.971670
75.285000 444.001371 446.091426 447.585254 447.627671 449.382522 450.544392
75.385000 444.466529 446.651129 448.251429 448.242112 450.033499 451.206666
75.485000 445.133833 447.241868 448.897457 448.884330 450.625393 451.802800
75.585000 445.608869 447.771813 449.518486 449.485300 451.235596 452.321741
75.685000 446.130646 448.369372 450.173725 450.091013 451.848300 452.916921
75.785000 446.694964 448.982050 450.859835 450.697134 452.445460 453.538290
75.885000 447.272480 449.495278 451.541231 451.287447 453.044034 454.064218
75.985000 447.837842 450.062694 452.226733 451.864886 453.642459 454.574981
76.085000 448.168234 450.583890 452.830737 452.417130 454.179999 455.143512
76.218333 448.941789 451.238527 453.535772 453.115347 454.899301 455.828123
76.351667 449.835851 451.839554 454.240946 453.804323 455.607756 456.504423
76.485000 450.637560 452.449722 454.988468 454.482763 456.273612 457.146094
76.618333 451.451318 453.105945 455.689852 455.159804 456.891192 457.919554
76.751667 452.130968 453.765652 456.408990 455.850278 457.586628 458.698813
76.885000 452.739792 454.390634 457.119221 456.536030 458.296000 459.549093
76.985000 453.580572 454.914028 457.622525 457.086822 458.837984 460.040828
77.085000 454.210201 455.459926 458.156541 457.619502 459.402377 460.626330
77.185000 454.832963 455.953824 458.738510 458.176785 459.938238 461.460226
77.285000 455.427811 456.465229 459.292448 458.743680 460.579723 462.076288
77.385000 455.974379 456.924283 459.867575 459.297683 461.168110 462.762880
77.518333 456.591513 457.576625 460.560703 460.033555 461.982116 463.805506
77.651667 457.345325 458.254705 461.240329 460.780670 462.891842 464.815623
77.785000 457.965281 458.895373 461.958510 461.538506 463.856175 465.570199
77.885000 458.506952 459.435186 462.564041 462.154256 464.589700 466.332644
77.985000 459.024714 459.973214 463.143220 462.789373 465.304709 467.100085
78.085000 459.610664 460.547261 463.734890 463.426308 466.173432 467.774017
78.185000 460.118802 461.146495 464.308227 464.068973 466.905147 468.471589
78.285000 460.754907 461.749145 464.905202 464.734471 467.712482 469.106101
78.385000 461.378675 462.297104 465.445374 465.389445 468.374832 469.668296
78.485000 461.922434 462.888828 466.043197 466.080410 469.119449 470.385848
78.585000 462.507119 463.590294 466.685926 466.758566 469.841307 471.003002
78.685000 463.170411 464.270269 467.342183 467.430594 470.452824 471.566516
78.785000 463.774704 464.921696 467.975273 468.103828 471.077608 472.110315
78.885000 464.460078 465.735210 468.667005 468.793587 471.669074 472.715927
78.985000 465.118055 466.517285 469.300164 469.490969 472.310632 473.420622
79.085000 465.726563 467.393328 469.928303 470.182255 472.887360 474.039008
79.185000 466.396900 468.274481 470.672081 470.896145 473.579475 474.663530
79.285000 467.123671 469.094672 471.493070 471.595703 474.134834 475.251299
79.385000 467.864863 469.920145 472.148823 472.272650 474.717141 475.796045
79.485000 468.932131 470.687466 472.832677 472.934287 475.237983 476.388495
79.585000 469.798487 471.502828 473.727489 473.656117 475.804827 477.008187
79.685000 470.757720 472.296099 474.509138 474.386014 476.399603 477.617459
79.760000 471.410794 472.910018 475.211520 474.963489 476.901241 478.117182
79.835000 472.139866 473.453226 475.789853 475.571475 477.407150 478.726694
79.925000 472.958507 474.430412 476.695462 476.418538 478.112021 479.594192
80.015000 473.735262 475.400902 477.491240 477.308265 478.937612 480.410972
80.121667 474.860859 476.803887 478.693773 478.572439 480.214656 481.850812
80.228333 476.443463 478.172951 479.749734 479.799854 481.471307 483.158566
80.335000 477.812612 479.534884 480.978510 481.052181 482.627770 484.364941
80.435000 479.100792 480.557414 482.115653 482.162662 483.751334 485.516173
80.535000 480.232035 481.642192 483.033058 483.213596 484.960261 486.665953
80.635000 481.274261 482.674229 484.076084 484.330861 486.183812 488.244269
80.735000 482.350212 483.584139 485.085809 485.383828 487.338393 489.115462
80.835000 483.319275 484.459079 486.099890 486.332497 488.416048 489.959842
80.935000 484.064518 485.186992 487.149572 487.260177 489.414108 490.849368
81.035000 484.683073 485.896673 488.145340 488.101015 490.338108 491.891865
81.135000 485.607857 486.613803 489.083733 488.932812 491.197718 492.696948
81.235000 486.242032 487.237346 489.913092 489.686723 491.993974 493.422456
81.335000 486.963976 487.912726 490.670160 490.403954 492.713909 494.083274
81.435000 487.526655 488.557408 491.443792 491.138916 493.490172 494.743355
81.535000 488.141788 489.213481 492.306189 491.872252 494.232910 495.435103
81.635000 488.672788 489.874365 493.030195 492.592200 494.989559 496.313735
81.735000 489.250086 490.575993 493.911478 493.375983 495.730112 497.217209
81.835000 489.891958 491.304757 494.703560 494.175666 496.427475 498.218222
81.935000 490.509887 492.038623 495.581093 495.006089 497.294959 498.870574
82.035000 491.152334 492.849492 496.386182 495.809600 498.052876 499.678612
82.135000 491.992564 493.709687 497.211851 496.662833 498.915144 500.438714
82.235000 492.800372 494.630941 497.929826 497.479244 499.671390 501.180188
82.335000 493.589753 495.386330 498.721211 498.272751 500.389018 501.996474
82.435000 494.244772 496.349024 499.497741 499.105956 501.153494 502.661889
82.535000 495.182134 497.538102 500.242477 499.929125 501.966326 503.333332
82.635000 495.832538 498.721709 501.070178 500.782215 502.721149 504.080124
82.735000 496.646147 499.811003 501.875563 501.604259 503.411474 504.852025
82.835000 497.606363 500.795443 502.657818 502.413258 504.177430 505.589548
82.935000 498.674450 501.675332 503.467061 503.235194 504.848453 506.351990
83.035000 499.728752 502.457945 504.239587 504.030464 505.626907 507.008925
83.135000 500.697212 503.426773 504.970650 504.840630 506.373098 507.935416
83.235000 501.955688 504.279897 505.751996 505.677387 507.105897 508.711691
83.335000 502.987055 505.090524 506.519345 506.494298 507.868778 509.434466
83.435000 503.932817 505.809732 507.299912 507.254089 508.652168 510.150396
83.535000 504.909984 506.600696 508.008648 508.017497 509.457544 510.923456
83.635000 505.662515 507.271083 508.773130 508.778179 510.238747 511.477526
83.735000 506.614508 507.998060 509.573959 509.529643 511.018781 512.237742
83.868333 507.627096 508.964733 510.449165 510.476748 511.904912 513.248359
84.001667 508.623879 509.925443 511.352826 511.413384 512.748901 514.399278
84.135000 509.585527 510.943673 512.291956 512.352718 513.627160 515.386118
