depth(m) lower_95(kyr) lower_68(kyr) median(kyr) mean(kyr) upper_68(kyr) upper_95(kyr)
6.170000 298.312013 299.129657 299.956244 299.954935 300.745651 301.665724
6.220000 299.780081 300.534469 301.443013 301.491471 302.399704 303.540994
6.270000 301.065960 301.832050 302.909805 302.960830 303.956375 305.504403
6.320000 302.240021 303.202451 304.285941 304.397663 305.548158 307.199592
6.340000 302.766829 303.756985 304.879756 305.034709 306.304993 308.148457
6.390000 303.967994 304.980828 306.244218 306.468055 307.879576 310.223462
6.440000 305.158608 306.387998 307.679311 307.996453 309.586546 312.713065
6.490000 306.529320 307.846969 309.365693 309.712194 311.723438 314.677326
6.540000 308.045371 309.444240 311.276432 311.696644 314.326208 316.596813
6.590000 309.684443 311.401244 313.635337 313.916453 316.717510 318.650666
6.640000 311.512607 313.485425 316.346213 316.214897 318.777115 320.383091
6.690000 313.375292 316.159458 318.827346 318.439665 320.508405 321.728584
6.740000 316.027449 319.096025 320.879996 320.577865 322.147469 323.149365
6.790000 319.520431 321.495872 322.801747 322.662603 323.910621 325.005018
6.840000 322.126900 323.283484 324.373819 324.368671 325.462719 326.592031
6.890000 323.854590 324.809066 325.795084 325.840117 326.877926 328.008662
6.940000 325.162322 326.233570 327.220655 327.218838 328.229132 329.244573
6.990000 326.521098 327.564967 328.589014 328.578250 329.604636 330.519998
7.040000 327.918223 328.981656 329.951399 329.939949 330.872994 331.863899
7.090000 329.232764 330.434567 331.425897 331.380047 332.315401 333.162380
7.190000 332.415890 333.453911 334.460594 334.499157 335.555369 336.606625
7.290000 335.908292 336.938514 337.965455 338.048238 339.149213 340.517056
7.340000 337.517973 338.436600 339.619692 339.698073 340.945886 342.531364
7.390000 338.826419 339.871252 341.000784 341.133468 342.453049 344.036261
7.440000 340.047734 341.226240 342.380377 342.506860 343.854147 345.658802
7.490000 341.420948 342.502352 343.684808 343.813809 345.091941 346.844254
7.590000 343.474456 344.782879 346.106685 346.192458 347.579128 349.666891
7.640000 344.727318 345.939379 347.412812 347.516673 349.000749 351.206909
7.690000 346.026461 347.197388 348.818003 348.946309 350.572800 352.750130
7.740000 347.188248 348.613267 350.275952 350.444846 352.243939 354.795817
7.790000 348.552670 349.938661 351.889650 352.068136 354.053407 356.694674
7.840000 349.993118 351.574877 353.597011 353.856211 356.185755 358.792037
7.890000 351.318161 353.191981 355.390543 355.695421 358.318416 360.697787
7.940000 352.851999 355.047148 357.420984 357.618913 360.485276 362.809977
7.990000 354.558810 356.869851 359.455562 359.680584 362.501330 365.510247
8.040000 356.016673 358.730014 361.505798 361.674737 364.709429 367.966662
8.090000 357.745606 360.642618 363.692448 363.828317 367.004774 371.208355
8.190000 361.934025 364.805315 368.408456 368.695342 372.572894 377.340476
8.290000 368.020561 372.202914 377.067839 377.161613 381.983129 387.446539
8.390000 375.388187 379.756059 384.709084 384.608037 389.207799 394.118626
8.490000 380.984694 386.825384 392.055192 391.454932 396.127296 398.609207
8.590000 392.514906 397.750031 400.508189 400.432749 403.136819 407.546842
8.690000 400.553454 403.289353 406.302690 406.315059 409.373197 411.927639
8.790000 405.206258 408.925330 411.694167 411.477501 413.987520 416.490080
8.890000 411.762079 414.343395 416.520289 416.614299 419.044716 421.713405
8.990000 417.246949 419.577510 422.168853 422.128558 424.702895 426.388600
9.090000 423.014334 426.299304 428.253275 428.075908 429.859141 431.666244
9.190000 427.928150 430.208152 431.804791 431.836902 433.652483 435.665317
9.290000 430.999209 432.931965 434.702571 434.780939 436.664410 438.676630
9.390000 434.085406 435.995101 437.702085 437.820253 439.768864 442.071361
9.440000 435.747495 437.640724 439.470861 439.623356 441.725094 444.224424
9.540000 439.314065 441.020403 443.236446 443.613822 446.127681 450.611631
9.640000 442.166343 444.353928 447.249638 447.815606 451.449278 457.145202
9.740000 445.182371 447.678625 451.502599 452.169661 456.751829 462.721805
9.840000 448.590707 452.001635 456.996978 457.330630 462.641158 468.410675
9.940000 452.537821 457.607622 463.444178 463.262715 468.912055 472.580905
10.040000 458.566241 464.881238 470.542506 469.738086 474.558937 476.843761
10.140000 467.353628 473.048022 477.128865 476.409869 479.513645 482.266518
10.240000 477.684354 480.280165 482.759341 482.935066 485.564515 489.218086
10.340000 482.042870 484.557077 488.064308 488.323157 492.053609 495.475736
10.440000 485.147719 488.441231 493.238172 492.838591 496.756350 499.533880
10.540000 488.382741 492.746058 497.319786 496.814979 500.575732 503.177222
10.640000 492.850592 497.553999 501.215295 500.808062 504.037778 506.452397
10.740000 498.140712 502.365672 505.198867 505.087245 507.697012 511.587302
10.840000 504.622362 507.159959 509.404468 509.844489 512.425778 518.237947
10.940000 508.557494 510.617543 513.367510 514.042910 517.392104 523.558609
11.040000 511.641494 514.195673 517.649294 518.191760 522.407982 527.237308
11.140000 515.380070 518.301434 522.488240 522.691036 527.225781 530.761472
11.240000 518.903574 523.008496 527.469600 527.418675 531.714439 535.208026
11.340000 524.094220 528.466557 532.448775 532.328668 536.224480 540.601704
11.440000 530.143583 533.826377 536.944826 537.330196 541.350286 545.269209
11.540000 535.035785 538.145727 541.510749 541.877387 546.197746 549.518141
11.640000 538.790283 542.272588 546.471092 546.239420 550.114713 552.721344
11.740000 543.348520 547.004221 551.477636 550.861912 554.297100 556.690178
11.840000 547.822602 552.105810 555.633567 555.423385 558.589244 561.895031
11.940000 554.295242 558.000705 560.717843 560.807689 563.717602 567.394912
12.040000 559.817364 562.490036 565.766842 565.876863 569.207708 572.515694
12.140000 564.576893 567.835304 571.123881 571.104185 574.191481 577.686350
12.240000 569.209288 572.647837 576.304782 576.053601 579.141317 581.820346
12.340000 573.989581 578.701200 581.274964 581.475229 584.445168 589.565798
12.440000 580.784113 583.139382 586.275624 586.544985 589.914975 594.010363
12.540000 584.116557 587.336841 590.961633 591.064791 594.900642 599.223377
12.640000 587.604213 591.546206 595.351791 595.497084 599.294814 604.747997
12.740000 591.445801 595.609638 599.640179 599.774846 603.784391 609.020516
12.820000 594.402232 598.951944 603.073434 603.209848 607.381610 613.107906
12.840000 595.659471 599.798211 604.224526 604.239737 608.333286 613.902860
12.920000 600.156479 603.996132 608.689409 608.795523 613.981928 617.583396
12.940000 601.423071 605.083662 609.814655 609.940256 615.149353 618.448705
13.020000 605.989578 610.072819 616.056589 615.188158 619.813957 621.688483
13.040000 607.054041 611.336339 617.376034 616.395600 620.715239 622.402671
13.120000 620.470598 622.139519 623.765392 623.776962 625.320826 627.542977
13.140000 621.586984 623.090198 624.565088 624.668652 626.098731 628.411070
13.220000 624.395320 625.895680 627.530766 627.617167 629.329181 631.462336
13.320000 626.951536 628.748125 630.543995 630.693032 632.725755 635.008786
13.420000 629.577123 631.463603 633.564964 633.644420 635.828820 638.458514
13.520000 632.137472 634.122588 636.335639 636.433634 638.668155 641.264940
13.620000 634.945195 636.952936 639.190553 639.298032 641.568982 644.137460
13.720000 637.613082 639.769099 642.118748 642.220454 644.669683 647.585518
13.820000 640.386896 642.603558 645.010444 645.209232 647.910146 651.324942
13.920000 642.943732 645.424108 648.196573 648.322096 651.164061 654.633288
14.020000 645.841744 648.290654 651.450848 651.622232 654.667863 658.580098
14.120000 648.802512 651.796460 655.178421 655.528966 659.088269 664.992481
14.220000 652.654008 655.956101 660.130137 660.755443 665.739804 672.011369
14.320000 657.742514 662.414248 668.778828 668.686160 674.904391 679.709249
14.420000 667.056333 673.916687 680.052723 679.194749 684.323912 687.587700
14.520000 683.818131 688.503118 691.616835 691.732981 695.647318 698.581644
14.620000 691.131901 694.629129 698.333597 697.996500 701.200395 703.507886
14.720000 696.357469 700.721764 703.681627 703.337151 706.068837 708.058681
14.820000 702.190488 705.203050 707.629437 707.481298 709.715787 711.748056
14.920000 706.632352 709.057054 711.211276 711.219470 713.370090 715.914860
15.020000 710.394372 712.240555 714.233779 714.475001 716.649276 719.960188
15.120000 714.067122 716.007380 717.912992 718.269687 720.483094 723.595547
15.220000 717.520134 719.696475 722.102541 722.324581 724.898072 728.384046
15.320000 721.581837 724.639548 727.213734 727.666301 730.666293 735.815684
15.420000 727.283361 730.157882 733.192938 733.648489 737.163224 741.853385
15.520000 731.712540 735.649049 739.733313 739.711705 743.688901 747.734627
15.620000 736.782155 740.854124 745.013284 744.892646 748.818557 752.878197
15.720000 741.099775 745.056229 749.161897 749.084660 753.102255 756.781599
15.820000 745.048113 749.121377 753.333906 753.171616 757.162211 760.602992
15.920000 749.065302 753.315334 757.617505 757.438788 761.252897 764.783908
16.020000 754.068430 758.066098 762.290620 762.051102 766.081045 768.955533
16.120000 758.458212 762.331053 766.470608 766.361068 770.217122 773.364532
16.220000 763.864593 767.768544 771.350381 771.209594 774.850921 778.054772
16.320000 768.579131 771.864425 775.660319 775.426535 778.887625 781.351507
16.420000 772.640909 776.052804 779.581512 779.321529 782.544777 784.548617
16.520000 777.100031 780.718046 783.711515 783.394498 785.941921 787.825032
16.620000 782.126265 785.842585 788.103939 787.793715 789.685355 791.665808
16.720000 787.722958 789.999793 791.714967 791.777634 793.492093 796.435751
16.820000 791.652755 793.460736 795.332255 795.798760 798.194420 802.835608
16.920000 794.907519 796.851027 799.303593 799.700534 802.574157 806.835458
17.020000 798.188624 800.319830 803.623700 803.796409 807.458350 810.857774
17.120000 801.473148 804.318971 807.965350 808.087335 811.845096 814.998481
17.220000 805.421848 808.607025 812.686161 812.882390 816.791584 822.563839
17.320000 812.835278 816.641831 820.356500 820.992475 825.303068 833.318549
17.420000 818.126660 821.650052 826.040188 826.941227 832.900923 838.516696
17.520000 822.669692 826.837831 832.313319 832.440345 838.433503 842.442984
17.620000 826.246440 832.236334 838.453668 837.823514 843.283901 846.913579
17.720000 831.496050 837.933665 843.045382 842.497025 847.019196 850.427864
17.820000 837.107886 843.366025 847.794144 847.299573 851.458237 854.312859
17.920000 843.667687 847.931716 851.977017 851.521790 855.128421 857.547406
18.020000 848.039184 852.125480 855.759825 855.349069 858.464120 860.372171
18.120000 852.199193 856.490442 859.601340 859.098032 861.573519 863.348579
18.220000 858.284543 861.603383 863.803061 863.490043 865.351554 867.039924
18.320000 866.365668 867.799891 869.687652 870.334886 872.925314 877.714133
18.420000 869.917691 871.768101 874.749636 874.891743 877.892491 881.770054
18.520000 873.125492 875.560173 878.812797 878.928575 882.198115 885.427103
18.620000 876.759163 879.493687 882.838754 882.886975 886.242599 889.387107
18.720000 879.990752 883.103475 886.232992 886.329186 889.537672 892.611613
18.820000 883.006289 886.609203 889.623009 889.558577 892.620531 895.631718
18.920000 886.038339 889.744895 892.758379 892.661917 895.628020 898.263136
19.020000 889.358573 892.917531 895.889081 895.864327 898.687689 902.068538
19.120000 893.720781 896.626272 899.280508 899.570024 902.705667 907.190313
19.220000 897.636071 900.063107 902.937078 903.454926 907.016014 911.611112
19.320000 901.213101 903.687228 907.212775 907.570933 911.718954 914.797256
19.420000 904.438529 907.979861 912.149158 911.945787 915.825835 918.142066
19.520000 907.316293 912.192960 917.944853 917.023865 920.808563 923.553756
19.620000 910.319178 915.934495 921.927977 920.917246 924.824683 927.903889
19.720000 914.237493 919.769113 925.291551 924.533188 928.467821 931.643297
19.820000 919.133488 924.948295 928.522566 928.227298 931.835479 934.728561
19.920000 925.713015 929.448494 932.359679 932.333839 935.526674 938.311813
20.020000 931.064357 934.005008 936.974253 936.909088 939.852599 942.099072
20.120000 935.794339 938.986545 942.094911 941.726266 944.316633 946.515889
20.220000 940.122194 943.231358 945.739095 945.499029 947.711859 949.314798
20.320000 944.839723 947.197582 949.183714 949.008826 950.791663 952.281008
20.420000 948.448684 950.767252 952.273532 952.171204 953.646074 954.951583
20.520000 952.260513 953.931996 955.285897 955.147268 956.356539 957.288401
20.620000 956.321019 957.645852 958.631181 958.680248 959.687680 961.275365
20.720000 959.991211 961.051969 962.335456 962.616370 964.163454 966.653296
20.820000 962.556763 964.013320 966.032455 966.310836 968.543512 971.524674
20.920000 965.567355 967.485569 969.937837 970.158372 972.636477 976.255585
21.020000 969.138334 971.483916 974.207776 974.571132 977.606777 981.146773
21.120000 972.352181 974.974748 978.486535 978.646953 982.204232 986.436050
21.220000 975.562035 978.315472 982.168100 982.607291 986.736934 991.769968
21.320000 978.915393 981.996348 986.260646 986.548675 991.039182 995.788170
21.420000 982.753452 986.098130 990.232229 990.426895 994.667033 999.258572
21.520000 986.195461 990.883418 994.771897 994.672502 998.437082 1002.303273
21.620000 990.531813 995.841067 999.152609 998.906485 1002.164538 1005.517165
21.720000 995.993325 1000.761341 1003.671889 1003.563423 1006.538349 1009.735567
21.820000 1000.676069 1004.356313 1007.400527 1007.397910 1010.533727 1013.799559
21.920000 1005.238832 1008.315648 1011.110672 1011.250380 1014.309497 1018.289468
22.020000 1010.237526 1012.915821 1015.785201 1016.159680 1019.607183 1023.459419
22.120000 1014.828271 1017.570829 1021.344498 1021.356710 1025.116822 1027.688148
22.220000 1019.080955 1023.268591 1026.990208 1026.496565 1029.424531 1031.367094
22.320000 1026.168370 1030.178095 1032.236946 1032.202692 1034.297496 1037.761506
22.420000 1032.090855 1034.077912 1036.380219 1036.634365 1039.482780 1042.803366
22.520000 1035.047600 1037.222542 1039.943922 1040.368490 1043.699481 1047.052108
22.620000 1038.315444 1040.485035 1043.509943 1043.943389 1047.728238 1051.225928
22.720000 1041.887545 1044.522515 1047.560760 1047.991253 1051.706057 1055.245642
22.820000 1045.801046 1048.822702 1052.391963 1052.448292 1056.308442 1058.478825
22.920000 1050.043814 1053.023492 1057.084675 1056.644998 1059.812045 1061.656379
23.020000 1053.883179 1058.167251 1061.137964 1060.552847 1062.823655 1064.492863
23.120000 1061.747278 1063.852524 1065.109154 1065.020529 1066.299596 1067.548563
23.220000 1066.124797 1067.379509 1068.457643 1068.515857 1069.721276 1070.910441
23.320000 1068.961092 1070.024340 1071.157131 1071.180113 1072.297189 1073.440084
23.420000 1071.462618 1072.604549 1073.673944 1073.673555 1074.771894 1075.855701
23.520000 1074.033095 1075.265129 1076.291351 1076.300180 1077.355785 1078.546957
23.570000 1075.506779 1076.573928 1077.693556 1077.698535 1078.786250 1080.082491
23.620000 1077.021923 1078.003701 1079.103871 1079.168970 1080.256088 1081.796153
23.670000 1078.596043 1079.622620 1080.821801 1080.947393 1082.257619 1084.154687
23.720000 1080.196890 1081.388573 1082.847076 1083.194055 1085.010829 1088.023345
23.770000 1081.811029 1083.226455 1085.285776 1085.656686 1088.192652 1091.667617
23.870000 1084.743420 1087.157787 1090.351459 1090.586934 1094.121430 1097.660684
23.970000 1088.442550 1092.000063 1096.083329 1095.770207 1099.502270 1101.987137
24.070000 1092.306248 1097.647691 1101.278535 1100.657592 1103.578133 1105.845901
24.170000 1098.444390 1102.880987 1105.219825 1104.939427 1107.134864 1109.167282
24.270000 1103.952964 1106.621087 1108.522246 1108.498088 1110.362094 1112.423533
24.370000 1107.662654 1110.016668 1111.968986 1112.078179 1114.120996 1116.668026
24.470000 1111.707519 1113.703066 1116.064846 1116.604097 1119.464629 1124.860862
24.570000 1115.955654 1118.561937 1122.795526 1123.134226 1127.502031 1132.942588
24.670000 1120.263995 1124.681035 1130.271848 1129.840408 1134.641925 1138.406375
24.770000 1126.365993 1132.223736 1136.590655 1136.348004 1140.516074 1145.213589
24.870000 1136.230354 1139.419916 1143.039596 1143.270199 1147.312982 1151.591477
24.970000 1141.410359 1144.681858 1148.827928 1148.732092 1152.773548 1156.228693
25.070000 1145.718735 1149.723813 1153.690704 1153.490308 1157.188380 1160.402688
25.170000 1150.506982 1154.595803 1158.211779 1158.037778 1161.424283 1164.465366
25.270000 1154.604133 1158.168780 1161.462129 1161.404702 1164.475963 1167.936394
25.370000 1158.415130 1161.451942 1164.414253 1164.446447 1167.486160 1171.477307
25.470000 1161.235696 1164.084084 1167.152234 1167.353749 1170.542669 1174.869679
25.570000 1164.338263 1166.875263 1170.173291 1170.421305 1173.860170 1178.325364
25.670000 1167.045294 1169.997524 1173.589369 1173.836668 1177.679799 1181.703374
25.770000 1170.016888 1173.259345 1177.160308 1177.388436 1181.756693 1184.842622
25.870000 1172.870919 1177.494712 1181.792987 1181.459376 1185.322047 1187.886173
25.970000 1177.856367 1182.556162 1186.546764 1185.833084 1188.896920 1191.036412
26.070000 1183.443245 1188.811370 1191.030593 1190.793829 1193.117874 1195.322626
26.170000 1191.754812 1193.869068 1195.993595 1196.283870 1198.934642 1202.656986
26.270000 1195.327656 1197.504492 1200.148682 1200.468950 1203.578413 1206.552932
26.370000 1198.889046 1201.096585 1204.552426 1204.563287 1207.926870 1210.460309
26.470000 1202.972197 1205.836808 1209.550498 1209.317353 1212.376466 1214.652974
26.570000 1207.797993 1211.580540 1214.520951 1214.281417 1216.974255 1219.329553
26.670000 1212.157637 1215.385166 1217.894972 1217.726719 1220.127405 1222.233362
26.770000 1215.851293 1218.748683 1221.183615 1220.930890 1223.061791 1224.634309
26.870000 1220.247273 1222.500999 1224.541183 1224.404859 1226.173811 1227.747619
26.970000 1224.235622 1225.934492 1227.738349 1227.702014 1229.442583 1231.093862
27.070000 1227.654833 1229.115994 1230.891797 1230.797794 1232.430295 1233.950696
27.170000 1230.662845 1232.215915 1233.751317 1233.671823 1235.092480 1236.467188
27.270000 1233.552146 1235.031089 1236.396798 1236.335684 1237.618466 1238.859969
27.370000 1236.301567 1237.764336 1239.145133 1239.015406 1240.180732 1241.133990
27.470000 1239.847150 1241.092254 1242.115447 1242.147612 1243.179539 1244.264925
27.570000 1243.566365 1244.574952 1245.752601 1245.877421 1247.136210 1249.177679
27.670000 1246.463011 1247.654864 1249.107191 1249.320245 1251.021576 1253.484456
27.770000 1248.994129 1250.541757 1252.334717 1252.428050 1254.208588 1256.767085
27.830000 1251.056170 1252.536816 1254.316136 1254.529936 1256.448177 1259.106768
27.870000 1252.466087 1254.171771 1255.906843 1256.135557 1258.376413 1260.857870
27.930000 1254.403224 1256.201838 1258.258866 1258.474439 1260.868035 1263.314567
27.970000 1255.751171 1257.583093 1259.883135 1260.034051 1262.409916 1264.838645
28.030000 1257.679306 1259.822593 1262.148513 1262.243724 1264.656755 1266.741216
28.130000 1261.168809 1263.891933 1266.303350 1266.294042 1268.576433 1271.753522
28.230000 1266.456353 1268.811839 1271.563297 1271.615499 1274.525305 1277.514838
28.330000 1270.240777 1273.351493 1276.321434 1276.246813 1279.121424 1281.489712
28.430000 1274.498280 1278.192711 1281.104978 1280.730295 1283.058800 1285.330673
28.530000 1281.122202 1283.688825 1285.453481 1285.831047 1287.942369 1293.162846
28.630000 1285.170547 1286.903406 1289.527502 1290.063762 1293.583391 1297.316250
28.730000 1288.261545 1290.105622 1293.704350 1293.883159 1297.651895 1300.649598
28.830000 1291.216589 1293.709240 1298.032845 1297.763013 1301.602060 1303.931811
28.930000 1294.220723 1298.103251 1302.314089 1301.732720 1305.023938 1307.030486
29.030000 1298.395493 1302.736907 1306.241092 1305.650269 1308.274325 1310.063118
