depth(m) lower_95(kyr) lower_68(kyr) median(kyr) mean(kyr) upper_68(kyr) upper_95(kyr)
5.420000 298.802253 299.617891 300.513603 300.535113 301.478705 302.419709
5.470000 301.117783 302.162743 303.703073 304.174617 306.063350 309.773836
5.500000 302.505741 303.998696 306.403217 306.792154 309.676836 313.659020
5.630000 312.048922 316.605259 320.666660 319.903539 322.833271 324.763255
5.670000 316.065369 320.936170 323.385449 322.964454 325.152773 326.858555
5.730000 321.331005 324.006932 326.168832 325.961457 327.932063 329.481676
5.770000 323.959188 326.038290 327.981472 327.817873 329.659072 331.158357
5.830000 326.856579 328.725745 330.566783 330.381534 331.996239 333.128181
5.870000 328.681800 330.480458 332.175925 332.034928 333.609968 334.737769
5.970000 332.600380 333.712133 335.030157 335.048442 336.479371 337.731268
6.030000 334.508388 335.725446 337.029218 337.108800 338.484033 340.016341
6.080000 336.450555 337.669343 339.145647 339.249556 340.693236 342.748029
6.130000 338.974227 340.308286 342.091787 342.310900 344.393055 346.995203
6.170000 340.570268 342.241702 344.323861 344.646967 347.172848 350.066632
6.230000 343.349890 345.117130 347.510553 347.860737 350.686386 354.043760
6.270000 345.322639 347.323367 349.777343 350.186430 353.263831 357.010123
6.330000 348.144111 350.368052 353.725634 353.715490 357.080101 360.207868
6.370000 350.100107 352.478511 355.896430 355.944577 359.408137 362.234533
6.430000 352.695634 355.559470 358.915347 358.941857 362.170192 364.908365
6.470000 354.853995 357.731188 361.023062 360.914554 363.995413 366.491073
6.530000 357.713551 361.026548 363.971842 363.853817 366.695631 369.195451
6.570000 359.719898 363.212381 366.187719 365.959327 368.589468 371.305190
6.630000 363.118954 366.059922 369.169389 368.963170 371.659974 374.315212
6.670000 364.975524 367.786046 370.956731 370.795235 373.548587 376.336271
6.730000 367.591840 370.663316 373.608849 373.528803 376.312283 378.990390
6.770000 369.813944 372.855421 375.590802 375.664148 378.489106 381.580782
6.830000 372.819221 375.971785 378.576238 378.781488 381.786682 384.911883
6.870000 375.074432 378.037431 380.801211 380.917023 383.939559 387.016224
6.930000 377.910156 380.987774 383.909140 384.167422 387.357447 390.947225
6.970000 380.293668 383.126571 386.587494 386.605909 390.120475 393.244512
7.010000 382.797458 385.346972 388.983255 389.061892 392.837973 395.585432
7.070000 386.173168 389.516301 393.142330 393.107227 396.595754 399.486753
7.160000 391.711938 395.603275 398.522547 398.603774 401.317815 407.539673
7.210000 395.328382 398.648036 401.125603 401.702269 404.926511 410.958072
7.260000 401.270607 403.424461 406.157731 406.345695 409.293599 413.228249
7.310000 405.125853 408.191851 411.293265 410.917434 413.395015 415.765246
7.360000 410.482774 412.877803 415.004252 415.014707 417.293702 419.136311
7.410000 414.694004 416.810750 418.839446 418.742985 420.735060 422.075624
7.460000 418.403493 420.310948 421.892985 421.838133 423.445460 424.793300
7.510000 421.223450 422.904126 424.224073 424.201725 425.589975 426.748798
7.560000 423.655314 425.003988 426.257090 426.222823 427.473076 428.641170
7.610000 425.801214 426.992571 428.077075 428.080656 429.205926 430.556899
7.660000 427.735473 428.850362 429.905666 429.990439 431.171164 432.654206
7.710000 429.506583 430.610877 431.631667 431.761012 433.038774 434.586042
7.760000 431.083468 432.092677 433.309290 433.412471 434.631460 436.199567
7.860000 433.458935 434.863500 436.358506 436.394214 437.880693 439.501888
7.960000 436.377119 437.916233 439.514024 439.549483 441.143663 442.932382
8.010000 438.128506 439.477204 441.230616 441.272236 442.994396 444.738629
8.110000 440.900498 442.630587 444.321634 444.467505 446.342827 448.378361
8.160000 442.500397 444.392437 446.200591 446.320835 448.276124 450.484064
8.210000 444.346262 446.182964 448.104613 448.268738 450.371373 453.093126
8.260000 446.096386 447.945790 450.159398 450.346539 452.586276 455.492007
8.310000 447.967254 449.885939 452.291136 452.456401 455.003233 458.371604
8.360000 449.972099 451.982491 454.511505 454.751095 457.500938 460.608441
8.410000 451.970789 454.266523 456.960455 457.209837 460.220584 463.376855
8.460000 454.076404 456.541466 459.523173 459.768683 463.061523 466.233570
8.510000 456.261837 458.879437 462.117742 462.334713 465.941710 468.617160
8.560000 458.635815 461.539262 464.888810 464.901155 468.447981 471.340982
8.610000 461.142861 464.210763 467.766447 467.619994 470.954122 473.530094
8.660000 463.999364 467.221916 470.959413 470.553722 473.632930 475.648636
8.710000 466.791871 470.621835 473.946535 473.494862 476.242551 477.984925
8.760000 470.602289 474.262481 476.879741 476.618929 478.991416 481.005642
8.810000 474.267186 477.011377 479.209216 479.138895 481.342282 483.569247
8.860000 476.972246 479.363823 481.427705 481.545627 483.674061 486.621988
8.910000 480.027090 482.084255 484.310061 484.604801 486.802338 492.299226
9.010000 484.832329 487.899741 491.204001 491.506387 495.025185 500.691479
9.060000 487.202464 491.041567 495.953565 495.788506 500.395715 504.359472
9.110000 490.147329 494.462279 500.222648 499.536133 503.660723 507.161005
9.210000 501.938455 506.379155 508.874469 508.887341 511.784902 514.758604
9.260000 506.665076 509.440697 512.201880 512.279829 515.163188 518.386638
9.310000 509.710435 512.328261 515.062227 515.247906 518.296499 521.544602
9.360000 512.137217 515.072707 517.974535 518.090714 521.056301 524.698642
9.410000 514.967511 517.739157 520.680212 520.764831 523.858496 527.159724
9.460000 517.229856 520.164168 523.296732 523.348932 526.677266 529.780357
9.560000 521.519985 524.539403 528.251418 528.515226 532.253098 538.097159
9.610000 523.836086 527.030143 531.143640 531.868950 536.850567 544.557654
9.660000 526.672064 529.809731 533.662975 535.032581 541.225294 547.924783
9.710000 530.090820 532.853306 537.727405 539.019174 545.870647 551.411444
9.760000 533.096348 536.542488 543.163212 543.239133 550.012861 553.838919
9.810000 535.929645 540.942215 548.385687 547.446256 553.198696 556.490877
9.860000 538.636072 545.530156 552.540138 551.289770 556.333228 559.312105
9.910000 542.325495 550.084371 555.581380 554.721782 559.077812 562.117804
9.990000 550.143237 556.855947 560.755095 560.255841 564.001200 566.762289
10.070000 559.268691 562.568135 565.644892 565.446745 568.261601 570.041586
10.120000 563.078352 565.636336 568.572706 568.284845 570.646804 572.467577
10.170000 565.878383 568.769899 571.050676 570.882752 573.035583 574.768944
10.220000 569.421539 571.570542 573.503193 573.490487 575.455405 577.037244
10.270000 572.090246 574.216559 575.937420 575.883571 577.567055 579.266455
10.320000 574.453210 576.694248 578.445213 578.523062 580.369986 582.899379
10.370000 577.217265 579.286681 581.093069 581.815255 584.261686 590.719031
10.420000 580.071519 582.428167 586.042108 586.486541 590.873400 595.302987
10.470000 582.152219 585.554625 591.466802 591.214985 596.110163 599.694385
10.520000 585.181421 590.301631 595.714575 595.177521 599.710172 602.623502
10.570000 588.572663 594.968744 599.230429 598.726731 602.513534 605.047704
10.620000 593.071039 598.512311 602.309644 601.804818 605.207099 607.354424
10.670000 596.161942 601.428386 605.065332 604.519207 607.511910 609.589117
10.720000 600.408703 604.443551 607.749428 607.217111 609.860741 611.731227
10.770000 603.307405 607.372320 610.227210 609.775667 612.065788 613.834133
10.820000 606.195674 610.232346 612.481022 612.140808 614.159113 615.779184
10.870000 610.072487 612.754331 614.588598 614.435604 616.238669 617.586544
10.920000 612.761129 615.157205 616.946573 616.797989 618.483403 619.761286
10.970000 616.001198 618.044160 619.716576 619.675508 621.325869 623.026579
11.020000 620.815798 622.812834 624.689752 624.870417 626.945832 629.650244
11.070000 623.606355 625.760984 627.989742 628.068166 630.372523 633.201005
11.120000 625.860305 628.067455 630.429714 630.651290 633.294087 635.845914
11.170000 628.183752 630.441832 632.837330 633.020482 635.774583 638.381542
11.220000 630.412502 632.643591 635.298118 635.404094 638.120431 641.068299
11.270000 632.506642 634.906909 637.529035 637.647030 640.464886 643.245873
11.370000 636.451761 639.084914 641.837873 641.820198 644.604186 647.825319
11.420000 638.646546 641.216769 644.242608 644.223818 647.131443 650.373658
11.470000 641.144637 643.700276 646.615440 646.692409 649.691981 652.874375
11.510000 642.940116 645.479930 648.568523 648.624375 651.566923 655.056107
11.610000 647.165363 650.046029 653.169862 653.290797 656.411589 659.959058
11.660000 649.586506 652.764377 655.857512 656.030485 659.198480 663.260819
11.710000 652.348219 655.772773 658.826680 659.111073 662.697196 666.903544
11.760000 654.709694 658.354384 661.660223 661.938381 665.843878 670.048470
11.835000 658.171556 661.863572 665.475774 665.865172 669.976899 674.793374
11.910000 661.830939 665.706665 669.716925 670.035204 674.490678 679.299590
11.960000 665.136939 668.793607 673.275206 673.507259 678.452744 682.802547
12.010000 669.713754 673.425506 678.703400 678.718554 684.055406 687.798643
12.060000 681.606568 687.040227 690.174492 690.083737 693.612239 696.867121
12.110000 688.570476 691.917716 695.122647 694.913070 697.936752 700.229665
12.210000 695.516657 699.109879 701.798272 701.577555 704.092792 706.455798
12.310000 702.331946 704.907343 707.285890 707.065521 709.209357 711.277916
12.410000 708.085414 710.066013 712.018798 711.880659 713.568853 715.432179
12.460000 711.449585 713.140280 714.793335 714.757394 716.304593 718.068058
12.510000 714.526488 715.728011 717.366149 717.403792 719.055672 720.749367
12.560000 716.967868 718.188025 719.849657 719.893139 721.464469 723.376308
12.610000 719.176758 720.574429 722.343052 722.439479 724.173703 726.452288
12.660000 721.561657 723.238440 725.179849 725.454730 727.412229 730.864957
12.710000 724.269897 726.115672 728.295999 728.838788 731.409680 737.291605
12.760000 726.841986 729.161077 731.762138 732.530590 735.994635 741.636519
12.860000 731.392258 734.535035 739.029139 739.660846 744.436901 751.858600
12.910000 734.247022 737.682504 743.366204 743.660789 749.877590 755.140684
12.960000 737.088174 740.588414 747.628871 747.301577 753.582353 758.037108
13.010000 739.830348 744.097358 751.501704 750.899400 757.122582 761.283708
13.085000 744.300290 750.097653 756.378046 756.035912 761.900213 765.467616
13.160000 750.364246 756.543641 761.465696 761.127418 765.959944 769.292467
13.210000 755.522862 760.701477 764.869053 764.656762 768.602855 771.705282
13.260000 760.301088 764.814665 768.783763 768.477787 771.971635 774.631520
13.310000 764.488928 768.622866 772.445144 771.994492 775.294120 777.638001
13.360000 769.979818 773.708141 776.633821 776.285047 778.826175 780.695732
13.410000 774.297272 777.368882 779.831548 779.600654 781.719660 783.356820
13.460000 777.797487 780.344521 782.454682 782.319072 784.308359 786.243618
13.510000 781.079961 783.305515 785.138499 785.081303 786.851462 788.776245
13.560000 784.829541 786.829208 788.496385 788.601117 790.371497 792.687380
13.610000 788.633395 790.452984 793.243302 793.532426 796.618312 800.792622
13.660000 790.734668 792.884377 796.576895 796.788040 800.665815 804.429318
13.710000 792.896796 794.969363 799.302228 799.441162 803.753416 807.625574
13.760000 794.963672 797.339018 802.000873 802.030011 806.437309 810.165803
13.810000 797.621342 800.256721 804.606851 804.654816 808.721491 812.600887
13.860000 800.427113 803.613102 807.762407 807.715717 811.566179 815.646387
13.910000 804.539241 808.179892 811.891658 812.010444 815.470969 822.289170
13.960000 810.680526 814.305542 818.377766 819.284031 824.460269 832.652806
14.010000 815.325457 818.582169 824.495351 825.331462 832.580912 839.411370
14.060000 818.894387 822.846737 830.150841 830.766808 839.334262 844.967343
14.110000 822.350361 827.592761 836.158215 836.297125 844.959464 850.599517
14.210000 832.454727 839.928789 846.142502 845.967262 852.541116 857.459490
14.260000 839.676708 845.445328 851.259355 851.203189 857.430209 860.665308
14.310000 844.921408 850.629882 856.731419 856.225940 861.465397 863.432256
14.360000 851.521197 858.349463 862.852420 861.724191 864.716084 866.101664
14.410000 863.927357 866.001931 867.352813 867.476012 868.801795 871.772836
14.460000 868.220870 869.548453 871.298269 872.078674 874.759039 879.811765
14.510000 870.625532 872.697203 875.783122 876.245446 879.669023 884.830573
14.560000 873.715415 876.176604 880.267202 880.622402 884.924106 889.898886
14.610000 876.699227 880.586589 885.333931 885.491082 890.226698 895.004014
14.660000 881.399086 886.128638 891.623831 891.474567 896.695666 901.181398
14.710000 885.775516 891.649585 898.089011 898.507935 905.458791 913.952877
14.760000 891.373849 896.694759 901.851039 904.303245 915.176710 924.848947
14.810000 897.530800 901.637952 906.487009 909.459711 923.574241 929.594571
14.860000 902.014550 906.113407 911.868518 914.437674 929.071450 933.001684
14.960000 909.952507 918.102864 925.877087 925.910030 934.894158 938.197744
15.060000 927.308766 932.070630 936.830711 936.320118 940.755941 943.207101
15.160000 937.102026 940.527834 943.508752 943.243505 946.066188 948.008676
15.210000 941.420496 944.305236 947.052776 946.751649 949.074322 950.812442
15.260000 945.512962 947.980085 950.209813 950.059726 952.112781 953.942569
15.360000 951.881279 954.587247 956.414222 956.243430 957.689333 959.408984
15.410000 958.373411 959.516288 960.819211 961.273163 962.941024 966.615295
15.460000 961.534096 963.061749 965.462920 965.663048 968.093959 971.474967
15.510000 964.988472 967.577444 970.756713 970.965616 973.987216 978.906220
15.560000 969.330899 973.183158 976.689353 976.623286 979.825852 984.736414
15.610000 973.487213 978.001553 981.932575 981.673136 985.151607 989.408568
15.660000 978.404407 983.202477 986.739861 986.523431 989.899870 993.610900
15.710000 983.720763 987.719482 991.129107 990.982904 994.392305 997.475165
15.760000 987.390772 992.505963 995.924650 995.464064 998.555746 1000.730045
15.820000 993.048275 997.998351 1001.085460 1000.489985 1003.081622 1004.764364
15.860000 997.667982 1001.876416 1004.194381 1003.780803 1005.784020 1007.376754
15.910000 1004.076971 1006.317591 1007.745614 1007.589746 1008.960195 1010.160469
15.940000 1007.951957 1008.966697 1009.947358 1009.969291 1010.990231 1011.902620
