depth(m) lower_95(kyr) lower_68(kyr) median(kyr) mean(kyr) upper_68(kyr) upper_95(kyr)
88.017000 300.104180 300.870800 301.686069 301.671027 302.491271 303.191192
88.146667 300.477572 301.295080 302.128590 302.105916 302.924144 303.659867
88.276333 300.872311 301.691242 302.530881 302.524898 303.349790 304.274519
88.406000 301.261631 302.043360 302.927566 302.914484 303.753014 304.727993
88.542364 301.611979 302.411824 303.308865 303.328020 304.221432 305.308283
88.678727 301.953765 302.800123 303.700950 303.735571 304.656488 305.945621
88.815091 302.284459 303.162554 304.070280 304.126309 305.077019 306.456568
88.951455 302.650028 303.518610 304.443437 304.513514 305.486609 306.914909
89.087818 303.026778 303.858293 304.792581 304.911095 305.941639 307.523582
89.224182 303.388134 304.225151 305.143302 305.297083 306.376645 308.098581
89.360545 303.722454 304.555655 305.516367 305.670614 306.829903 308.652245
89.496909 304.074043 304.882189 305.860496 306.038899 307.235625 309.062858
89.633273 304.405739 305.222645 306.182485 306.414517 307.652371 309.644981
89.769636 304.703767 305.540805 306.533227 306.770768 308.097834 310.125256
89.906000 304.962603 305.887180 306.907750 307.147888 308.506849 310.680921
90.033714 305.255959 306.202873 307.228251 307.479383 308.936985 311.185480
90.161429 305.528765 306.502042 307.548389 307.810551 309.319980 311.634954
90.289143 305.837781 306.755104 307.872819 308.134523 309.692112 312.015959
90.416857 306.117817 307.078833 308.187981 308.459164 310.070803 312.449962
90.544571 306.428990 307.337754 308.506838 308.783231 310.380661 312.834875
90.672286 306.664026 307.667981 308.808659 309.101831 310.809731 313.130259
90.800000 306.956261 307.987186 309.119821 309.421248 311.135481 313.472306
90.940250 307.405477 308.321752 309.452039 309.779640 311.479489 313.804689
91.080500 307.611234 308.648955 309.808679 310.131250 311.915423 314.119519
91.220750 307.883878 308.998590 310.173235 310.478900 312.259124 314.371223
91.361000 308.190963 309.344503 310.516531 310.831420 312.640351 314.758339
91.501250 308.546769 309.696707 310.872625 311.178868 313.023522 315.071057
91.641500 308.857049 310.035567 311.215089 311.531004 313.329493 315.359784
91.781750 309.214400 310.380216 311.556035 311.884395 313.719617 315.655778
91.922000 309.574420 310.730279 311.898090 312.236233 314.056411 315.892555
92.062250 309.864051 311.086359 312.249061 312.596355 314.399343 316.224026
92.202500 310.204605 311.474183 312.643538 312.960569 314.833555 316.538514
92.342750 310.642329 311.821845 313.031966 313.327125 315.169143 316.897646
92.483000 310.931896 312.171961 313.377097 313.690126 315.523078 317.199056
92.623250 311.297084 312.570748 313.738890 314.058615 315.865311 317.493371
92.763500 311.627285 312.920070 314.108649 314.427622 316.343826 317.850871
92.903750 311.892540 313.284793 314.471037 314.787119 316.715878 318.183295
93.044000 312.203609 313.641083 314.846081 315.160711 317.115520 318.527365
93.184250 312.519922 314.009430 315.245293 315.536882 317.471963 318.819728
93.324500 312.958738 314.400543 315.635341 315.918978 317.893027 319.164630
93.464750 313.235283 314.780605 316.062702 316.309019 318.277435 319.554860
93.605000 313.556594 315.229352 316.480975 316.722766 318.686230 319.889937
93.697500 313.763622 315.488533 316.792470 317.007514 318.993779 320.132186
93.790000 314.072009 315.804129 317.114138 317.315951 319.249602 320.349406
93.922000 314.555340 316.224397 317.605772 317.746296 319.662368 320.695201
94.054000 314.981152 316.624728 318.030677 318.187628 320.095060 321.034755
94.186000 315.405825 317.061206 318.498473 318.640793 320.525191 321.336111
94.317286 315.772025 317.495206 318.948310 319.080788 320.882817 321.658983
94.448571 316.210879 317.967809 319.483443 319.539041 321.257115 322.141566
94.579857 316.862124 318.445146 319.977705 320.004032 321.673156 322.707033
94.711143 317.513223 318.868352 320.461745 320.470443 322.052904 323.208876
94.842429 317.996944 319.396102 321.008048 320.971984 322.491156 323.780615
94.973714 318.361663 319.894933 321.487651 321.449449 322.891911 324.351374
95.105000 318.960737 320.389736 322.065165 321.954438 323.321124 325.000405
95.207000 319.128408 320.787137 322.444062 322.361579 323.714945 325.526812
95.309000 319.455409 321.169072 322.857065 322.763335 324.119977 326.145824
95.411000 319.783318 321.552553 323.289544 323.175183 324.557226 326.794761
95.545200 320.200695 322.003571 323.784333 323.684869 325.120363 327.401182
95.679400 320.762669 322.469639 324.204493 324.217671 325.813897 328.002664
95.813600 321.257107 322.987896 324.628068 324.752134 326.421500 328.767854
95.947800 321.654974 323.446331 325.122243 325.330502 327.282116 329.475803
96.082000 322.150162 324.055426 325.650416 325.886223 327.888461 330.186238
96.216200 322.639911 324.646593 326.132372 326.473906 328.663618 330.864245
96.350400 323.179412 325.227041 326.718745 327.070652 329.357264 331.487355
96.484600 323.968971 325.800723 327.361312 327.704040 330.052116 332.045874
96.618800 324.521757 326.365050 328.126041 328.369257 330.824034 332.738630
96.753000 325.311089 326.940876 328.875372 329.069787 331.438076 333.369989
96.890667 325.950777 327.722618 329.645459 329.838173 332.114838 334.491877
97.028333 326.741743 328.396606 330.471471 330.649329 332.916618 335.233735
97.166000 327.609360 329.304718 331.336208 331.512485 333.744243 336.393336
97.303667 328.231191 330.134639 332.165325 332.388220 334.740530 337.704802
97.441333 328.846463 331.037220 333.058628 333.250529 335.591475 338.404328
97.579000 329.807063 331.877257 333.949927 334.141935 336.315823 339.724736
97.716667 330.717280 332.627439 334.816073 335.016543 337.219042 340.624591
97.854333 331.723649 333.569459 335.657386 335.938150 338.109297 342.295206
97.992000 332.816115 334.576144 336.395337 336.845491 339.111977 343.430568
98.129667 333.669096 335.427483 337.284531 337.728476 339.914458 344.932883
98.267333 334.666973 336.330935 338.113810 338.628172 341.007125 346.086813
98.405000 335.942604 337.167220 338.961683 339.547501 341.894816 346.978263
98.519333 336.435705 337.764681 339.619122 340.244640 342.739743 347.628506
98.633667 337.043869 338.493589 340.282312 340.938345 343.505003 348.283682
98.748000 337.591403 339.079452 340.892014 341.562254 344.327211 349.104501
98.870600 338.002523 339.640754 341.553778 342.215380 344.941160 349.637221
98.993200 338.562296 340.190428 342.180009 342.843474 345.670510 350.370542
99.115800 339.193736 340.705776 342.810516 343.455852 346.331416 350.814378
99.238400 339.842676 341.152640 343.556868 344.072677 346.903807 351.192657
99.361000 340.202332 341.647432 344.104494 344.653693 347.535640 351.564628
99.478250 340.619545 342.186463 344.648277 345.183867 348.036381 352.122843
99.595500 341.160193 342.582722 345.231129 345.698527 348.603978 352.558363
99.712750 341.619717 343.080017 345.911240 346.223924 349.197495 353.031487
99.830000 342.059300 343.680771 346.396328 346.729309 349.649855 353.413927
99.967273 342.467261 344.302237 347.070641 347.334278 350.310213 353.842635
100.104545 343.135639 344.889048 347.756854 347.949902 351.009605 354.463023
100.241818 343.573851 345.448743 348.436280 348.557775 351.513666 355.057568
100.379091 344.123242 346.038342 349.041287 349.164527 352.241795 355.487394
100.516364 344.830457 346.559498 349.554714 349.753413 352.991952 355.962135
100.653636 345.219424 347.097829 350.247073 350.342023 353.596063 356.255431
100.790909 345.804550 347.592403 350.813898 350.912687 354.170313 356.702837
100.928182 346.528831 348.153248 351.389781 351.481539 354.629199 357.118388
101.065455 347.001235 348.658728 351.968248 352.043557 355.173396 357.611882
101.202727 347.327614 349.126856 352.641490 352.587188 355.662909 358.017502
101.340000 347.747002 349.656612 353.288606 353.125866 356.114636 358.286593
101.484000 348.276379 350.244031 353.894641 353.673873 356.580658 358.824402
101.628000 348.785697 350.783602 354.525565 354.218233 357.009964 359.300574
101.772000 349.161443 351.255461 355.187062 354.764328 357.477592 359.634578
101.916000 349.589881 351.753933 355.808480 355.312960 358.058316 360.246683
102.060000 349.892322 352.207391 356.420158 355.863607 358.534079 360.645399
102.204000 350.310030 352.784183 357.024599 356.408161 359.082535 361.148124
102.348000 350.730801 353.189167 357.633321 356.956785 359.537414 361.604972
102.492000 351.125340 353.705980 358.286381 357.514742 360.202722 361.993563
102.636000 351.597495 354.315468 358.901465 358.083371 360.737105 362.438193
102.780000 352.058779 354.872514 359.475916 358.640972 361.342669 362.952402
102.890500 352.403276 355.412754 359.850384 359.059203 361.742968 363.300434
103.001000 352.706060 355.772154 360.218132 359.486891 362.154737 363.770778
103.111000 353.022586 356.276090 360.604799 359.920867 362.578635 364.142498
103.220667 353.432687 356.991704 361.035475 360.366228 363.038770 364.950546
103.330333 353.810784 357.383128 361.461143 360.810319 363.560907 365.298097
103.440000 354.336513 357.812222 361.964751 361.250904 364.070121 365.766608
103.545333 354.663372 358.352882 362.353940 361.669759 364.524089 366.240173
103.650667 354.987816 358.990972 362.765746 362.080984 364.944039 366.653383
103.756000 355.334406 359.271473 363.213501 362.493125 365.359630 367.180011
103.889545 355.882487 359.944184 363.638815 363.043745 365.909934 367.818031
104.023091 356.302376 360.507272 364.089339 363.575144 366.432983 368.257897
104.156636 356.890291 360.986289 364.622592 364.127629 366.966726 368.990535
104.290182 357.456302 361.670681 365.107415 364.654116 367.484763 369.478832
104.423727 357.929587 362.121711 365.595771 365.174921 368.062383 370.004836
104.557273 358.483160 362.605506 366.128255 365.699391 368.653883 370.628843
104.690818 359.027616 363.080553 366.694299 366.213900 369.231360 371.253755
104.824364 359.630737 363.631198 367.338009 366.714823 369.706224 371.915634
104.957909 360.139985 364.016326 367.863850 367.232089 370.194439 372.388179
105.091455 360.630208 364.553996 368.317476 367.697563 370.674203 372.931256
105.225000 361.235824 365.040825 368.803004 368.163964 371.069774 373.458680
105.256000 361.328702 365.167029 368.888861 368.266202 371.161863 373.532922
105.398000 361.822056 365.875413 369.234935 368.675708 371.513665 373.815270
105.540000 362.281319 366.388909 369.602654 369.072297 371.897136 374.209945
105.682000 362.622838 366.839194 369.928960 369.442964 372.276294 374.533405
105.824000 362.956095 367.269198 370.301396 369.809817 372.598267 374.777701
105.966000 363.274149 367.713936 370.636295 370.180689 372.961838 375.125095
106.108000 363.663337 368.164391 370.957489 370.554591 373.262138 375.347939
106.250000 364.060889 368.597729 371.296509 370.906915 373.604172 375.637305
106.392000 364.482058 369.008710 371.659267 371.268590 373.908750 376.013515
106.534000 364.823306 369.388084 371.969220 371.610721 374.219742 376.385367
106.676000 365.148006 369.766252 372.269046 371.952909 374.529639 376.688331
106.820833 365.518360 370.098622 372.632321 372.309291 374.844594 377.001943
106.965667 365.862017 370.519040 372.996489 372.650918 375.176579 377.280276
107.110500 366.214061 370.931425 373.268956 372.993686 375.460421 377.595697
107.255333 366.664530 371.273704 373.596250 373.330141 375.783908 377.920133
107.400167 366.970554 371.632281 373.881842 373.660208 376.109729 378.219116
107.545000 367.369731 371.993847 374.232629 373.985592 376.448163 378.562668
107.689833 367.701871 372.289461 374.543819 374.316113 376.734547 378.864215
107.834667 368.036861 372.602265 374.789146 374.635105 377.049122 379.098320
107.979500 368.362099 372.947497 375.130236 374.956549 377.354085 379.343258
108.124333 368.819328 373.283474 375.416857 375.280406 377.608485 379.722859
108.269167 369.239012 373.595246 375.754264 375.603244 377.926728 380.068492
108.414000 369.642880 373.908970 376.076288 375.922994 378.231534 380.459972
108.558833 369.942812 374.263155 376.389807 376.235641 378.568090 380.773007
108.703667 370.259591 374.600948 376.689070 376.554014 378.855702 380.990887
108.848500 370.655527 374.876485 377.025880 376.869705 379.187920 381.409252
108.993333 370.963505 375.201061 377.390328 377.180535 379.503715 381.697087
109.138167 371.292322 375.463874 377.638056 377.492645 379.822845 381.973791
109.283000 371.674862 375.798166 377.996871 377.799184 380.129482 382.256600
109.424421 372.002718 376.104824 378.287258 378.097022 380.448704 382.567933
109.565842 372.294689 376.394213 378.569703 378.391784 380.767807 382.899953
109.707263 372.578975 376.702006 378.812171 378.696662 381.135070 383.154777
109.848684 372.904890 376.997083 379.090905 378.992803 381.453532 383.397343
109.990105 373.262271 377.309223 379.354695 379.288004 381.744339 383.778810
110.131526 373.515576 377.602372 379.694329 379.592089 382.093781 384.117551
110.272947 373.960878 377.882659 379.951302 379.888891 382.414217 384.368180
110.414368 374.263454 378.202300 380.203839 380.185657 382.776437 384.708056
110.555789 374.494580 378.477263 380.442509 380.485728 383.045357 385.019288
110.697211 374.789267 378.767366 380.732414 380.781381 383.371152 385.279704
110.838632 375.201916 379.075807 381.023113 381.078049 383.671919 385.550725
110.980053 375.444485 379.351505 381.255873 381.377507 384.005185 385.951790
111.121474 375.707911 379.690583 381.471510 381.683035 384.349379 386.277520
111.262895 376.048466 379.978318 381.747003 381.973804 384.674718 386.574072
111.404316 376.344091 380.281918 381.974028 382.273115 385.022746 386.898224
111.545737 376.666094 380.605809 382.300227 382.578588 385.286063 387.246910
111.687158 377.032744 380.910264 382.549827 382.886497 385.651862 387.585829
111.828579 377.330458 381.197849 382.839218 383.186334 385.943616 387.891790
111.970000 377.765729 381.499447 383.098226 383.491530 386.214748 388.180133
112.115111 378.148541 381.850031 383.361057 383.806090 386.515856 388.521286
112.260222 378.570646 382.136556 383.627174 384.115154 386.824456 388.837043
112.405333 378.824147 382.458709 383.917857 384.429824 387.093409 389.205565
112.550444 379.134402 382.786870 384.223414 384.750685 387.431724 389.507201
112.695556 379.405362 383.095776 384.511483 385.072021 387.763728 389.851597
112.840667 379.691827 383.423131 384.848718 385.396260 388.054074 390.190330
112.985778 380.217442 383.783085 385.189714 385.730496 388.369735 390.498370
113.130889 380.707561 384.063032 385.468806 386.061729 388.720329 390.854319
113.276000 381.180171 384.389044 385.779795 386.400129 389.040432 391.169355
113.412364 381.433675 384.715942 386.129421 386.721516 389.310066 391.421270
113.548727 381.895734 385.055781 386.455097 387.050658 389.613881 391.770809
113.685091 382.383175 385.380106 386.774650 387.393986 389.911658 392.101351
113.821455 382.787348 385.700635 387.109171 387.724619 390.236573 392.457902
113.957818 383.262209 386.115942 387.487101 388.071527 390.539098 392.785028
114.094182 383.686685 386.494485 387.859781 388.422582 390.855424 393.071096
114.230545 384.007816 386.855674 388.222604 388.769457 391.168898 393.343564
114.366909 384.253199 387.165696 388.508328 389.121129 391.515390 393.775066
114.503273 384.674609 387.539912 388.849535 389.475970 391.855171 394.072750
114.639636 385.180450 387.857076 389.182193 389.831347 392.159247 394.452615
114.776000 385.510822 388.269652 389.570487 390.190718 392.512711 394.787100
114.918400 386.203877 388.646841 389.930696 390.569157 392.847573 395.222532
115.060800 386.729387 389.010798 390.319582 390.945621 393.187646 395.541586
115.203200 387.081722 389.377577 390.717618 391.327906 393.516847 395.957797
115.345600 387.919600 389.786113 391.125683 391.726558 393.882400 396.364757
115.488000 388.468001 390.181754 391.560791 392.143283 394.262860 396.792316
115.597333 388.868621 390.493071 391.957352 392.469269 394.570411 397.110267
115.706667 389.167161 390.790687 392.377233 392.815508 394.868624 397.468768
115.816000 389.526706 391.093831 392.798808 393.168239 395.242959 397.828201
115.932500 389.805277 391.428568 393.364510 393.551332 395.596439 398.083576
116.049000 390.122528 391.714705 393.829468 393.913282 395.906206 398.429846
116.165500 390.402648 392.047992 394.350980 394.291736 396.313079 398.814148
116.282000 390.723677 392.388379 394.759729 394.670414 396.679991 399.155739
116.417818 391.025295 392.787318 395.313451 395.135427 397.193243 399.582937
116.553636 391.276410 393.176260 395.751641 395.595575 397.649997 400.094516
116.689455 391.716188 393.549237 396.189701 396.064448 398.164755 400.898129
116.825273 392.171328 393.921287 396.657030 396.528721 398.642421 401.569515
116.961091 392.489386 394.332691 397.040362 396.998292 399.107973 402.633168
117.096909 392.870200 394.800549 397.520910 397.469781 399.656925 403.177489
117.232727 393.356704 395.201655 397.967920 397.949772 400.232292 404.381366
117.368545 393.765169 395.783812 398.386886 398.438446 400.837605 405.209251
117.504364 394.107251 396.335008 398.831932 398.914062 401.325111 405.762000
117.640182 394.576832 396.937533 399.224167 399.428314 401.912522 406.645097
117.776000 394.957407 397.404048 399.638822 399.949785 402.402188 407.135789
117.912364 395.424282 397.921009 400.146678 400.516450 403.073215 407.629507
118.048727 395.804418 398.409578 400.680160 401.138731 403.834515 408.226642
118.185091 396.443611 398.870476 401.243547 401.762289 404.816358 408.792338
118.321455 396.945974 399.343358 401.914026 402.420887 405.641866 409.461931
118.457818 397.394492 399.965656 402.581531 403.065414 406.395597 410.050600
118.594182 397.928951 400.423016 403.194966 403.744107 407.346936 410.758134
118.730545 398.706362 400.922624 404.091516 404.471047 408.015716 411.411050
118.866909 399.454790 401.575198 404.915521 405.260063 408.837183 412.203825
119.003273 400.363544 402.282196 405.781151 406.094599 409.728446 412.918169
119.139636 401.142007 403.098917 406.859484 406.992545 410.670615 413.407864
119.276000 401.889491 404.076942 407.978986 407.939801 411.658002 414.326177
119.356000 402.237682 404.485261 408.475033 408.449516 412.147291 414.751931
119.487111 403.337811 405.818306 409.681461 409.578397 413.151304 415.871976
119.618222 404.705986 407.253690 410.980523 410.802184 414.229332 416.635594
119.749333 406.241468 408.833508 412.123815 412.007700 415.234717 417.615432
119.880444 407.653960 410.269998 413.289272 413.296908 416.288886 418.644293
120.011556 409.409103 411.704833 414.559424 414.577942 417.340667 420.074696
120.142667 410.999419 413.244730 415.926782 415.888895 418.570607 420.932921
120.273778 412.544977 414.755254 417.140661 417.187695 419.711575 421.962570
120.404889 414.025838 416.069770 418.366414 418.444566 420.734557 422.874282
120.536000 415.692345 417.751892 419.777849 419.793983 421.790722 423.958662
120.659500 416.916903 418.857563 420.872383 420.910478 423.005994 424.991411
120.783000 418.232746 420.035934 422.010159 422.026353 424.132912 426.151171
120.906500 419.090045 421.059280 423.149329 423.102965 425.069445 427.180910
121.030000 420.486302 422.235701 424.279591 424.205636 426.134765 427.893145
121.164250 421.420729 423.410611 425.582670 425.507458 427.566011 429.306600
121.298500 422.421043 424.750568 426.803223 426.732013 428.719205 430.669206
121.432750 423.624523 425.911608 427.975949 427.956374 429.850450 431.938969
121.567000 424.794744 427.277801 429.216547 429.109694 430.934442 432.800233
121.704500 425.836773 428.227734 430.228636 430.124806 432.021557 434.300888
121.842000 426.562521 429.079191 431.199064 431.059436 433.047700 435.289357
121.981737 427.169021 429.713294 431.948516 431.848173 434.041443 436.158953
122.121474 427.859025 430.280335 432.664135 432.586616 434.825566 437.115745
122.261211 428.290812 430.996468 433.319661 433.310718 435.707287 438.086321
122.400947 428.767378 431.462407 433.916070 433.976746 436.364842 439.379620
122.540684 429.450388 431.912039 434.546674 434.605202 437.060019 440.132813
