depth(m) lower_95(kyr) lower_68(kyr) median(kyr) mean(kyr) upper_68(kyr) upper_95(kyr)
40.870000 1492.804402 1502.031815 1508.151764 1507.738647 1514.438340 1518.110380
40.920000 1502.249706 1508.906323 1513.816188 1513.564969 1518.599314 1522.206170
40.970000 1509.361277 1514.826257 1519.209511 1518.749895 1522.765930 1525.976016
41.020000 1515.552155 1520.577923 1523.978768 1523.672271 1526.746589 1530.028603
41.070000 1522.048033 1526.269418 1528.862701 1528.766348 1531.551702 1534.309023
41.120000 1527.216008 1529.815050 1532.334422 1532.459191 1535.249323 1538.332332
41.170000 1530.459507 1532.909449 1535.462759 1535.710030 1538.670654 1542.073841
41.220000 1533.751176 1536.373177 1538.849033 1539.096852 1541.873022 1545.593944
41.270000 1537.023720 1539.693535 1542.525264 1542.869429 1545.997686 1549.831215
41.320000 1541.134235 1543.821601 1547.299414 1547.767481 1551.934041 1556.438536
41.370000 1546.082787 1549.182460 1553.917515 1553.902175 1558.451735 1562.417060
41.420000 1551.106241 1555.799525 1560.468935 1560.251006 1564.601648 1567.797133
41.470000 1558.285247 1563.064767 1567.030935 1566.670877 1570.352526 1573.439613
41.520000 1568.563524 1571.976959 1574.837669 1574.888172 1577.942842 1581.830279
41.570000 1574.932491 1577.895980 1581.104881 1581.175182 1584.096555 1589.154427
41.620000 1581.281164 1584.830400 1588.463057 1589.281674 1594.181247 1599.994249
41.670000 1586.955218 1590.560422 1596.065346 1596.627813 1602.789001 1608.411720
41.720000 1591.114381 1596.113791 1601.858486 1602.333617 1608.573215 1615.817841
41.770000 1596.461108 1601.421806 1606.622232 1607.746601 1614.853718 1622.509027
41.820000 1601.282786 1606.060641 1611.344802 1612.809034 1621.205394 1627.683075
41.870000 1605.099706 1610.003697 1617.311284 1618.002477 1626.860348 1632.032727
41.920000 1608.925066 1614.422483 1624.538210 1623.533261 1631.788055 1635.654027
41.970000 1613.388132 1621.492994 1630.881710 1629.212097 1636.001648 1639.364505
42.020000 1619.147098 1628.976114 1636.520195 1634.977083 1639.967524 1642.920662
42.070000 1625.012104 1636.413060 1640.693857 1639.692895 1643.577498 1646.924056
42.170000 1638.052190 1644.628361 1647.568653 1647.288536 1650.480509 1653.209626
42.220000 1645.432760 1648.534436 1651.246966 1651.199870 1654.084520 1656.663338
42.270000 1649.323708 1651.760604 1654.559304 1654.579662 1657.411185 1660.043511
42.320000 1652.255900 1654.956189 1657.618183 1657.670704 1660.376198 1663.269016
42.370000 1655.308366 1657.935935 1660.603370 1660.665837 1663.393684 1666.215854
42.420000 1658.363043 1660.799535 1663.625160 1663.634274 1666.410832 1669.170029
42.470000 1661.449393 1663.844115 1666.772221 1666.787782 1669.679224 1672.963675
42.520000 1664.509879 1667.159710 1670.345097 1670.706424 1674.016384 1679.376084
42.620000 1670.818207 1673.715820 1678.450055 1680.482320 1688.134177 1699.271889
42.670000 1674.422169 1677.459232 1683.558059 1685.961105 1696.211766 1705.656657
42.745000 1679.167393 1684.667871 1693.887259 1694.377212 1703.610429 1714.445427
42.820000 1686.119765 1695.008269 1702.618129 1703.045648 1711.329292 1720.871238
42.895000 1692.669387 1701.565432 1710.204578 1710.368333 1719.608860 1728.024905
42.970000 1698.147958 1707.967493 1717.841699 1717.951357 1728.330331 1735.802646
43.020000 1702.435102 1712.629687 1723.955951 1723.068938 1732.869846 1740.276801
43.070000 1705.634742 1717.457695 1729.614001 1727.980519 1737.743191 1744.444212
43.120000 1709.467578 1722.993469 1734.226455 1732.670484 1741.621061 1748.068404
43.170000 1714.886657 1729.532487 1738.537416 1737.295538 1745.449757 1751.402713
43.220000 1720.959345 1736.506055 1743.076273 1742.224511 1749.072370 1755.452785
43.320000 1737.669929 1746.567811 1751.876981 1751.686193 1757.491901 1764.039610
43.370000 1745.009211 1752.391564 1757.901515 1757.952951 1764.019437 1771.468120
43.420000 1752.513181 1759.196299 1764.555140 1764.342038 1770.092775 1776.241508
43.520000 1761.621718 1771.697345 1776.493096 1776.364199 1781.973371 1787.456205
43.570000 1767.449439 1777.678266 1782.222317 1782.045292 1787.200851 1792.356381
43.670000 1780.160080 1784.823730 1789.923818 1789.990508 1795.422193 1800.798811
43.720000 1783.426015 1787.991824 1793.673373 1793.656457 1799.326453 1804.688750
43.770000 1786.672618 1791.414088 1797.251614 1797.107738 1802.692917 1808.010316
43.870000 1791.978691 1797.892105 1803.655986 1803.452422 1809.037627 1815.418384
43.920000 1795.771294 1800.992630 1806.769554 1806.692056 1812.321176 1818.452456
43.970000 1798.929303 1804.574097 1810.149611 1810.149369 1815.553488 1821.775460
44.020000 1801.753249 1807.846217 1813.565577 1813.523263 1818.837446 1825.256684
44.070000 1804.997780 1811.460566 1816.571526 1816.967625 1822.359569 1830.681659
44.120000 1808.449317 1814.410046 1819.933792 1820.605406 1826.517340 1836.806810
44.170000 1811.432970 1817.308267 1823.752635 1824.373945 1831.501216 1842.977345
44.220000 1814.181626 1820.296892 1827.620030 1828.732806 1837.449101 1848.257263
44.270000 1816.482414 1823.443873 1831.853721 1833.323425 1844.574996 1853.942386
44.320000 1819.564900 1827.079994 1837.445165 1837.956372 1849.617743 1857.228126
44.370000 1822.713185 1830.677477 1842.777433 1842.664581 1853.886402 1860.987664
44.420000 1826.098796 1835.199260 1848.240927 1847.201673 1857.700463 1864.794028
44.470000 1829.434205 1840.357159 1853.422561 1851.534301 1861.584337 1869.456613
44.520000 1833.911157 1845.771492 1857.493778 1855.846170 1864.843874 1873.087040
44.570000 1839.943555 1849.674830 1861.406634 1860.032225 1868.287981 1875.850209
44.620000 1845.424739 1854.740439 1865.339938 1864.225971 1872.333291 1880.524547
44.670000 1850.151343 1860.404633 1869.250480 1868.626507 1875.587693 1886.642651
44.720000 1855.886189 1866.529724 1873.548215 1873.578350 1880.561647 1893.605066
44.770000 1862.153789 1871.830811 1878.715543 1879.303663 1887.073676 1897.496062
44.845000 1874.957217 1882.536705 1891.978578 1890.789987 1898.472699 1903.286337
44.920000 1892.273080 1897.888638 1901.196872 1900.955594 1904.334744 1907.954887
44.970000 1898.263449 1901.426742 1904.302861 1904.179035 1907.206852 1910.199938
45.020000 1900.682655 1903.862310 1906.591237 1906.584422 1909.451925 1912.697117
45.070000 1903.360821 1906.263680 1908.788821 1908.910910 1911.632332 1914.741805
45.120000 1906.021597 1908.612173 1911.136313 1911.193161 1913.848017 1916.707117
45.170000 1908.589702 1911.029478 1913.540116 1913.640391 1916.381701 1918.978161
45.220000 1910.797261 1913.331360 1916.055875 1916.096761 1918.825554 1921.372748
45.270000 1913.183288 1915.593933 1918.450205 1918.432689 1921.232060 1923.311989
45.320000 1915.619871 1918.149050 1920.755619 1920.759796 1923.493622 1925.497635
45.370000 1918.101723 1920.686969 1923.260410 1923.163276 1925.635566 1927.775800
45.420000 1921.230043 1923.768954 1926.252441 1926.158601 1928.545892 1931.009925
45.470000 1924.308229 1926.836290 1929.443139 1929.387948 1931.838148 1934.170292
45.570000 1930.192482 1932.419209 1934.770785 1934.810873 1937.248332 1939.714483
45.620000 1932.403356 1934.807218 1937.189367 1937.186327 1939.638657 1942.116939
45.670000 1934.717479 1936.916016 1939.326169 1939.402101 1941.954621 1944.476389
45.720000 1936.992286 1939.334209 1941.699620 1941.799148 1944.223181 1947.037437
45.770000 1939.586664 1942.115139 1944.522640 1944.643659 1947.230654 1950.601056
45.820000 1943.282543 1945.654321 1948.527566 1948.647252 1951.652995 1954.726335
45.857000 1945.056671 1948.076233 1951.275190 1951.292533 1954.556124 1957.757345
45.870000 1945.837632 1948.985063 1952.351039 1952.235202 1955.390199 1958.544583
45.920000 1948.917919 1952.340590 1956.257396 1956.092345 1959.719033 1963.013836
45.970000 1952.333055 1955.940464 1959.680891 1959.470642 1963.063063 1965.773709
46.020000 1955.657157 1959.411842 1963.103787 1962.668096 1965.919470 1968.159468
46.070000 1959.043207 1962.586711 1965.667786 1965.404463 1968.108640 1970.338544
46.120000 1962.656528 1965.632063 1968.102339 1967.995784 1970.264512 1972.328754
46.220000 1968.566962 1970.429891 1972.509996 1972.486345 1974.442033 1976.829712
46.270000 1970.829256 1972.569679 1974.531356 1974.585392 1976.435089 1979.175613
46.320000 1972.753467 1974.517542 1976.581773 1976.601804 1978.574945 1981.243365
46.370000 1974.818820 1976.701689 1978.781529 1978.877726 1981.032981 1983.468541
46.420000 1977.495942 1979.378264 1981.539342 1981.622382 1983.861716 1986.230620
46.470000 1980.155877 1982.216747 1984.467898 1984.557585 1986.925149 1989.508486
46.520000 1982.592828 1984.551195 1987.044490 1987.095330 1989.588857 1992.062853
46.570000 1984.530714 1986.690658 1989.183223 1989.278697 1991.897391 1994.387252
46.620000 1986.232110 1988.579357 1991.201142 1991.241583 1993.992095 1996.415671
46.670000 1988.005503 1990.348744 1993.163821 1993.135374 1995.861749 1998.700210
46.720000 1989.833980 1992.182264 1995.041466 1995.033999 1997.758041 2000.816359
46.770000 1991.608132 1994.091916 1996.931427 1996.906250 1999.623886 2002.451270
46.820000 1993.630826 1996.234786 1999.000982 1998.958867 2001.602149 2004.417326
46.870000 1995.770408 1998.390712 2001.206230 2001.144272 2003.889228 2006.397266
46.920000 1998.550062 2000.999798 2003.778490 2003.744818 2006.470408 2009.062813
46.990000 2001.410778 2004.440369 2007.007234 2007.093556 2009.831484 2012.762962
47.040000 2003.683699 2006.536742 2009.293912 2009.376191 2012.079071 2015.336943
47.090000 2006.042624 2008.762984 2011.637157 2011.716308 2014.473527 2017.625921
47.140000 2008.639211 2011.016754 2013.990473 2014.052801 2017.026240 2019.908227
47.190000 2010.845801 2013.156831 2016.085430 2016.150479 2019.169683 2022.296988
47.240000 2012.764757 2015.124025 2017.935475 2018.111895 2021.058977 2024.089848
47.290000 2014.695617 2016.969033 2019.861553 2020.019961 2022.924405 2026.120483
47.340000 2016.494949 2018.908953 2021.796608 2021.940140 2024.795478 2028.156123
47.390000 2018.579164 2020.848776 2023.757655 2023.959472 2026.722009 2031.021385
47.440000 2020.518592 2023.048701 2025.769719 2026.051500 2029.113304 2033.534971
47.490000 2022.537029 2025.072170 2028.018301 2028.354655 2031.684128 2036.305963
47.540000 2024.959591 2027.402524 2030.512170 2030.990987 2034.572682 2038.914926
47.590000 2026.504862 2029.677998 2033.176359 2033.614497 2037.772427 2042.897321
47.640000 2028.772251 2031.719528 2035.513532 2036.196064 2040.791542 2046.724439
47.690000 2030.601258 2033.992641 2038.065491 2038.755229 2043.681442 2049.959609
47.740000 2032.565966 2036.148075 2040.652739 2041.323997 2046.555656 2053.746614
