depth(m) lower_95(kyr) lower_68(kyr) median(kyr) mean(kyr) upper_68(kyr) upper_95(kyr)
213.780000 1762.639308 1765.590020 1768.759270 1768.485886 1771.363486 1773.032825
213.925455 1763.168845 1766.085351 1769.233803 1768.981939 1771.806362 1773.416364
214.070909 1763.490862 1766.520041 1769.703477 1769.463144 1772.211695 1773.869023
214.216364 1764.140817 1767.003267 1770.155591 1769.936144 1772.642521 1774.359340
214.361818 1764.804767 1767.468381 1770.612558 1770.399994 1773.087253 1774.709608
214.507273 1765.389186 1768.036903 1771.114024 1770.859811 1773.421139 1775.163472
214.652727 1765.971178 1768.521444 1771.525549 1771.308236 1773.837989 1775.568366
214.798182 1766.571623 1769.045864 1771.983881 1771.743133 1774.186386 1775.932036
214.943636 1767.069442 1769.586709 1772.441966 1772.185433 1774.572774 1776.268798
215.089091 1767.581900 1770.089353 1772.855330 1772.607140 1774.964812 1776.609883
215.234545 1768.191079 1770.597577 1773.289240 1773.032431 1775.310933 1776.892376
215.380000 1768.799062 1771.104742 1773.684320 1773.463119 1775.724399 1777.245882
215.525455 1769.308222 1771.648471 1774.120266 1773.887710 1776.062491 1777.518861
215.670909 1769.879373 1772.188835 1774.451149 1774.307509 1776.450104 1777.824463
215.816364 1770.306758 1772.649454 1774.891049 1774.745134 1776.808683 1778.296045
215.961818 1770.967749 1773.088348 1775.299034 1775.174955 1777.145514 1778.608220
216.107273 1771.568528 1773.631305 1775.772739 1775.621601 1777.564055 1778.969482
216.252727 1772.053283 1774.064518 1776.212210 1776.046765 1777.955449 1779.311591
216.398182 1772.623507 1774.552895 1776.599231 1776.469426 1778.329663 1779.701962
216.543636 1773.297814 1775.016540 1777.016593 1776.893162 1778.743018 1780.141202
216.689091 1773.608938 1775.433809 1777.439232 1777.308429 1779.097592 1780.517464
216.834545 1774.008901 1775.869347 1777.943244 1777.743530 1779.469417 1780.859672
216.980000 1774.565397 1776.384090 1778.316927 1778.164014 1779.861187 1781.215669
217.125455 1775.092740 1776.869692 1778.740931 1778.604740 1780.254856 1781.587660
217.270909 1775.576786 1777.328035 1779.127835 1779.041195 1780.674333 1782.013844
217.416364 1776.113810 1777.791090 1779.587928 1779.475996 1781.065535 1782.431107
217.561818 1776.685104 1778.233145 1780.017588 1779.917662 1781.464859 1782.769980
217.707273 1777.009575 1778.698093 1780.439759 1780.343727 1781.837339 1783.222832
217.852727 1777.645003 1779.138664 1780.837666 1780.768670 1782.301628 1783.663444
217.998182 1778.094022 1779.677224 1781.233650 1781.196739 1782.740790 1784.029093
218.143636 1778.574568 1780.089211 1781.640911 1781.621782 1783.178209 1784.526047
218.289091 1779.017932 1780.522005 1782.088815 1782.050231 1783.587135 1784.855733
218.434545 1779.512854 1780.958182 1782.489145 1782.478785 1783.975705 1785.324173
218.580000 1780.056964 1781.443357 1782.939771 1782.924321 1784.394818 1785.717004
218.680000 1780.319109 1781.784014 1783.244373 1783.231826 1784.692546 1785.965079
218.780000 1780.622180 1782.166651 1783.557257 1783.541550 1785.030393 1786.257890
218.880000 1780.956300 1782.549008 1783.840401 1783.854683 1785.338081 1786.585206
218.980000 1781.240568 1782.926140 1784.141995 1784.175885 1785.620389 1786.929285
219.080000 1781.625647 1783.292192 1784.435025 1784.502564 1785.911442 1787.160269
219.180000 1782.197525 1783.612765 1784.795303 1784.823977 1786.187933 1787.442578
219.308571 1782.620412 1783.978532 1785.174300 1785.204245 1786.531981 1787.807273
219.437143 1782.952797 1784.341538 1785.571493 1785.593154 1786.885830 1788.256155
219.565714 1783.361341 1784.670644 1785.946791 1785.968147 1787.276086 1788.557948
219.694286 1783.753576 1785.033086 1786.304555 1786.339703 1787.682399 1788.950619
219.822857 1784.228576 1785.404211 1786.704322 1786.712941 1787.984140 1789.210130
219.951429 1784.717558 1785.787746 1787.106786 1787.110658 1788.405406 1789.545506
220.080000 1785.148160 1786.201487 1787.489370 1787.492552 1788.777029 1789.943896
220.217500 1785.565773 1786.645433 1787.940060 1787.922830 1789.228134 1790.327734
220.355000 1785.901851 1787.070743 1788.383984 1788.371464 1789.680716 1790.831590
220.492500 1786.326647 1787.469917 1788.875017 1788.828159 1790.155080 1791.354947
220.630000 1786.778746 1787.896651 1789.323930 1789.283516 1790.588372 1791.818626
220.680000 1786.912804 1788.077306 1789.486714 1789.464315 1790.760548 1792.001068
220.825000 1787.477580 1788.605953 1790.035408 1790.030616 1791.413315 1792.686131
220.970000 1787.891519 1789.150319 1790.598963 1790.611873 1792.036918 1793.515441
221.115000 1788.350650 1789.699257 1791.194734 1791.195570 1792.644408 1794.076481
221.260000 1788.892027 1790.340116 1791.775014 1791.813204 1793.292976 1794.778024
221.405000 1789.404724 1790.870384 1792.365703 1792.409092 1794.010850 1795.640948
221.550000 1789.830247 1791.375800 1792.969556 1792.994048 1794.675116 1796.217029
221.695000 1790.297821 1791.961778 1793.565152 1793.615479 1795.376862 1796.958253
221.840000 1791.050143 1792.482307 1794.152324 1794.216369 1795.942600 1797.797717
221.985000 1791.645525 1793.133149 1794.784034 1794.859964 1796.584621 1798.436650
222.130000 1792.358978 1793.797545 1795.464745 1795.523347 1797.342226 1799.137094
222.263333 1792.913811 1794.363571 1796.082593 1796.151664 1798.021819 1799.741394
222.396667 1793.372446 1795.045854 1796.735313 1796.791796 1798.559727 1800.543106
222.530000 1793.882262 1795.583218 1797.392756 1797.448124 1799.259168 1801.014589
222.663333 1794.410871 1796.193535 1797.991021 1798.057384 1799.911320 1801.680853
222.796667 1794.828183 1796.865431 1798.676354 1798.683589 1800.546705 1802.347894
222.930000 1795.440606 1797.468725 1799.270049 1799.315058 1801.226292 1803.095323
223.063333 1796.057882 1798.116688 1799.951519 1799.950720 1801.797014 1803.727349
223.196667 1796.754208 1798.771229 1800.537126 1800.580567 1802.494951 1804.306815
223.330000 1797.395216 1799.334334 1801.168308 1801.205617 1803.058797 1805.084000
223.463333 1797.802512 1799.882603 1801.755652 1801.811033 1803.796254 1805.815100
223.596667 1798.479230 1800.469096 1802.267887 1802.401377 1804.405359 1806.534956
223.730000 1799.106232 1800.969106 1802.842489 1802.962040 1805.017351 1807.111635
223.863333 1799.753375 1801.518184 1803.344226 1803.517822 1805.616579 1807.846438
223.996667 1800.410592 1801.945410 1803.897346 1804.070507 1806.305035 1808.500991
224.130000 1800.917298 1802.445620 1804.493007 1804.614650 1806.902155 1809.228299
224.263333 1801.441201 1803.008119 1804.953583 1805.160901 1807.414656 1809.952696
224.396667 1801.948890 1803.459110 1805.433659 1805.665890 1807.899138 1810.303126
224.530000 1802.449528 1804.018093 1806.006510 1806.181487 1808.378067 1810.840951
