depth(m) lower_95(kyr) lower_68(kyr) median(kyr) mean(kyr) upper_68(kyr) upper_95(kyr)
291.497000 53873.985872 53874.930632 53875.926841 53875.907990 53876.892490 53877.766347
291.507000 53874.391189 53875.405458 53876.458858 53876.480254 53877.517572 53878.645605
291.517000 53874.808905 53875.895430 53877.055666 53877.038000 53878.130010 53879.302802
291.526000 53875.235060 53876.334293 53877.545408 53877.534462 53878.723377 53880.024331
291.536000 53875.728191 53876.824691 53878.081551 53878.091957 53879.300353 53880.748563
291.546000 53876.088171 53877.258045 53878.621031 53878.634310 53879.911694 53881.474483
291.555000 53876.443481 53877.680565 53879.056197 53879.117305 53880.511525 53881.974396
291.568000 53876.953980 53878.394273 53879.760053 53879.828913 53881.301476 53882.825787
291.585000 53877.550930 53879.148891 53880.733265 53880.742247 53882.329971 53884.100522
291.602000 53878.531821 53879.910520 53881.670528 53881.654518 53883.353601 53885.238807
291.618000 53878.990458 53880.558067 53882.463311 53882.488136 53884.363565 53886.324591
291.635000 53879.902897 53881.353008 53883.320014 53883.335628 53885.289189 53887.323745
291.651000 53880.556303 53882.079175 53884.107320 53884.166270 53886.324273 53888.221857
291.668000 53881.245047 53882.907290 53885.029816 53885.030982 53887.185396 53889.070858
291.685000 53881.821576 53883.695449 53885.956297 53885.919809 53888.115328 53890.028570
291.701000 53882.527557 53884.422916 53886.652640 53886.695586 53888.857463 53890.834782
291.718000 53883.262705 53885.343526 53887.559928 53887.541985 53889.666306 53891.523794
291.734000 53883.941351 53886.251971 53888.455838 53888.363759 53890.485407 53892.366432
291.751000 53884.730172 53887.160207 53889.320534 53889.202945 53891.430830 53893.236228
291.768000 53885.393169 53887.846305 53890.081113 53890.022084 53892.177558 53894.195384
291.784000 53886.397771 53888.722830 53890.876633 53890.825445 53892.918428 53894.855266
291.801000 53887.315495 53889.616180 53891.769559 53891.694194 53893.691658 53895.743277
291.818000 53888.248938 53890.544207 53892.661514 53892.548774 53894.452932 53896.605307
291.834000 53889.002427 53891.343797 53893.535204 53893.405758 53895.272076 53897.725370
291.851000 53889.972957 53892.270218 53894.353359 53894.318485 53896.224025 53898.924142
291.867000 53890.871782 53893.084274 53895.144993 53895.145011 53896.998358 53899.888431
291.884000 53892.102828 53893.910308 53895.909547 53895.973822 53897.864389 53900.698468
291.901000 53892.897248 53894.717404 53896.687867 53896.769277 53898.726508 53901.561332
291.917000 53893.509522 53895.540536 53897.401021 53897.536393 53899.559354 53902.411006
291.934000 53894.392724 53896.325403 53898.216283 53898.337309 53900.408218 53903.178781
291.951000 53895.149012 53897.126538 53899.044136 53899.168749 53901.299288 53903.810834
291.967000 53895.864103 53897.917355 53899.795066 53899.919692 53902.039375 53904.631749
291.984000 53896.726641 53898.681157 53900.628543 53900.728752 53902.847207 53905.487031
292.000000 53897.393306 53899.416618 53901.365471 53901.502422 53903.711319 53906.231299
292.017000 53898.328705 53900.164158 53902.251041 53902.336651 53904.527765 53906.956577
292.034000 53899.036720 53900.918423 53902.994559 53903.144542 53905.385517 53907.553470
292.050000 53899.782876 53901.634690 53903.770979 53903.874278 53906.174994 53908.267784
292.067000 53900.623580 53902.448515 53904.561012 53904.663681 53906.955605 53908.984907
292.083000 53901.381117 53903.225135 53905.283866 53905.393721 53907.629905 53909.735326
292.100000 53902.230410 53904.026564 53906.136401 53906.202047 53908.401589 53910.498633
292.117000 53902.975569 53904.839647 53906.883529 53907.003786 53909.226933 53911.315535
292.133000 53903.736536 53905.678481 53907.666799 53907.795965 53910.064693 53911.924105
292.150000 53904.516009 53906.517712 53908.588527 53908.643385 53910.895197 53912.588043
292.167000 53905.315023 53907.368298 53909.536061 53909.480461 53911.701313 53913.501332
292.183000 53906.008388 53908.076175 53910.338170 53910.289488 53912.469714 53914.328756
292.200000 53906.923998 53908.937618 53911.198195 53911.159535 53913.295008 53915.385507
292.216000 53907.820692 53909.715783 53912.002894 53911.936389 53914.037403 53916.250399
292.233000 53908.707670 53910.614594 53912.826043 53912.802305 53914.928307 53916.942144
292.250000 53909.671412 53911.454692 53913.709170 53913.689480 53915.791195 53917.922030
292.266000 53910.464694 53912.402510 53914.682570 53914.606132 53916.639779 53918.637576
292.283000 53911.375383 53913.302325 53915.697395 53915.608397 53917.701175 53919.916355
292.299000 53912.266403 53914.353405 53916.707048 53916.598697 53918.651283 53920.954331
292.316000 53913.225972 53915.449979 53917.744868 53917.642163 53919.689360 53922.003627
292.333000 53914.439444 53916.671290 53918.872413 53918.793793 53920.894584 53923.056699
292.349000 53915.156987 53917.765709 53919.776028 53919.812731 53921.986836 53924.246844
292.366000 53916.148869 53918.886536 53920.914840 53920.938106 53923.165856 53925.363852
292.383000 53917.542820 53919.881215 53922.019085 53922.052562 53924.342725 53926.531421
292.399000 53918.917839 53920.976080 53922.998810 53923.077648 53925.285111 53927.595840
292.416000 53919.793278 53922.041477 53924.157990 53924.207770 53926.397474 53928.781834
292.432000 53920.797354 53923.086289 53925.171190 53925.203115 53927.389801 53929.767587
292.449000 53921.781671 53924.213890 53926.221713 53926.315267 53928.543608 53930.764681
292.466000 53923.097071 53925.250229 53927.406099 53927.438196 53929.590008 53931.810440
292.482000 53924.077516 53926.378948 53928.483861 53928.511667 53930.665019 53932.904994
292.499000 53925.603879 53927.705489 53929.783443 53929.782708 53931.946805 53933.844712
292.516000 53927.076529 53929.013472 53931.075285 53931.075460 53933.189897 53935.012854
292.532000 53928.088952 53930.147730 53932.198806 53932.177808 53934.269178 53936.043662
292.549000 53929.209698 53931.360942 53933.611084 53933.442792 53935.521914 53937.259101
292.565000 53930.469791 53932.622101 53934.755858 53934.642538 53936.645072 53938.405983
292.582000 53931.894352 53933.876972 53936.066373 53935.902465 53937.883711 53939.446402
292.599000 53933.321556 53935.165449 53937.310551 53937.187854 53939.089518 53940.481750
292.615000 53934.348920 53936.734729 53938.627723 53938.463720 53940.242349 53941.426043
292.632000 53936.024723 53938.117616 53939.831099 53939.676304 53941.299075 53942.520299
292.648000 53937.327497 53939.168702 53940.678836 53940.589151 53942.073754 53943.197134
292.665000 53938.791625 53940.215637 53941.539102 53941.502507 53942.766621 53943.830565
292.682000 53940.135478 53941.354243 53942.508643 53942.456836 53943.599222 53944.452610
292.695000 53941.341042 53942.312498 53943.404920 53943.340779 53944.337888 53945.013721
292.705000 53942.044135 53943.078299 53944.122828 53944.025726 53944.923925 53945.554003
292.715000 53942.702362 53943.838568 53944.698023 53944.622840 53945.421653 53946.029111
292.725000 53943.449010 53944.440768 53945.219400 53945.161272 53945.856381 53946.500292
292.735000 53944.150318 53944.951231 53945.704751 53945.647630 53946.319504 53946.914240
292.745000 53944.652771 53945.406866 53946.121806 53946.095404 53946.739588 53947.411840
292.755000 53945.077830 53945.831099 53946.521880 53946.493504 53947.130994 53947.824273
292.765000 53945.609102 53946.242883 53946.870321 53946.881122 53947.503127 53948.246725
292.775000 53945.981625 53946.612658 53947.240723 53947.254149 53947.863753 53948.575160
292.785000 53946.382443 53946.993997 53947.607528 53947.628055 53948.261016 53948.984356
292.795000 53946.717606 53947.412977 53947.987560 53948.033227 53948.724863 53949.400684
292.805000 53947.147041 53947.808248 53948.424753 53948.464881 53949.169850 53949.899254
292.815000 53947.469910 53948.223776 53948.861060 53948.908174 53949.632909 53950.435875
292.825000 53948.029742 53948.672120 53949.394741 53949.413858 53950.159611 53951.004308
292.835000 53948.508492 53949.226985 53949.968438 53949.990814 53950.744711 53951.580267
292.845000 53949.001372 53949.732544 53950.505288 53950.520971 53951.326432 53952.075053
292.855000 53949.491925 53950.223796 53950.967260 53950.994492 53951.768200 53952.554839
292.865000 53949.910292 53950.697389 53951.393976 53951.419280 53952.153511 53952.969296
292.875000 53950.351850 53951.061197 53951.773304 53951.797377 53952.554152 53953.345526
292.885000 53950.767947 53951.427493 53952.134500 53952.164451 53952.936384 53953.724295
292.895000 53951.167726 53951.769728 53952.470164 53952.515686 53953.306525 53954.026677
292.905000 53951.505205 53952.106398 53952.801328 53952.855946 53953.662666 53954.385223
292.915000 53951.919441 53952.443334 53953.131916 53953.197754 53954.016175 53954.695354
292.925000 53952.232343 53952.748890 53953.461763 53953.519689 53954.351611 53955.035785
292.935000 53952.541851 53953.084203 53953.798792 53953.847708 53954.648755 53955.333281
292.945000 53952.861196 53953.390690 53954.138870 53954.170442 53954.987890 53955.636587
292.955000 53953.184698 53953.691435 53954.463707 53954.488915 53955.332527 53955.976117
292.965000 53953.511036 53954.033972 53954.788163 53954.808353 53955.645679 53956.296176
292.975000 53953.822783 53954.357310 53955.108306 53955.128657 53955.989437 53956.619370
292.985000 53954.163979 53954.670090 53955.440272 53955.456659 53956.322970 53956.912983
292.995000 53954.443662 53954.995348 53955.767408 53955.788094 53956.638382 53957.229948
293.003000 53954.792562 53955.277505 53956.047755 53956.084736 53956.914370 53957.490985
293.009000 53954.991284 53955.523492 53956.285105 53956.315947 53957.157031 53957.715744
293.017000 53955.297866 53955.881563 53956.596777 53956.644401 53957.453984 53957.998268
293.025000 53955.632533 53956.249384 53956.961143 53956.998537 53957.774329 53958.352128
293.035000 53956.056276 53956.711822 53957.451827 53957.442359 53958.196618 53958.707571
293.045000 53956.433685 53957.162519 53957.921920 53957.873344 53958.600287 53959.214799
293.055000 53956.829056 53957.584917 53958.345915 53958.305294 53958.988560 53959.633460
293.065000 53957.242204 53958.008220 53958.788783 53958.725585 53959.381314 53959.963594
293.075000 53957.745931 53958.447311 53959.190750 53959.128207 53959.771166 53960.368656
293.085000 53958.135213 53958.863441 53959.595085 53959.532011 53960.194313 53960.764474
293.095000 53958.465069 53959.279596 53959.956991 53959.915271 53960.557136 53961.089174
293.105000 53958.847501 53959.671902 53960.318504 53960.282586 53960.922171 53961.461418
293.115000 53959.208259 53960.046940 53960.657919 53960.624109 53961.226358 53961.782583
293.125000 53959.563413 53960.389575 53960.983962 53960.958810 53961.543448 53962.115834
293.135000 53959.886788 53960.703133 53961.319951 53961.292249 53961.880617 53962.455346
293.145000 53960.293661 53961.044568 53961.650272 53961.625283 53962.218967 53962.773164
293.155000 53960.652129 53961.376562 53962.004084 53961.958563 53962.527815 53963.092465
293.165000 53960.973375 53961.698649 53962.316355 53962.289019 53962.869684 53963.405331
293.175000 53961.357832 53962.060444 53962.666561 53962.621886 53963.180581 53963.721394
293.185000 53961.703779 53962.389589 53962.995596 53962.952455 53963.532321 53964.060376
293.195000 53962.016607 53962.710633 53963.318552 53963.280709 53963.845834 53964.419440
293.205000 53962.445494 53963.065438 53963.634133 53963.620518 53964.160845 53964.783137
293.215000 53962.811954 53963.432200 53963.984401 53963.971684 53964.529855 53965.053768
293.225000 53963.164775 53963.802008 53964.358105 53964.338594 53964.891610 53965.423073
293.235000 53963.470028 53964.171509 53964.711626 53964.717076 53965.274560 53965.876323
293.245000 53963.806194 53964.578448 53965.114147 53965.116500 53965.703017 53966.302650
293.255000 53964.189066 53964.951589 53965.509834 53965.517608 53966.149111 53966.735358
293.265000 53964.571216 53965.280712 53965.872477 53965.898773 53966.539747 53967.321478
293.275000 53965.012750 53965.653318 53966.261085 53966.304962 53966.972987 53967.796263
293.285000 53965.474865 53966.069744 53966.658519 53966.745951 53967.443308 53968.370195
293.295000 53965.904827 53966.484071 53967.132915 53967.228896 53967.994855 53968.999181
293.305000 53966.295858 53966.884302 53967.567528 53967.677428 53968.500658 53969.637590
293.315000 53966.659878 53967.268543 53967.995794 53968.105957 53968.966433 53970.285174
293.325000 53966.982106 53967.701245 53968.401985 53968.564873 53969.439495 53970.933296
293.335000 53967.400774 53968.112480 53968.885673 53969.051681 53970.014405 53971.593920
293.345000 53967.808800 53968.614032 53969.434355 53969.600695 53970.609608 53972.289950
293.355000 53968.328028 53969.088282 53969.932954 53970.133429 53971.186298 53972.807541
293.365000 53968.720691 53969.493363 53970.453059 53970.618665 53971.713120 53973.490330
293.375000 53969.166476 53969.928872 53970.899893 53971.089121 53972.249542 53973.891704
293.385000 53969.603498 53970.361087 53971.347729 53971.557278 53972.773368 53974.398968
293.395000 53970.063891 53970.812326 53971.847915 53972.051496 53973.368493 53974.926185
293.405000 53970.415071 53971.233492 53972.350769 53972.535924 53973.936267 53975.525757
293.415000 53970.826680 53971.696939 53972.807116 53973.022674 53974.541042 53975.969734
293.425000 53971.142083 53972.081959 53973.277812 53973.484850 53975.097330 53976.489623
293.435000 53971.556836 53972.515459 53973.728061 53973.951547 53975.629013 53977.057139
293.445000 53972.020472 53972.918755 53974.237335 53974.408990 53976.131277 53977.576207
293.455000 53972.458912 53973.327830 53974.638328 53974.882074 53976.613997 53978.122971
293.465000 53972.819358 53973.721944 53975.072700 53975.334180 53977.103073 53978.636305
293.475000 53973.144531 53974.153738 53975.552164 53975.771705 53977.566712 53979.089246
293.485000 53973.546914 53974.560649 53976.098377 53976.244937 53977.998409 53979.641035
293.495000 53973.942225 53974.992868 53976.557402 53976.707715 53978.522615 53980.213598
293.505000 53974.395229 53975.396095 53977.023895 53977.175253 53978.983507 53980.599271
293.515000 53974.786938 53975.787750 53977.542362 53977.649566 53979.457772 53981.193885
293.525000 53975.139187 53976.248015 53978.002405 53978.120347 53980.006340 53981.741657
293.535000 53975.497402 53976.639573 53978.513145 53978.594500 53980.554544 53982.246427
293.545000 53975.922923 53977.100876 53978.991425 53979.080849 53981.080441 53982.808298
293.555000 53976.402464 53977.580832 53979.484598 53979.582992 53981.635550 53983.326301
293.565000 53976.921209 53978.051715 53979.969970 53980.073412 53982.092187 53983.972974
293.575000 53977.305245 53978.533545 53980.417628 53980.561766 53982.653447 53984.445127
293.585000 53977.706654 53979.034173 53980.859981 53981.016899 53983.129932 53984.841812
293.595000 53978.110290 53979.479242 53981.287240 53981.484068 53983.670516 53985.373312
293.605000 53978.440546 53979.953636 53981.718566 53981.928516 53984.118235 53985.911106
293.615000 53978.896825 53980.496539 53982.165362 53982.403527 53984.582618 53986.300655
293.625000 53979.289268 53980.998954 53982.570191 53982.875526 53985.010919 53986.769653
293.635000 53979.835278 53981.540859 53983.087794 53983.355371 53985.496897 53987.134171
293.645000 53980.387246 53982.084554 53983.537577 53983.846045 53986.100004 53987.597275
293.655000 53980.842953 53982.575139 53983.995159 53984.320995 53986.648530 53988.081991
293.665000 53981.340182 53983.069815 53984.529350 53984.828715 53987.115735 53988.439013
293.675000 53981.831450 53983.518517 53985.014502 53985.323103 53987.609969 53988.871599
293.685000 53982.370866 53984.070619 53985.575230 53985.819236 53988.015441 53989.323720
293.695000 53982.852227 53984.587611 53986.126368 53986.329385 53988.472361 53989.661605
293.705000 53983.430818 53985.132687 53986.666586 53986.857585 53988.918005 53990.147603
293.715000 53983.899652 53985.669426 53987.250587 53987.392632 53989.403870 53990.556998
293.725000 53984.496233 53986.177733 53987.857053 53987.919764 53989.867088 53990.956916
293.735000 53985.028683 53986.694708 53988.456845 53988.443759 53990.304079 53991.407556
293.745000 53985.678602 53987.229296 53989.034315 53988.954989 53990.732151 53991.855336
293.755000 53986.163543 53987.761608 53989.545079 53989.437062 53991.094241 53992.312547
293.765000 53986.725803 53988.197059 53990.110871 53989.912718 53991.501451 53992.786915
293.775000 53987.229707 53988.625162 53990.604664 53990.388541 53991.980614 53993.199843
293.785000 53987.701069 53989.097447 53991.103480 53990.863538 53992.439388 53993.604323
293.795000 53988.237409 53989.651354 53991.568969 53991.394330 53993.003013 53994.047555
293.805000 53988.730954 53990.181309 53992.137172 53991.923235 53993.508307 53994.597221
293.815000 53989.251205 53990.673426 53992.627349 53992.444578 53994.026204 53995.010463
293.825000 53989.715004 53991.210076 53993.153360 53992.952996 53994.497370 53995.411997
293.835000 53990.196893 53991.795046 53993.637840 53993.452084 53994.926250 53995.855353
293.845000 53990.758363 53992.332121 53994.174038 53993.959674 53995.369296 53996.381524
293.855000 53991.242807 53992.883910 53994.750451 53994.463557 53995.807903 53996.855978
293.865000 53991.826194 53993.432449 53995.224153 53994.959295 53996.260234 53997.328265
293.875000 53992.269044 53994.002769 53995.724364 53995.427431 53996.669878 53997.704106
293.885000 53992.858071 53994.453827 53996.179525 53995.898262 53997.101475 53998.103856
293.895000 53993.272454 53994.874843 53996.600824 53996.341842 53997.535176 53998.682896
293.905000 53993.713140 53995.348055 53997.036504 53996.809280 53997.965813 53999.237457
293.915000 53994.269227 53995.869404 53997.458112 53997.273988 53998.437847 53999.765410
293.925000 53994.672452 53996.372110 53997.902095 53997.710543 53998.844498 54000.140850
293.935000 53995.086083 53996.872762 53998.266317 53998.147767 53999.284895 54000.569344
293.945000 53995.632534 53997.358696 53998.676717 53998.584207 53999.789686 54000.977262
293.955000 53996.086290 53997.814162 53999.112942 53999.046276 54000.262034 54001.460819
293.965000 53996.635512 53998.305672 53999.521564 53999.485162 54000.660005 54001.932658
293.975000 53996.902359 53998.818765 53999.957797 53999.928285 54001.097337 54002.444411
293.985000 53997.436398 53999.271113 54000.401475 54000.368876 54001.581198 54003.074143
293.995000 53997.945783 53999.660021 54000.861445 54000.831083 54002.011458 54003.432453
294.005000 53998.771840 54000.093886 54001.351414 54001.296665 54002.494460 54003.940252
294.015000 53999.280858 54000.548189 54001.801512 54001.763718 54003.016345 54004.395861
294.025000 53999.792763 54000.960098 54002.250686 54002.218192 54003.459539 54004.842831
294.035000 54000.303953 54001.423851 54002.695794 54002.671361 54003.876632 54005.360757
294.045000 54000.781536 54001.888847 54003.175564 54003.154166 54004.344964 54005.831794
294.055000 54001.363376 54002.396686 54003.639516 54003.627506 54004.833092 54006.254631
294.065000 54001.812301 54002.901730 54004.102523 54004.107797 54005.303652 54006.663288
294.075000 54002.284307 54003.382335 54004.624589 54004.607369 54005.863831 54007.104780
294.085000 54002.744974 54003.879062 54005.144704 54005.116564 54006.356126 54007.492244
294.095000 54003.274754 54004.393290 54005.627922 54005.615164 54006.851640 54007.940669
294.105000 54003.951532 54004.909698 54006.126951 54006.142116 54007.357940 54008.353132
294.115000 54004.435399 54005.521309 54006.727021 54006.727126 54007.947265 54009.088960
294.125000 54004.996046 54006.203425 54007.321889 54007.331344 54008.508466 54009.550048
294.135000 54005.663057 54006.885379 54007.986400 54007.983580 54009.114478 54010.337510
294.145000 54006.266139 54007.442342 54008.546723 54008.574001 54009.618010 54010.927057
294.155000 54006.899165 54008.039769 54009.128896 54009.128954 54010.154279 54011.656558
