depth(m) lower_95(kyr) lower_68(kyr) median(kyr) mean(kyr) upper_68(kyr) upper_95(kyr)
117.020000 37574.228482 37575.247581 37576.231388 37576.203966 37577.122719 37578.166001
117.060000 37577.540879 37579.291615 37581.264845 37582.299922 37585.221168 37592.612713
117.100000 37581.040783 37583.289921 37586.620544 37588.090224 37593.341907 37600.590592
117.140000 37584.725439 37587.807153 37592.519367 37594.006569 37601.204479 37609.852903
117.180000 37589.103330 37592.723010 37599.232996 37600.255720 37608.142213 37616.615309
117.220000 37593.106375 37597.723691 37605.915749 37606.820982 37615.867245 37624.661778
117.260000 37598.042528 37603.549314 37612.820505 37613.321938 37622.815315 37632.024489
117.300000 37603.306550 37610.153443 37619.711355 37619.912830 37629.212913 37638.629281
117.340000 37608.798145 37617.158861 37626.918198 37626.708646 37635.958055 37644.812779
117.380000 37616.135993 37624.200793 37633.654820 37633.766854 37643.322770 37651.899128
117.420000 37622.622924 37631.554482 37640.791308 37640.614901 37649.533283 37658.510923
117.460000 37629.863271 37638.811125 37647.172493 37647.121609 37655.771054 37664.028428
117.500000 37635.533434 37644.718754 37653.437940 37653.295171 37662.542372 37669.708432
117.540000 37642.596702 37650.537454 37659.266905 37659.276000 37668.288719 37676.045102
117.580000 37648.750764 37656.562915 37664.864915 37665.110239 37673.944324 37681.872050
117.620000 37654.748828 37662.155391 37670.872208 37670.931233 37679.631566 37687.228553
117.660000 37660.238331 37667.964952 37676.733964 37676.640928 37685.384912 37691.827842
117.700000 37665.430691 37673.755051 37682.253035 37682.106555 37690.835411 37697.656408
117.740000 37671.019106 37679.316201 37687.816591 37687.606143 37695.697099 37702.797066
117.780000 37675.569014 37685.099393 37693.171503 37692.955667 37700.781181 37707.637222
117.820000 37680.779272 37690.323095 37698.463572 37697.907677 37705.825224 37712.111462
117.860000 37686.641670 37695.089918 37703.239755 37702.766199 37710.487807 37716.394773
117.900000 37692.772795 37700.191764 37707.953121 37707.606993 37714.773183 37720.519550
117.940000 37698.392661 37705.402812 37712.671920 37712.282602 37718.997021 37724.764040
117.980000 37703.625182 37710.379330 37717.095351 37716.850324 37723.071281 37729.854481
118.020000 37707.932755 37714.881449 37721.317747 37721.200775 37727.498876 37734.005692
118.060000 37712.713701 37718.906376 37725.600132 37725.612355 37731.919091 37739.494536
118.100000 37717.352051 37723.216481 37729.596800 37730.045749 37736.719962 37744.674013
118.140000 37721.698546 37727.566867 37734.295344 37734.720976 37742.018520 37750.081351
118.180000 37725.442660 37731.982029 37738.723066 37739.728322 37747.706709 37757.520272
118.220000 37729.945043 37736.419126 37743.943760 37745.267228 37754.221213 37766.402142
118.260000 37734.202466 37741.105618 37750.469824 37751.639463 37762.928084 37774.706555
118.300000 37738.316017 37746.930930 37757.481216 37758.703548 37771.744127 37782.605438
118.340000 37743.251907 37752.949830 37765.677326 37766.277542 37780.181865 37791.054950
118.380000 37749.440214 37760.087147 37774.445702 37774.450164 37788.757709 37800.128005
118.420000 37755.880623 37767.931642 37783.494815 37782.611101 37796.286773 37808.710283
118.460000 37763.805669 37776.518993 37791.734894 37790.673972 37804.041411 37814.361859
118.500000 37772.877776 37785.854156 37799.203783 37798.560525 37811.198994 37821.552720
118.540000 37781.571900 37794.707438 37806.767302 37806.303484 37818.521112 37828.689292
118.580000 37790.056860 37802.154786 37814.308379 37813.963840 37825.227512 37835.810183
118.620000 37797.945874 37809.846371 37821.525046 37821.359222 37832.655172 37843.940935
118.660000 37806.223401 37817.070474 37829.060136 37828.763326 37840.739419 37850.797071
118.700000 37812.507033 37824.946128 37836.169386 37836.231301 37848.506584 37858.228624
118.740000 37821.438204 37831.749176 37843.898983 37843.338802 37854.835298 37863.681247
118.780000 37829.001389 37838.598528 37850.583111 37849.932500 37860.709401 37868.876288
118.820000 37837.032217 37846.528163 37857.125149 37856.483310 37865.757147 37872.993476
118.860000 37843.850456 37854.409887 37863.080078 37862.482954 37870.884342 37876.689195
118.900000 37850.456166 37860.557331 37868.222734 37867.622016 37874.928072 37880.556206
118.940000 37856.124549 37865.451060 37872.969174 37872.372991 37879.113471 37884.838295
118.980000 37861.730290 37870.506045 37876.963216 37876.631374 37883.124469 37888.562458
119.020000 37866.551395 37874.545094 37880.904038 37880.557540 37886.503989 37892.457249
119.060000 37871.512124 37878.733194 37884.519710 37884.256243 37890.122634 37894.859970
119.100000 37876.620421 37882.359547 37888.044032 37887.975340 37893.408004 37898.344065
119.140000 37880.525184 37885.976959 37891.655617 37891.547729 37896.974727 37901.564345
119.180000 37884.620762 37889.696496 37895.214780 37895.004222 37900.251958 37905.031123
119.220000 37887.882532 37893.012127 37898.152581 37898.146056 37903.098451 37907.915570
119.260000 37891.042373 37896.274903 37901.283244 37901.234494 37906.141820 37910.603407
119.300000 37894.532126 37899.401475 37904.505229 37904.392072 37909.278025 37914.001691
119.340000 37897.521514 37902.311838 37907.460406 37907.399575 37912.463752 37917.658612
119.380000 37900.508784 37905.263377 37910.700171 37910.527058 37915.683251 37921.353993
119.420000 37903.639943 37908.270900 37913.801755 37913.707011 37918.935737 37924.894984
119.460000 37907.174306 37911.394964 37916.793125 37916.957406 37922.010541 37928.140702
119.490000 37909.265610 37913.934438 37919.245364 37919.381399 37924.751560 37931.035388
119.540000 37912.652460 37917.950646 37923.344742 37923.471549 37929.018481 37935.144502
119.580000 37915.669259 37920.990568 37926.616605 37926.827164 37932.779759 37938.024470
119.620000 37918.777235 37924.516063 37930.105158 37930.266366 37936.198057 37941.663552
119.660000 37922.760876 37927.684682 37933.411261 37933.529093 37939.306841 37944.626660
119.700000 37925.756096 37931.102401 37936.805694 37936.809391 37942.322822 37947.827729
119.740000 37928.990036 37934.280480 37940.061457 37940.056180 37945.703020 37951.355487
119.780000 37932.389644 37937.501343 37943.486279 37943.323977 37948.777654 37954.343500
119.820000 37935.461587 37940.934873 37946.892188 37946.732992 37952.460700 37957.305671
119.860000 37938.468028 37944.613489 37950.013314 37950.038585 37955.725199 37960.531407
119.900000 37942.312642 37948.259432 37953.209593 37953.330387 37958.996281 37964.262155
119.940000 37945.354293 37951.052663 37956.693934 37956.615012 37962.097385 37967.738230
119.980000 37948.723161 37954.425571 37959.599855 37959.906672 37965.584213 37970.316680
120.020000 37952.027773 37957.903334 37963.032992 37963.174201 37968.718876 37973.748373
120.060000 37955.301541 37961.140235 37966.331882 37966.477441 37972.087044 37977.499144
120.100000 37958.215226 37964.157063 37969.649633 37969.658898 37975.266803 37980.476197
120.140000 37961.522690 37967.325087 37973.060391 37972.888855 37978.394723 37983.701039
120.180000 37965.064923 37970.317830 37976.402942 37976.122976 37981.558924 37986.840600
120.220000 37968.568282 37973.479437 37979.370861 37979.242289 37984.815202 37989.716364
120.260000 37971.482640 37976.843338 37982.343325 37982.310247 37987.661890 37992.754655
120.300000 37974.565172 37980.157398 37985.520785 37985.453510 37990.759325 37996.297618
120.340000 37977.861702 37983.329169 37988.499532 37988.452490 37993.570372 37999.022942
120.380000 37981.148327 37986.474836 37991.330067 37991.428295 37996.326619 38001.354242
120.420000 37983.899598 37989.235525 37994.275046 37994.365763 37999.276431 38004.463276
120.460000 37986.608164 37992.152602 37997.131981 37997.234206 38002.309254 38007.657627
120.500000 37990.208492 37995.280943 38000.080058 38000.236044 38005.468636 38010.948081
120.540000 37993.256172 37998.292890 38003.088891 38003.262913 38008.744944 38013.883361
120.580000 37996.174967 38001.116583 38006.126279 38006.351280 38011.651664 38017.705287
120.620000 37999.242170 38004.222949 38009.340056 38009.589825 38014.932872 38021.107919
120.660000 38002.197309 38007.097639 38012.536702 38012.792213 38018.884387 38024.556520
120.700000 38005.485747 38010.405117 38015.755074 38016.221893 38022.210081 38028.465644
120.740000 38008.513318 38013.843549 38019.456300 38019.834264 38026.083438 38032.494706
120.780000 38012.371760 38017.545610 38023.415923 38023.687524 38030.167298 38037.313332
120.820000 38016.074565 38021.248116 38027.707438 38028.006056 38034.541228 38042.878609
120.860000 38019.404348 38025.159408 38032.285603 38032.511843 38039.193066 38047.944382
120.900000 38023.705942 38029.571645 38036.931243 38037.127230 38044.516340 38052.049887
120.940000 38027.026599 38034.241180 38041.559794 38041.678222 38049.302322 38056.635822
120.980000 38032.192932 38039.193939 38046.569791 38046.652007 38054.387860 38061.346858
121.020000 38035.689346 38043.893020 38051.629694 38051.490881 38059.210647 38066.486061
121.060000 38039.727798 38048.548773 38056.545567 38056.331072 38064.089374 38071.663518
121.100000 38044.684523 38053.504493 38061.062016 38061.153721 38068.794900 38076.032816
121.140000 38050.207524 38058.043149 38066.091065 38065.796035 38073.239732 38080.519554
121.180000 38055.767648 38063.027410 38070.671522 38070.506492 38077.750687 38085.020630
121.220000 38059.926369 38068.102927 38074.943518 38074.951595 38082.060211 38089.137017
121.260000 38064.839802 38072.544507 38079.390669 38079.406842 38086.205891 38093.438503
121.300000 38069.573243 38076.920947 38083.903299 38083.764475 38090.374139 38097.189549
121.340000 38074.726194 38080.982400 38088.265445 38088.154867 38094.908597 38100.940082
121.380000 38079.795417 38086.322528 38092.706639 38092.691287 38099.507301 38104.901162
121.420000 38084.348646 38090.610788 38096.830627 38097.066695 38103.547660 38109.561464
121.460000 38088.880776 38095.328755 38101.106961 38101.425987 38107.510432 38114.329291
121.500000 38093.384731 38099.395928 38105.484394 38105.612911 38111.557724 38117.992575
121.540000 38098.563007 38103.454553 38110.041337 38109.672302 38115.248577 38121.175453
121.580000 38101.987108 38107.723516 38113.795841 38113.599545 38119.438069 38125.002925
121.620000 38105.424389 38111.828100 38117.570350 38117.472878 38123.154152 38128.779045
121.660000 38110.315782 38115.440497 38121.418748 38121.230975 38126.781884 38132.580258
121.700000 38114.375057 38119.157385 38124.825522 38124.959993 38130.712090 38136.779244
121.740000 38117.768869 38122.780739 38128.336361 38128.541866 38134.249039 38139.732237
121.780000 38121.033454 38126.381126 38132.259080 38132.056205 38137.558657 38143.052829
121.820000 38124.190137 38129.820757 38135.450911 38135.513429 38141.294085 38147.297279
121.860000 38127.990475 38133.540680 38138.818333 38138.903625 38144.305991 38150.795896
121.900000 38131.141610 38136.747917 38142.337304 38142.228878 38147.557939 38153.547138
121.940000 38134.674337 38140.130611 38145.395958 38145.445461 38150.803942 38156.482546
121.980000 38137.627490 38143.234922 38148.933658 38148.748384 38154.115544 38159.542090
122.020000 38141.289129 38146.656912 38152.214218 38152.194562 38157.567634 38163.475163
122.060000 38145.096498 38150.142272 38155.552003 38155.669647 38161.126598 38166.627068
122.100000 38148.650602 38153.360624 38159.286609 38159.303846 38164.776767 38170.543148
122.140000 38151.812832 38157.120382 38162.915022 38163.009586 38169.061177 38174.498310
122.180000 38155.850963 38160.731541 38166.582833 38166.917050 38172.842272 38178.848542
122.220000 38159.383124 38164.713461 38170.829576 38170.928445 38176.845545 38183.377996
122.260000 38163.667809 38169.040123 38175.137911 38175.152099 38181.014994 38187.281800
122.300000 38167.439456 38173.379369 38179.095571 38179.131605 38184.902544 38191.535099
122.340000 38170.661696 38177.457043 38183.131997 38183.157810 38188.829527 38195.797446
122.380000 38175.279129 38181.319064 38187.053876 38187.103275 38192.843955 38198.892652
122.420000 38179.737531 38185.112531 38190.956465 38191.022641 38196.958397 38202.947670
122.460000 38183.598974 38188.819830 38194.992487 38194.885804 38200.962201 38206.625222
122.490000 38185.787275 38191.660436 38198.129011 38197.948432 38204.210352 38209.111208
122.540000 38190.515030 38197.072263 38203.150923 38202.943097 38209.026613 38214.506573
122.580000 38194.581517 38201.228406 38207.324782 38207.186727 38213.528530 38218.726751
122.620000 38199.406901 38205.341027 38211.300790 38211.286640 38217.317938 38223.175964
122.660000 38203.142530 38209.182213 38214.998713 38215.236568 38221.511769 38227.910522
122.700000 38206.979256 38213.207448 38219.368706 38219.450418 38225.793768 38232.367214
122.740000 38211.481867 38217.162587 38223.293536 38223.471294 38229.768998 38236.570642
122.780000 38215.269367 38220.830333 38227.315234 38227.507198 38233.968792 38242.086001
122.820000 38218.937094 38224.518237 38231.560962 38231.700708 38238.490059 38247.784578
122.860000 38223.106806 38228.532166 38235.631108 38236.025384 38243.400868 38251.928766
122.900000 38226.952057 38233.159300 38240.167438 38240.712790 38248.407586 38256.793718
122.940000 38230.891035 38238.144101 38245.001429 38245.467537 38253.747662 38261.053198
122.980000 38234.527341 38242.662954 38250.148610 38250.532033 38258.904944 38266.306186
123.020000 38239.265410 38247.598502 38255.244370 38255.571727 38263.671299 38271.528756
123.060000 38245.394086 38252.678189 38261.208038 38260.946502 38269.212855 38275.986087
123.100000 38249.770463 38257.935327 38266.407021 38266.127840 38274.276011 38280.681380
123.140000 38255.693301 38263.291425 38271.771110 38271.236865 38278.958371 38284.664220
123.180000 38261.023199 38268.727175 38276.439000 38275.902494 38282.792840 38288.048767
123.220000 38266.146080 38274.273086 38280.914041 38280.484025 38287.124540 38291.652762
123.260000 38272.077104 38279.361106 38285.025225 38284.748368 38290.809829 38295.072110
123.300000 38277.417985 38283.905743 38289.260781 38288.969970 38294.350784 38297.998837
123.340000 38282.660551 38287.981378 38293.208381 38292.861063 38297.800044 38301.090869
123.380000 38286.748787 38291.704937 38296.872894 38296.497846 38301.048016 38304.400940
123.420000 38291.016192 38295.476618 38300.148124 38299.863543 38304.174472 38307.787267
123.460000 38294.793130 38298.829307 38303.309398 38303.051853 38307.310589 38310.528671
123.500000 38297.953202 38302.074640 38306.230867 38306.138542 38310.301791 38313.388059
123.540000 38300.924403 38304.820234 38309.260315 38309.075247 38313.187762 38316.516635
123.580000 38303.700856 38307.888291 38312.388654 38312.217086 38316.438848 38320.083150
123.620000 38307.007862 38311.101491 38315.878125 38315.641405 38319.812104 38325.029747
123.660000 38309.903774 38314.388694 38319.534407 38319.438494 38324.019228 38330.183537
123.700000 38312.907678 38317.728740 38323.080450 38323.433211 38328.986950 38336.367312
123.740000 38316.446189 38321.455127 38327.020114 38327.710616 38334.108632 38342.514535
123.780000 38319.820003 38325.384474 38331.621348 38332.503362 38339.991517 38348.170711
123.820000 38323.708221 38329.883928 38337.144400 38337.817328 38346.045156 38355.103255
123.860000 38328.466649 38335.140585 38343.695952 38343.973601 38352.841060 38362.247133
123.900000 38334.367479 38341.577853 38350.668457 38351.105424 38360.650967 38370.243179
123.940000 38340.367901 38348.407049 38357.710138 38358.313543 38368.823772 38377.892979
123.980000 38346.574240 38355.751481 38365.229687 38365.648966 38375.762831 38386.303650
124.020000 38353.469754 38362.982695 38372.881667 38373.016495 38382.985008 38393.979706
124.060000 38359.426236 38370.059761 38380.000001 38380.108069 38389.805127 38400.706167
124.100000 38366.829660 38376.926524 38387.280085 38387.084824 38397.020510 38407.191745
124.140000 38374.363107 38383.829020 38394.347075 38394.095596 38403.852127 38413.681329
124.180000 38380.963305 38390.731547 38401.353918 38401.044880 38410.811901 38421.387297
124.220000 38388.504730 38397.599112 38408.068563 38407.951569 38418.039596 38427.718256
124.260000 38395.290414 38404.232033 38414.944453 38414.823271 38424.624289 38435.094480
124.300000 38402.460734 38411.267295 38421.938069 38421.681815 38431.571140 38442.496354
124.340000 38409.162895 38418.435265 38427.982068 38428.219554 38438.324633 38448.241920
124.380000 38416.867022 38425.255474 38434.458860 38434.914288 38444.254333 38453.775308
124.420000 38423.738209 38432.347743 38441.533935 38442.054921 38451.722936 38461.017215
124.460000 38431.568748 38439.938028 38449.341445 38449.211847 38458.520223 38469.147810
124.500000 38437.725223 38446.635080 38456.709372 38456.546930 38465.874498 38477.242367
124.540000 38444.827995 38453.897838 38463.860216 38463.947569 38473.551933 38485.410634
124.580000 38452.981883 38461.241240 38470.634861 38471.163695 38480.639394 38491.626036
124.620000 38459.933096 38469.120448 38477.908474 38478.264627 38488.694680 38497.943417
124.660000 38466.288431 38475.819528 38484.676819 38485.174115 38495.228593 38505.533190
124.700000 38472.826213 38481.983576 38491.574289 38491.902935 38501.904216 38511.139341
124.740000 38479.143607 38488.641824 38498.081477 38498.464336 38508.467150 38518.305172
124.780000 38486.240007 38495.638201 38504.894790 38505.162781 38514.664380 38525.513396
124.820000 38492.836921 38502.023490 38511.934874 38511.799750 38521.531905 38531.135429
124.860000 38499.753732 38508.782364 38518.784580 38518.617147 38528.590297 38536.876401
124.900000 38505.523009 38514.955902 38525.587197 38525.140797 38534.815659 38544.117976
124.940000 38512.494880 38522.017633 38532.262590 38531.915952 38541.162125 38550.467695
124.980000 38519.357533 38529.283555 38539.224920 38538.925089 38548.363893 38557.088633
125.020000 38527.774070 38535.912964 38545.854321 38545.870670 38555.659756 38565.265923
125.060000 38533.687053 38542.853661 38552.521988 38552.709119 38562.577332 38571.813329
125.100000 38541.563430 38549.905211 38558.983650 38559.434135 38569.058686 38578.752387
125.140000 38547.889954 38556.606438 38565.952099 38566.290357 38576.008554 38584.525123
125.180000 38554.789121 38562.854106 38572.775870 38572.692644 38582.628002 38590.902910
125.220000 38560.316951 38569.262263 38579.588146 38579.203555 38588.822996 38597.761210
125.260000 38566.324488 38576.005790 38585.956293 38585.618775 38595.328177 38603.529975
125.300000 38573.685115 38582.478164 38592.557167 38592.329543 38601.727033 38611.180670
125.340000 38579.886095 38588.795058 38599.232471 38598.895308 38608.195691 38617.419486
125.380000 38586.396805 38595.800494 38605.460577 38605.456174 38614.938757 38625.378679
125.420000 38592.324480 38601.932762 38611.744171 38611.887695 38621.427316 38632.105521
125.460000 38599.141805 38608.199055 38618.356146 38618.627720 38628.437733 38640.223785
125.500000 38606.678399 38615.095324 38625.053904 38625.239716 38635.768415 38645.563127
125.540000 38613.267164 38621.727574 38632.162261 38632.157442 38642.394399 38652.611638
125.580000 38619.385055 38628.146503 38638.966093 38638.872398 38649.070989 38659.257968
125.620000 38625.091019 38635.542466 38646.236027 38645.865575 38656.092349 38664.951995
125.660000 38632.149347 38642.707891 38652.568394 38652.261283 38662.287126 38670.351179
125.700000 38639.988773 38649.780743 38658.979968 38658.772657 38668.160916 38676.046869
125.740000 38647.123502 38656.581846 38665.004461 38665.009093 38673.579904 38681.956815
125.780000 38652.973938 38663.204952 38671.255264 38671.169034 38679.290235 38687.523165
125.800000 38657.547788 38666.549500 38674.184306 38674.222865 38681.964192 38690.618845
125.840000 38663.329874 38672.101307 38680.029852 38680.089065 38688.493079 38696.651117
125.880000 38669.368898 38677.663447 38685.987518 38686.202983 38694.627776 38703.591288
