depth(m) lower_95(kyr) lower_68(kyr) median(kyr) mean(kyr) upper_68(kyr) upper_95(kyr)
131.220000 42060.444176 42061.331260 42062.349596 42062.319953 42063.237489 42064.192705
131.260000 42061.573556 42062.594310 42063.803359 42063.926805 42065.160006 42067.410197
131.320000 42063.028140 42064.285042 42065.909130 42066.279923 42068.340448 42071.478945
131.380000 42064.343356 42065.928206 42068.025503 42068.542793 42071.397051 42074.934391
131.440000 42065.718355 42067.516730 42070.304727 42070.693336 42074.234923 42077.402568
131.500000 42067.343802 42069.212737 42072.476286 42072.784347 42076.594797 42080.270629
131.560000 42069.019568 42070.891397 42074.525374 42074.844870 42078.887145 42082.517296
131.620000 42070.426142 42072.785431 42076.788151 42076.929407 42080.863717 42084.635038
131.680000 42072.135762 42074.657358 42078.818364 42078.966291 42082.917897 42086.613852
131.740000 42073.932604 42076.558989 42080.975713 42080.997874 42085.291762 42088.954683
131.800000 42075.505412 42078.536870 42083.024754 42082.972377 42087.263606 42090.901203
131.860000 42077.361328 42080.375413 42085.002262 42084.956865 42089.309799 42092.807480
131.920000 42079.076357 42082.401256 42087.044564 42086.955406 42091.326362 42094.809962
131.980000 42080.653970 42084.447246 42089.143707 42088.961849 42093.093328 42097.569993
132.040000 42082.727835 42086.692246 42091.311365 42091.072589 42095.112565 42099.492689
132.100000 42084.537963 42088.883027 42093.350365 42093.076885 42097.074055 42101.497719
132.160000 42086.728149 42090.792149 42095.199009 42095.096155 42099.178567 42103.324329
132.220000 42088.593996 42093.069901 42097.152167 42097.058748 42101.154373 42105.087899
132.280000 42091.078121 42095.186962 42099.096114 42098.995012 42102.831915 42106.900216
132.340000 42092.986154 42097.114257 42100.973130 42100.997839 42104.705887 42109.044078
132.400000 42095.385142 42099.127552 42102.858093 42102.927820 42106.519025 42111.615084
132.460000 42097.681456 42101.022356 42104.612999 42104.822756 42108.580140 42113.648442
132.520000 42099.265052 42102.948789 42106.567022 42106.713485 42110.439571 42115.308680
132.580000 42101.272791 42104.757965 42108.537581 42108.624024 42112.369903 42116.899545
132.640000 42103.649740 42106.685279 42110.364111 42110.558586 42114.369282 42118.754299
132.700000 42105.027840 42108.364182 42112.123013 42112.337170 42116.131997 42120.488315
132.760000 42106.781406 42110.323961 42114.051774 42114.178860 42117.979312 42122.208425
132.820000 42108.158729 42112.013748 42115.748631 42115.919051 42119.687411 42124.059585
132.880000 42110.007058 42113.797006 42117.547250 42117.691543 42121.652385 42125.963816
132.940000 42111.682824 42115.630790 42119.561945 42119.472059 42123.428552 42127.471152
133.000000 42113.786373 42117.325489 42121.238024 42121.235577 42125.211476 42129.309760
133.060000 42115.810558 42118.896873 42123.080194 42123.018415 42127.086775 42130.875298
133.120000 42117.537446 42120.642071 42124.820040 42124.792648 42128.856529 42132.135821
133.180000 42119.214899 42122.404825 42126.643300 42126.601123 42130.581967 42134.223850
133.240000 42120.809448 42124.284132 42128.388685 42128.338279 42132.324999 42135.632338
133.300000 42122.655017 42126.141743 42130.221905 42130.101614 42133.989321 42137.508430
133.360000 42124.374056 42127.996460 42131.934509 42131.887575 42135.694888 42139.249736
133.420000 42126.317417 42129.916869 42133.947263 42133.705700 42137.417083 42141.553866
133.480000 42128.243324 42131.766305 42135.521360 42135.534363 42139.273856 42143.043159
133.540000 42130.064103 42133.597120 42137.345841 42137.404442 42141.153989 42144.977139
133.600000 42131.494646 42135.521638 42139.241847 42139.309761 42143.041513 42147.158405
133.660000 42133.509732 42137.332871 42140.979931 42141.081899 42144.822328 42149.132665
133.720000 42135.201444 42138.967089 42142.648113 42142.814880 42146.636573 42150.935552
133.780000 42137.184512 42140.642951 42144.324278 42144.545407 42148.393217 42152.932438
133.840000 42139.064575 42142.604551 42146.112476 42146.346120 42150.438350 42154.651231
133.900000 42141.159000 42144.306314 42147.857786 42148.165493 42152.242610 42156.682136
133.960000 42142.857016 42146.096797 42149.674181 42149.989006 42154.049328 42158.314847
134.020000 42144.621610 42147.970054 42151.460279 42151.820461 42155.767387 42160.169518
134.080000 42146.357058 42149.784952 42153.483826 42153.637290 42157.617892 42162.191558
134.140000 42148.379167 42151.381837 42155.390307 42155.485901 42159.612107 42163.841092
134.200000 42149.986458 42153.333807 42157.226826 42157.342971 42161.418900 42165.542629
134.260000 42151.799181 42155.169604 42158.908453 42159.142284 42163.299134 42167.385220
134.320000 42153.538408 42156.817905 42160.822673 42160.905782 42164.913028 42168.832324
134.380000 42155.353833 42158.587661 42162.568225 42162.682511 42166.823184 42170.407684
134.440000 42156.733505 42160.426886 42164.374736 42164.401707 42168.402113 42171.987526
134.500000 42158.560047 42162.352040 42166.220428 42166.252327 42170.521135 42173.715544
134.560000 42160.102016 42164.018195 42168.049576 42168.042681 42172.184193 42175.386509
134.620000 42161.689255 42165.618943 42169.784389 42169.764591 42173.866287 42177.044437
134.680000 42163.567171 42167.431162 42171.615054 42171.541778 42175.671523 42179.115403
134.740000 42165.126218 42169.149031 42173.479831 42173.300534 42177.263213 42180.912527
134.800000 42166.951176 42171.094154 42175.263515 42175.082597 42178.934785 42182.857113
134.860000 42168.679849 42173.130369 42177.042717 42176.913978 42180.520921 42184.545541
134.920000 42170.712724 42174.849857 42179.056787 42178.716006 42182.260480 42186.505042
134.980000 42172.467750 42176.571378 42180.806764 42180.506598 42184.161174 42187.872589
135.100000 42176.070316 42180.095663 42183.971369 42183.978792 42187.763306 42191.983755
135.160000 42178.196169 42181.851539 42185.771363 42185.852710 42189.739071 42194.161288
135.220000 42180.626161 42183.988861 42187.578617 42187.741486 42191.674941 42195.962075
135.240000 42181.315816 42184.620834 42188.139632 42188.364862 42192.322736 42196.595279
135.300000 42183.114942 42186.490657 42189.985316 42190.230461 42194.119567 42198.437257
135.360000 42184.985624 42188.292863 42191.885854 42192.182913 42196.139036 42200.790955
135.420000 42186.514160 42189.957632 42193.636140 42194.025159 42198.257610 42203.090515
135.480000 42188.338490 42191.752684 42195.670978 42195.995987 42200.432347 42204.626687
135.540000 42190.301652 42193.656172 42197.807417 42198.018274 42202.821934 42206.777161
135.600000 42192.373682 42195.611912 42199.850444 42200.065960 42204.620760 42208.246199
135.660000 42193.985457 42197.537385 42201.977779 42202.018615 42206.593368 42210.526479
135.720000 42195.932637 42199.527875 42203.950214 42204.056663 42208.570458 42212.351111
135.780000 42197.601724 42201.387134 42206.044643 42206.062433 42210.663622 42214.673887
135.840000 42199.569799 42203.625567 42208.127600 42208.093472 42212.530067 42216.342019
135.900000 42201.475960 42205.858594 42210.156948 42210.094130 42214.579305 42218.384683
135.960000 42203.386743 42207.738840 42212.133105 42212.095789 42216.498638 42220.309323
136.020000 42205.813143 42209.734687 42214.312397 42214.197166 42218.489817 42222.590494
136.080000 42207.909294 42211.862364 42216.291440 42216.237760 42220.594697 42224.516837
136.140000 42209.615068 42213.753225 42218.348857 42218.194700 42222.418207 42226.450779
136.200000 42212.065850 42215.644199 42220.286450 42220.151947 42224.576836 42228.028245
136.260000 42213.989595 42217.483841 42222.023235 42221.953584 42226.422236 42229.689837
136.320000 42215.151371 42219.402103 42223.751853 42223.684575 42227.864488 42231.533020
136.380000 42217.397695 42221.415792 42225.659056 42225.459978 42229.638328 42233.532764
136.440000 42219.287591 42222.968468 42227.140984 42227.088745 42231.191701 42235.050531
136.500000 42220.929980 42224.599625 42228.654672 42228.679397 42232.718057 42236.386656
136.560000 42222.820674 42226.119805 42230.325579 42230.275540 42234.311752 42237.605452
136.620000 42224.477533 42227.699337 42231.939626 42231.863375 42235.866721 42239.315508
136.680000 42226.164965 42229.308123 42233.338637 42233.428012 42237.502001 42240.802796
136.740000 42227.585650 42231.036763 42234.992211 42235.022754 42239.214358 42242.624864
136.800000 42228.879821 42232.478248 42236.523923 42236.548334 42240.747489 42244.038369
136.860000 42230.044727 42234.030063 42238.103380 42238.139484 42242.521756 42245.615000
136.920000 42231.861323 42235.462282 42239.758595 42239.758227 42243.953136 42247.583133
136.980000 42233.376558 42237.098581 42241.270297 42241.399703 42245.810426 42249.093528
137.040000 42235.659190 42238.864428 42243.040699 42243.145549 42247.438925 42250.902046
137.100000 42236.995272 42240.525376 42244.810792 42244.878903 42249.238143 42253.251107
137.160000 42238.617370 42242.215690 42246.568810 42246.596650 42251.032210 42255.062276
137.220000 42240.324069 42243.981799 42248.111137 42248.277623 42252.579877 42256.958805
137.280000 42242.248903 42245.557922 42249.793890 42249.949810 42254.258521 42258.751296
137.340000 42243.724429 42247.319733 42251.513710 42251.662972 42255.996446 42260.237400
137.400000 42245.460592 42249.087442 42253.148205 42253.326426 42257.562801 42261.591908
137.460000 42247.204095 42250.725581 42254.891652 42254.990426 42259.187008 42262.980421
137.520000 42248.894498 42252.487255 42256.542261 42256.661130 42261.080564 42264.677756
137.580000 42250.387185 42254.171530 42258.432854 42258.317727 42262.641968 42266.373110
137.640000 42251.861636 42255.733583 42260.018659 42260.000550 42264.371356 42268.113313
137.700000 42253.337598 42257.402095 42261.617197 42261.592647 42265.915174 42269.509569
137.760000 42255.028577 42258.985612 42263.213059 42263.261769 42267.688834 42271.488585
137.820000 42257.167794 42260.592475 42264.880068 42264.869563 42269.193484 42273.079962
137.880000 42258.532095 42262.026796 42266.435825 42266.495881 42271.012895 42274.440382
137.940000 42260.050199 42263.721951 42268.262060 42268.170402 42272.781518 42275.907094
138.000000 42261.487972 42265.194447 42269.978946 42269.824528 42274.316002 42277.590136
138.060000 42262.948984 42266.967107 42271.607573 42271.434456 42275.838320 42278.812942
138.120000 42264.649467 42268.569886 42273.349303 42273.010377 42277.337692 42280.360443
138.180000 42266.420721 42270.034825 42274.933587 42274.572154 42278.748176 42282.140109
138.240000 42268.066655 42271.700853 42276.462154 42276.071906 42280.078865 42283.915826
138.300000 42269.424053 42273.227171 42277.901701 42277.580522 42281.590894 42285.496377
138.360000 42270.792411 42274.811129 42279.528541 42279.142161 42282.956666 42287.011655
138.420000 42272.454147 42276.395059 42281.013510 42280.704034 42284.650193 42288.411067
138.480000 42274.446712 42278.069399 42282.480084 42282.209298 42286.072268 42289.672496
138.540000 42275.919996 42279.780640 42283.964430 42283.743238 42287.527213 42291.116437
138.600000 42277.411971 42281.284347 42285.473500 42285.218942 42289.031888 42292.379490
138.660000 42278.743681 42282.668298 42286.944971 42286.651464 42290.557579 42293.710165
138.720000 42280.087284 42284.356266 42288.448965 42288.174602 42291.974897 42295.475144
138.780000 42281.445974 42285.923946 42289.915714 42289.697316 42293.359606 42296.913681
138.840000 42282.980828 42287.459661 42291.544230 42291.271015 42294.922539 42298.487542
138.900000 42284.630946 42289.096131 42292.955222 42292.793298 42296.483839 42299.866743
138.960000 42285.919808 42290.598580 42294.428453 42294.335119 42298.102326 42301.397071
139.020000 42287.603780 42292.312191 42296.042521 42295.866998 42299.373732 42302.990467
139.140000 42290.760227 42295.420200 42298.978632 42298.863383 42302.431119 42306.222062
139.200000 42292.220625 42296.911021 42300.420315 42300.341631 42304.100513 42307.761273
139.260000 42293.800632 42298.214716 42301.744846 42301.708647 42305.389640 42309.054576
139.320000 42295.523287 42299.552012 42303.064739 42303.070154 42306.795655 42310.548578
139.380000 42296.807346 42300.810663 42304.374342 42304.370060 42307.985736 42311.612653
139.440000 42298.265442 42302.155365 42305.663365 42305.673709 42309.371117 42312.856515
139.500000 42300.022174 42303.432117 42306.892854 42306.924092 42310.420407 42314.036998
139.560000 42301.279533 42304.741031 42308.129779 42308.181454 42311.730179 42315.131895
139.620000 42302.554420 42305.991718 42309.401551 42309.400585 42312.851143 42316.476566
139.680000 42304.094860 42307.202793 42310.620805 42310.580860 42313.891689 42318.143292
139.740000 42305.252190 42308.403587 42311.877274 42311.792780 42314.948908 42319.202133
139.800000 42306.749898 42309.604938 42312.994523 42313.014667 42316.231093 42320.344740
139.860000 42308.077386 42310.667101 42314.176203 42314.179051 42317.400822 42321.362619
139.920000 42309.162971 42311.971113 42315.281506 42315.286814 42318.445589 42322.451045
139.980000 42310.613926 42313.087852 42316.339514 42316.415158 42319.453618 42323.453465
140.040000 42311.856639 42314.340145 42317.446647 42317.557166 42320.547333 42324.636754
140.100000 42313.053142 42315.545905 42318.536480 42318.677835 42321.696598 42325.357753
140.160000 42314.138952 42316.614037 42319.711995 42319.781782 42322.808466 42326.621085
140.220000 42315.222547 42317.819253 42320.759742 42320.874801 42323.873500 42327.677223
140.270000 42316.242729 42318.781906 42321.641547 42321.806070 42324.706723 42328.893387
140.320000 42317.062541 42319.779214 42322.559899 42322.732604 42325.694367 42329.722123
140.360000 42317.753682 42320.473422 42323.362517 42323.490917 42326.467398 42330.432847
140.420000 42318.887062 42321.638461 42324.370542 42324.589771 42327.448243 42331.555478
140.480000 42320.083228 42322.734803 42325.453946 42325.696666 42328.711554 42332.618163
140.540000 42321.298609 42323.739655 42326.541772 42326.796461 42329.870919 42333.611541
140.600000 42322.235956 42324.816060 42327.560345 42327.867422 42331.038288 42334.583135
140.660000 42323.243167 42325.917677 42328.737266 42328.966814 42332.154440 42335.783060
140.720000 42324.293984 42327.022576 42329.947569 42330.148630 42333.371641 42336.835490
140.780000 42325.068146 42328.112077 42331.174638 42331.323660 42334.708833 42338.169874
140.840000 42326.430406 42329.358146 42332.273452 42332.543531 42336.187178 42339.539233
140.900000 42327.659409 42330.331890 42333.506593 42333.752986 42337.212758 42341.061235
140.960000 42329.042438 42331.514247 42334.693664 42335.022503 42338.669016 42342.301974
141.020000 42330.176887 42332.596054 42336.023171 42336.273006 42340.091891 42343.498429
141.080000 42331.335703 42333.767654 42337.287730 42337.547538 42341.381588 42344.707221
141.140000 42332.409456 42335.142058 42338.663876 42338.837310 42342.583764 42345.771770
141.200000 42333.558339 42336.348781 42340.118845 42340.146343 42343.939088 42346.956019
141.260000 42334.801757 42337.579762 42341.325135 42341.393773 42345.277542 42348.018482
141.320000 42335.900140 42338.913428 42342.641479 42342.661175 42346.537063 42349.389745
141.380000 42336.931937 42340.011275 42343.869873 42343.849406 42347.773240 42350.693938
141.440000 42338.241663 42341.263029 42345.190183 42345.085610 42348.910593 42352.126818
141.500000 42339.289338 42342.351579 42346.342147 42346.253282 42349.921420 42353.413403
141.560000 42340.466009 42343.466335 42347.614542 42347.426983 42350.926070 42354.376086
141.620000 42341.629838 42344.790458 42348.898308 42348.665148 42352.172108 42355.633860
141.680000 42342.958515 42346.205829 42350.208540 42349.917781 42353.253351 42356.846390
141.740000 42344.261227 42347.582697 42351.559870 42351.225777 42354.644635 42358.394960
141.800000 42345.473923 42348.805407 42352.837460 42352.488623 42355.735449 42359.669786
141.860000 42346.793064 42349.970355 42353.978197 42353.734844 42357.057368 42360.795264
141.920000 42347.986975 42351.307222 42355.107406 42355.002472 42358.406723 42361.898634
141.980000 42349.340384 42352.600625 42356.396058 42356.262313 42359.514098 42363.314382
142.040000 42350.632548 42354.035940 42357.555371 42357.570639 42360.859861 42364.727526
142.100000 42351.875504 42355.527443 42359.034393 42358.978869 42362.306975 42366.078471
142.160000 42353.283874 42357.112498 42360.479753 42360.434727 42363.720029 42367.520961
142.220000 42354.625488 42358.597015 42361.890749 42361.885471 42365.264374 42368.842920
142.280000 42356.191070 42360.094906 42363.463254 42363.368353 42366.812147 42370.211721
142.340000 42357.759153 42361.491488 42364.900648 42364.910765 42368.439512 42371.827218
142.400000 42359.280164 42362.967157 42366.354378 42366.445655 42370.108354 42373.401738
142.460000 42360.695788 42364.669940 42368.005309 42368.101364 42371.738259 42375.397009
142.520000 42362.406761 42366.287682 42369.771505 42369.871944 42373.760720 42377.534611
142.580000 42363.599427 42368.150138 42371.738571 42371.776407 42375.625834 42380.089412
142.640000 42365.911163 42369.970801 42373.497393 42373.745841 42377.713436 42382.223058
142.700000 42367.334868 42371.855180 42375.617830 42375.829056 42379.979714 42384.553421
142.760000 42369.385487 42373.746757 42377.784991 42378.014830 42382.498714 42387.134030
142.820000 42371.458515 42375.788718 42379.897544 42380.176534 42384.884114 42389.244646
142.880000 42374.079897 42378.050248 42382.312876 42382.642657 42387.597783 42392.055378
142.940000 42376.257700 42380.133911 42384.905915 42385.073921 42390.242817 42394.339267
143.000000 42378.530020 42382.775078 42387.719098 42387.591367 42392.532386 42396.745721
143.060000 42380.787865 42385.154479 42390.028354 42389.989418 42394.676930 42398.824136
143.120000 42383.244644 42387.979662 42392.662635 42392.498855 42396.891938 42400.996243
143.180000 42385.613511 42390.577662 42395.147546 42394.949171 42399.226277 42403.055898
143.240000 42388.324893 42392.993229 42397.379522 42397.246419 42401.411218 42404.987570
143.300000 42391.320926 42395.529539 42399.742606 42399.522495 42403.623219 42407.003934
143.360000 42393.949102 42398.217165 42402.136992 42401.945357 42405.809097 42408.925858
143.420000 42396.526576 42400.755846 42404.442203 42404.250809 42407.910317 42410.762575
143.480000 42399.585586 42402.832480 42406.488002 42406.301074 42409.703473 42412.492880
143.540000 42401.452226 42404.753511 42408.409089 42408.234355 42411.561966 42414.172018
143.600000 42403.752315 42406.745700 42410.176221 42410.011357 42413.126465 42415.839054
143.660000 42405.340937 42408.509534 42411.772101 42411.605226 42414.604121 42417.186851
143.720000 42407.265521 42409.979734 42413.219561 42413.053384 42416.059942 42418.376093
143.780000 42408.715804 42411.401884 42414.607459 42414.455058 42417.357419 42419.867335
143.840000 42409.747892 42412.847341 42415.926979 42415.819745 42418.738741 42421.412865
143.900000 42411.116949 42414.189908 42417.315887 42417.211863 42420.108810 42422.587385
143.960000 42412.523994 42415.478003 42418.676031 42418.544676 42421.389582 42423.980260
144.020000 42413.714847 42416.947005 42420.041098 42419.960734 42422.910631 42425.948908
144.080000 42415.189384 42418.373020 42421.440426 42421.355905 42424.274286 42427.408243
144.130000 42416.404539 42419.546195 42422.677476 42422.611636 42425.582637 42428.705200
144.180000 42417.601050 42420.754742 42423.931536 42423.933344 42426.950913 42430.095587
144.220000 42418.718246 42421.859203 42425.024630 42425.028734 42428.213891 42431.138649
144.280000 42420.132365 42423.441319 42426.682036 42426.668877 42429.864854 42433.062748
144.340000 42421.668617 42424.957877 42428.337969 42428.313751 42431.695199 42434.971068
144.400000 42423.297893 42426.484985 42429.859096 42429.911668 42433.318529 42436.728796
144.520000 42426.055273 42429.486361 42432.876424 42433.126313 42436.715376 42441.049798
144.580000 42427.567744 42430.966931 42434.519892 42434.770303 42438.606570 42442.592563
