depth(m) lower_95(kyr) lower_68(kyr) median(kyr) mean(kyr) upper_68(kyr) upper_95(kyr)
56.850000 1399.056706 1399.347528 1399.964244 1399.956573 1400.592235 1400.929650
56.950000 1400.710669 1401.663573 1402.601726 1402.824577 1403.987903 1406.405845
57.050000 1402.858128 1403.963452 1405.537125 1405.819747 1407.687373 1410.323814
57.150000 1404.837570 1406.158691 1408.274752 1408.531354 1410.872914 1413.777700
57.250000 1406.989611 1408.488425 1410.962478 1411.225325 1413.890975 1417.206430
57.350000 1408.963604 1410.951294 1413.824124 1414.029995 1417.017362 1420.359128
57.450000 1411.543082 1413.979998 1417.098356 1417.316009 1420.439187 1424.351268
57.550000 1414.497026 1417.438138 1420.607417 1420.644051 1423.922540 1426.974760
57.650000 1418.585051 1421.503496 1424.309177 1424.428539 1427.552806 1430.174604
57.750000 1421.963827 1424.866894 1428.032858 1427.840760 1430.617099 1433.104163
57.850000 1425.558214 1428.411070 1431.317434 1431.242983 1434.002465 1436.170778
57.950000 1428.719857 1431.373556 1434.268675 1434.076757 1436.699328 1438.913763
58.050000 1431.293583 1434.020342 1436.738885 1436.577495 1439.047644 1441.233733
58.150000 1433.724673 1436.502409 1438.966863 1438.899407 1441.253225 1443.552926
58.250000 1436.129243 1438.853461 1441.178586 1441.110369 1443.433647 1445.693858
58.350000 1438.662913 1441.186342 1443.478911 1443.466861 1445.823230 1447.783457
58.450000 1441.415901 1444.036227 1446.231354 1446.285496 1448.699250 1450.902287
58.550000 1444.547100 1447.268680 1449.948642 1450.053455 1452.853176 1455.988788
58.650000 1447.526548 1449.974706 1453.038557 1453.039911 1455.999891 1458.930671
58.750000 1449.811076 1453.038097 1455.914616 1455.897563 1458.884259 1461.733994
58.850000 1453.233671 1455.971001 1458.920160 1458.729605 1461.439580 1463.866506
58.950000 1455.550680 1458.992514 1461.770924 1461.603216 1464.077988 1466.814661
59.050000 1459.283510 1462.388264 1464.712248 1464.700386 1467.105300 1470.358322
59.150000 1462.907103 1465.190755 1467.569521 1467.769394 1470.321828 1473.806673
59.250000 1465.644749 1467.739769 1470.196297 1470.459111 1473.254786 1476.701416
59.350000 1467.807712 1470.072087 1472.671672 1473.034545 1476.208380 1479.964156
59.450000 1469.851741 1472.344496 1475.280758 1475.610615 1479.059875 1483.113174
59.550000 1472.194602 1474.790073 1477.962255 1478.213892 1481.553172 1485.954158
59.650000 1474.516837 1477.094606 1480.601541 1480.734151 1484.176914 1488.444801
59.750000 1476.433625 1479.573458 1483.219661 1483.469094 1487.193623 1492.619334
59.892857 1479.203105 1482.965562 1487.218540 1487.759599 1492.917332 1499.276785
60.035714 1481.841474 1486.306049 1491.594925 1492.235488 1498.600042 1504.064116
60.178571 1484.741953 1490.069572 1496.352473 1496.587714 1503.396137 1508.348708
60.321429 1487.372504 1494.003245 1501.024041 1500.954965 1507.661863 1513.404533
60.464286 1490.713846 1499.386727 1506.050731 1505.609756 1511.622621 1516.949113
60.607143 1494.012151 1504.625484 1510.791097 1510.040310 1515.663653 1520.161618
60.750000 1497.372165 1509.352935 1515.171839 1514.346179 1519.613494 1523.675745
60.850000 1499.310787 1512.843247 1518.114121 1517.392895 1522.421242 1526.209803
60.950000 1501.064853 1515.965157 1521.008420 1520.218598 1525.176855 1529.001917
61.050000 1502.821575 1519.090191 1524.093162 1523.212325 1527.939604 1532.047330
61.150000 1505.082131 1522.657970 1527.529786 1526.634310 1531.384099 1535.804488
61.250000 1507.426750 1526.349937 1531.032368 1530.200873 1535.078835 1539.395055
61.350000 1511.120297 1530.347229 1534.594950 1533.820140 1538.602656 1543.039025
61.483333 1514.406802 1534.277493 1538.847125 1538.086490 1543.460254 1548.138315
61.616667 1519.873323 1538.077900 1542.720249 1542.219939 1547.773780 1552.383107
61.750000 1524.715270 1542.111185 1546.931009 1546.336520 1551.865369 1556.324755
61.850000 1527.915742 1545.138964 1550.263200 1549.573079 1555.126146 1559.933592
61.950000 1533.606536 1547.851582 1553.150369 1552.408861 1557.676019 1562.054953
62.083333 1543.144456 1551.791593 1556.806913 1555.978988 1561.041224 1565.090268
62.216667 1547.668219 1555.394600 1560.254274 1559.418713 1564.272661 1568.144893
62.350000 1552.896812 1559.689058 1563.784682 1562.996453 1567.253891 1571.100340
62.450000 1557.266451 1562.212808 1566.540519 1565.832282 1569.970891 1572.992191
62.550000 1559.977528 1566.095522 1569.776085 1569.078207 1572.735797 1576.116321
62.650000 1563.967995 1570.257684 1573.171648 1572.683348 1576.161268 1579.368198
62.750000 1568.134546 1573.360432 1576.214366 1575.696273 1579.132775 1582.561578
62.850000 1570.761538 1575.827025 1578.915860 1578.507444 1582.206131 1585.170108
62.983333 1574.276992 1578.821305 1582.205188 1581.966816 1585.879305 1589.875760
63.116667 1577.879918 1581.860747 1585.514494 1585.366393 1589.419530 1593.543505
63.250000 1581.012695 1585.154501 1588.683506 1588.732880 1592.715869 1597.237928
63.383333 1583.765051 1588.123352 1591.783007 1591.910071 1595.998721 1601.845765
63.516667 1586.801758 1591.186094 1594.941074 1595.011147 1599.080934 1606.129021
63.650000 1590.219308 1594.217306 1597.961524 1598.266572 1602.428619 1609.370650
63.750000 1593.410194 1596.442156 1600.236781 1600.699355 1604.697923 1612.863248
63.850000 1596.319825 1599.029151 1602.569946 1603.183431 1606.928530 1614.843430
63.950000 1598.590434 1601.927902 1605.240407 1605.755579 1609.226864 1617.175119
64.050000 1600.921717 1604.486691 1608.138020 1608.450611 1612.106309 1619.392390
64.150000 1603.219674 1607.390167 1610.889668 1611.426223 1615.708563 1621.555089
64.250000 1605.397924 1609.926115 1613.747838 1614.250424 1618.705206 1624.242195
64.350000 1608.158647 1612.521584 1616.732681 1617.105650 1621.821992 1626.554986
64.450000 1610.900666 1615.279739 1619.471101 1619.716553 1624.434036 1628.336961
64.595000 1614.202553 1618.946102 1623.482355 1623.485353 1627.964055 1630.949054
64.740000 1619.663415 1623.114622 1627.509581 1627.383653 1631.289207 1633.872650
64.840000 1621.850584 1625.857536 1630.404817 1630.064910 1633.528325 1636.144019
64.850000 1622.096613 1626.183650 1630.768118 1630.335792 1633.762109 1636.405342
64.940000 1623.896813 1628.603497 1633.055906 1632.636980 1635.893755 1638.829509
64.950000 1624.220480 1628.889536 1633.367957 1632.901906 1636.163197 1639.108608
65.040000 1626.473008 1631.241051 1635.550822 1635.292511 1638.480726 1642.444103
65.140000 1629.177194 1634.028241 1638.212770 1638.209316 1641.745395 1647.217148
65.240000 1631.306869 1636.573031 1641.064442 1641.175729 1644.920649 1651.889086
65.340000 1634.090494 1639.047732 1643.510972 1643.991277 1648.287510 1654.880963
65.440000 1636.696635 1642.234415 1647.022216 1647.532030 1652.648344 1659.542989
65.540000 1639.773239 1645.654334 1650.909005 1651.256736 1656.838449 1663.002518
65.640000 1642.872586 1649.062263 1654.762103 1655.035831 1660.607551 1666.299264
65.740000 1645.888282 1652.458377 1659.003926 1658.702275 1664.546329 1669.835094
65.840000 1649.645072 1656.759920 1662.841313 1662.584074 1667.677802 1673.846334
65.940000 1653.655101 1661.411403 1666.560970 1666.641327 1671.278116 1680.469766
66.040000 1656.613056 1666.341697 1670.486669 1670.858736 1675.281053 1686.340980
66.140000 1659.529457 1669.497429 1673.773497 1674.328945 1679.202612 1691.400680
66.260000 1663.455556 1672.798715 1677.560131 1678.415429 1684.081095 1696.761485
66.380000 1667.767006 1675.933586 1681.291311 1682.445773 1688.743154 1704.002970
66.500000 1671.501519 1679.174040 1685.084883 1686.326254 1692.820352 1710.856054
66.620000 1675.915131 1682.524898 1688.562378 1690.181996 1697.213714 1718.480318
66.740000 1679.601881 1686.262021 1692.109923 1693.994783 1700.345112 1726.641249
66.840000 1682.326442 1689.519353 1695.890576 1697.609297 1703.473420 1731.684247
66.940000 1684.996610 1692.427342 1699.022709 1700.810293 1706.982653 1736.525224
67.040000 1687.553004 1695.870273 1701.967185 1703.944617 1710.154885 1740.504461
67.140000 1690.074717 1698.857312 1704.973034 1706.920061 1713.148202 1743.152029
67.240000 1692.432700 1701.637217 1707.846902 1709.899235 1716.806137 1747.553147
67.340000 1694.495291 1704.488657 1710.697387 1712.983675 1719.889882 1751.530738
67.440000 1696.576189 1707.469802 1713.731103 1716.018592 1723.227949 1754.528538
67.540000 1699.616784 1710.245006 1716.754867 1718.873227 1726.745793 1757.150237
67.640000 1702.790811 1712.739187 1719.196875 1721.700344 1730.592721 1760.573902
67.740000 1704.756880 1715.233930 1721.827431 1724.368877 1733.560845 1762.628810
67.840000 1708.164114 1717.548934 1724.508227 1727.038986 1736.397188 1766.507731
67.940000 1711.234023 1719.879047 1726.866867 1729.768256 1739.844253 1768.776310
68.040000 1713.545491 1722.298467 1729.340796 1732.501442 1743.408792 1771.442124
68.140000 1715.966889 1724.962349 1731.756152 1735.278604 1747.846323 1773.813138
68.240000 1718.840032 1727.564645 1734.203866 1738.040799 1751.164467 1776.488898
68.340000 1721.473315 1730.475400 1736.928924 1740.902917 1754.718732 1779.232998
68.465000 1724.957714 1734.253445 1740.729705 1744.654637 1758.498900 1781.936834
68.590000 1729.073438 1737.693527 1744.418930 1748.362295 1762.694146 1784.795521
68.715000 1732.461847 1741.064616 1748.062135 1751.897886 1766.743095 1787.320754
68.840000 1736.213314 1744.976672 1752.039358 1755.767320 1771.240478 1789.801787
68.940000 1738.510643 1747.870262 1755.412654 1758.897492 1774.618644 1791.721065
69.040000 1740.931428 1750.957226 1758.751774 1762.008629 1777.285851 1793.576674
69.140000 1743.652075 1753.659356 1761.885965 1765.122997 1780.672274 1795.602136
69.284444 1747.584780 1758.414705 1767.003675 1769.985367 1784.745899 1798.407936
69.428889 1752.083259 1763.015158 1772.561039 1774.784823 1789.325380 1801.565927
69.573333 1756.555507 1767.883518 1778.168745 1779.640240 1793.653653 1804.143100
69.717778 1761.861917 1773.441945 1783.598894 1784.546894 1797.868793 1806.479129
69.862222 1767.422875 1778.346454 1788.860024 1789.169884 1801.269858 1809.281657
70.006667 1774.256372 1783.732806 1794.064690 1793.936043 1804.437065 1812.551729
70.151111 1780.168212 1789.857036 1798.656257 1798.729731 1808.031055 1815.061614
70.295556 1787.491084 1795.188554 1803.116851 1803.490894 1811.645548 1818.282211
70.440000 1795.019967 1801.793599 1808.202168 1808.437214 1815.580342 1821.443094
70.540000 1799.326705 1805.311672 1811.634730 1811.802707 1818.432178 1824.938233
70.640000 1802.682414 1809.064025 1815.456355 1815.581976 1822.190610 1829.004599
70.740000 1805.986364 1812.652867 1819.208058 1819.246376 1826.050929 1831.864011
70.840000 1809.957957 1816.185852 1822.627477 1822.652823 1829.341507 1834.647275
70.940000 1813.863325 1819.706803 1826.318376 1826.178825 1832.622860 1837.658907
71.040000 1817.531787 1822.780971 1829.472371 1829.396062 1835.628895 1840.779873
71.140000 1820.721394 1826.383958 1832.969761 1832.581361 1838.715998 1843.416121
71.240000 1823.949845 1829.817851 1836.015757 1835.683995 1841.580030 1845.925283
71.340000 1826.887252 1832.982083 1839.112142 1838.726501 1844.456774 1848.319321
71.440000 1830.565465 1835.960421 1842.152958 1841.675676 1846.952697 1850.520333
71.540000 1834.463733 1839.782067 1845.509167 1844.874958 1849.692591 1852.622618
71.640000 1837.459533 1843.595813 1848.617668 1847.940764 1852.302602 1854.879689
71.740000 1840.512978 1846.619795 1851.211047 1850.471137 1854.179673 1856.996653
71.840000 1844.404152 1849.658247 1853.760677 1853.124446 1856.269066 1858.959690
71.940000 1849.321784 1853.158972 1856.381024 1855.975825 1858.654735 1860.865793
72.040000 1852.824893 1856.072447 1858.710647 1858.449317 1860.739084 1862.686426
72.140000 1855.643411 1858.454782 1860.798449 1860.679036 1862.935294 1864.887095
72.240000 1858.061266 1860.693895 1862.882419 1862.804841 1865.027585 1866.887219
72.340000 1860.188506 1862.804827 1865.010279 1864.895060 1867.008710 1868.841074
72.440000 1862.217564 1864.876713 1866.979124 1866.931603 1868.987886 1870.803571
72.540000 1864.380635 1866.947469 1868.969603 1868.907274 1870.902761 1872.882547
72.640000 1866.699581 1868.957938 1870.915412 1870.864595 1872.744378 1874.506262
72.740000 1868.772442 1870.995036 1872.898228 1872.805014 1874.660741 1876.367608
72.840000 1870.682252 1872.940068 1874.796463 1874.727400 1876.431641 1878.318150
72.940000 1872.977226 1874.870603 1876.660636 1876.672415 1878.440908 1880.342766
73.040000 1874.796663 1876.843340 1878.629599 1878.601458 1880.375305 1882.116801
73.140000 1876.889633 1878.755623 1880.630629 1880.582397 1882.334309 1884.271389
73.240000 1878.653767 1880.609544 1882.513242 1882.536091 1884.425148 1886.619314
73.340000 1880.592521 1882.438400 1884.330770 1884.367568 1886.273900 1888.482895
73.440000 1882.431078 1884.209878 1886.132764 1886.162246 1888.064059 1890.254049
73.565000 1884.249107 1886.227431 1888.345342 1888.361336 1890.363256 1892.665676
73.690000 1886.432360 1888.353170 1890.508470 1890.551337 1892.622533 1894.971141
73.815000 1888.420672 1890.567485 1892.679781 1892.769342 1894.859101 1897.357588
73.940000 1890.682705 1892.725651 1894.879768 1894.920111 1897.059953 1899.467968
74.040000 1892.490422 1894.558657 1896.766191 1896.807944 1898.892462 1901.480110
74.140000 1894.484672 1896.556451 1898.769156 1898.857556 1901.148118 1903.741416
74.273333 1896.771718 1899.023151 1901.379539 1901.496752 1903.964564 1907.058561
74.406667 1899.517559 1901.622241 1903.990101 1904.140269 1906.527119 1910.301528
74.540000 1902.110093 1904.236330 1906.659760 1906.835253 1909.456137 1912.833993
74.640000 1903.967985 1906.204930 1908.707672 1908.949970 1911.776212 1914.704529
74.740000 1905.932764 1908.127019 1910.803456 1911.045331 1914.004596 1917.227718
74.840000 1907.826799 1910.256501 1912.915122 1913.223733 1916.497190 1920.049561
74.940000 1909.830708 1912.257128 1915.186788 1915.468679 1918.754644 1922.519464
75.040000 1911.882381 1914.538478 1917.775710 1917.939212 1921.335704 1925.201782
75.140000 1914.196546 1916.845805 1919.965696 1920.337538 1923.882669 1927.776847
75.240000 1916.605000 1919.425486 1922.619427 1922.960275 1926.558392 1931.379963
75.340000 1919.212801 1922.207371 1925.879639 1926.057917 1930.041174 1934.296728
75.440000 1921.517816 1925.111755 1929.205249 1929.309775 1933.715809 1937.486147
75.540000 1924.589602 1928.837549 1933.114829 1933.050900 1937.366203 1940.362644
75.640000 1927.649543 1932.576882 1937.340737 1936.884308 1941.030623 1943.727579
75.740000 1932.362887 1936.829441 1940.565177 1940.226905 1943.550867 1946.491248
75.840000 1937.641612 1941.193913 1944.035881 1943.937499 1946.549027 1949.590962
75.940000 1941.075343 1944.042621 1946.538423 1946.628422 1949.138385 1952.058563
76.040000 1944.478163 1946.790962 1949.081230 1949.265721 1951.797087 1954.700100
76.140000 1947.118232 1949.305552 1951.702830 1951.924219 1954.480991 1957.861634
76.240000 1949.481570 1951.887043 1954.753477 1955.096087 1958.217654 1963.201940
76.340000 1952.233224 1955.357638 1958.683331 1959.104564 1963.381686 1967.286891
76.440000 1955.388842 1958.827605 1963.062950 1963.135233 1967.587509 1970.564480
76.540000 1959.575997 1963.262936 1967.545587 1967.269151 1971.157419 1973.798413
76.640000 1963.874721 1967.544197 1971.290035 1971.081589 1974.468018 1977.028842
76.740000 1968.482379 1972.422612 1975.156089 1975.079387 1977.895752 1980.879286
76.840000 1973.306267 1976.179420 1978.749361 1978.719666 1981.349965 1983.918339
76.940000 1976.719385 1979.246481 1981.817482 1981.783216 1984.443435 1986.908520
77.040000 1979.123754 1981.977552 1984.771999 1984.766795 1987.484688 1990.470766
77.140000 1981.889192 1984.640426 1987.746822 1987.659885 1990.315926 1993.299667
77.240000 1985.112336 1988.283729 1991.235302 1991.103899 1993.748081 1996.590960
77.340000 1989.877918 1992.044266 1994.506151 1994.522031 1996.876575 1999.130778
77.440000 1992.841953 1994.681946 1997.208411 1997.176836 1999.560544 2002.117012
77.540000 1994.803889 1997.221946 1999.743627 1999.707258 2002.179084 2004.627013
77.640000 1997.224994 1999.756516 2002.234768 2002.412382 2005.188827 2008.324378
77.740000 1999.581635 2002.326828 2005.390976 2005.623159 2008.825418 2012.842468
77.840000 2002.825838 2005.544580 2009.089211 2009.393635 2013.338217 2017.268091
77.940000 2005.621835 2009.185306 2013.361001 2013.542395 2018.070056 2020.823183
78.040000 2009.432496 2013.698750 2018.508098 2018.089949 2022.286043 2025.002543
78.140000 2013.743838 2018.148778 2022.166548 2021.792532 2025.264975 2028.213066
78.240000 2018.394884 2022.319701 2025.388446 2025.187072 2027.989934 2030.531243
78.340000 2022.401682 2025.417599 2027.987852 2027.964569 2030.506597 2032.855724
78.440000 2025.634619 2028.354992 2030.798271 2030.802971 2033.255730 2035.873447
78.540000 2028.896233 2031.350514 2033.916304 2033.950179 2036.565326 2039.138460
78.640000 2031.861871 2034.336391 2036.914655 2036.937020 2039.476457 2042.558126
78.740000 2034.689025 2036.864081 2039.508858 2039.545932 2042.019064 2045.403958
78.840000 2037.097428 2039.254881 2041.859756 2041.893173 2044.441639 2047.928006
78.940000 2039.067272 2041.664814 2044.066881 2044.216207 2046.791542 2050.249575
79.040000 2040.985766 2043.921615 2046.499807 2046.619039 2049.362080 2052.652937
79.140000 2043.470050 2046.144909 2048.963401 2049.044110 2052.034597 2054.822216
79.240000 2046.192134 2048.577290 2051.262826 2051.442278 2054.441007 2057.169768
79.340000 2048.191834 2050.845764 2053.753988 2053.736672 2056.601302 2059.259400
79.440000 2050.613545 2053.333598 2056.316449 2056.175477 2058.945836 2061.266169
79.540000 2053.619656 2056.298647 2058.899482 2058.787992 2061.235505 2063.486893
79.640000 2056.496494 2059.514966 2061.941910 2061.851810 2064.242890 2066.341102
79.740000 2059.893730 2062.261462 2064.615519 2064.547618 2066.868935 2068.955651
79.840000 2062.626513 2064.549220 2066.702925 2066.705313 2068.740573 2071.159959
79.940000 2064.382755 2066.417900 2068.623308 2068.610717 2070.744699 2072.976708
80.040000 2065.957402 2068.114236 2070.407830 2070.407339 2072.621734 2074.784566
80.140000 2067.936334 2069.874527 2072.218336 2072.165228 2074.441205 2076.561907
80.240000 2069.481965 2071.544214 2073.900084 2073.923884 2076.237725 2078.305093
80.340000 2071.216834 2073.431298 2075.631436 2075.699413 2078.042754 2080.026856
80.440000 2072.950922 2075.432700 2077.565210 2077.571901 2079.874893 2081.668571
80.540000 2074.927341 2077.538501 2079.589723 2079.625716 2081.762432 2083.926929
80.640000 2076.935393 2079.448780 2081.720430 2081.746352 2083.929335 2086.960929
80.740000 2079.524315 2081.849870 2084.057517 2084.265996 2086.499873 2090.299325
80.840000 2082.323735 2084.450117 2086.701852 2086.922198 2089.343847 2093.321196
80.940000 2084.927543 2087.096765 2089.389296 2089.809145 2092.803575 2096.342237
81.040000 2087.058794 2089.388371 2092.166344 2092.609770 2096.079571 2100.262836
81.140000 2088.783717 2091.429165 2094.952530 2095.177599 2098.924015 2102.953909
81.240000 2090.435537 2093.603994 2097.593103 2097.690786 2101.900228 2105.558084
81.340000 2092.269691 2095.701797 2100.030658 2100.038606 2104.416480 2107.791998
81.440000 2094.316830 2097.809299 2102.392939 2102.394043 2106.851290 2110.531979
81.540000 2095.812257 2100.070314 2104.772339 2104.660086 2109.157471 2112.711773
81.640000 2098.525148 2102.478715 2107.259540 2106.981684 2111.176631 2114.547694
81.740000 2101.116095 2104.933114 2109.669853 2109.368274 2113.554775 2116.723961
81.840000 2103.438786 2107.731635 2111.953788 2111.842228 2115.893067 2119.499172
81.940000 2105.558940 2110.541014 2114.659343 2114.434123 2118.351921 2121.978252
82.040000 2109.494536 2113.610318 2117.404357 2117.287206 2121.074147 2124.293037
82.140000 2113.391747 2117.012677 2120.200013 2120.221888 2123.677484 2126.595342
82.240000 2116.625245 2119.883302 2123.054766 2123.065159 2126.396717 2129.382089
82.340000 2119.932179 2122.794844 2126.167930 2126.091067 2129.290028 2131.747491
