depth(m) lower_95(kyr) lower_68(kyr) median(kyr) mean(kyr) upper_68(kyr) upper_95(kyr)
9.660000 302.878803 306.122197 307.834158 307.678642 309.248506 311.014775
9.800000 306.618893 308.461910 309.800115 309.837291 311.146053 312.826157
9.900000 308.394975 309.943127 311.270876 311.315275 312.608262 314.584938
10.000000 310.212514 311.401754 312.651972 312.761095 314.024021 315.932392
10.080000 311.331075 312.661941 313.876563 313.988938 315.288651 316.972640
10.180000 312.686330 314.301904 315.503797 315.669375 316.983745 319.176516
10.220000 313.525238 314.998583 316.249216 316.551195 317.920442 321.220285
10.360000 316.573231 318.064741 319.372936 319.841236 321.259370 327.139232
10.460000 319.709830 321.354862 323.218580 323.778194 326.272331 330.539193
10.560000 323.284389 325.820159 328.361557 328.341799 330.944119 333.325805
10.660000 328.454349 330.581666 332.415024 332.352223 334.207159 335.945140
10.785000 332.373658 334.091497 335.659227 335.820150 337.407801 340.551440
10.910000 335.764475 337.029110 338.386820 338.810009 340.327803 345.859552
10.990000 337.457058 338.835273 340.209821 340.688827 342.286200 347.711112
11.080000 339.082279 340.609395 342.080403 342.646248 344.509184 349.721445
11.170000 340.968741 342.337222 343.928843 344.554966 346.990909 351.569889
11.265000 342.632539 344.168472 345.895544 346.535041 349.048085 353.228279
11.360000 344.546148 345.898163 347.874843 348.481720 351.328038 355.325713
11.470000 346.177980 348.030373 350.149196 350.689426 353.628592 357.809361
11.580000 348.391522 350.455216 352.424111 352.996678 356.192134 360.012579
11.720000 351.689116 353.717977 355.583260 356.428639 360.200790 363.548012
11.810000 353.421333 355.890826 357.711367 358.552677 362.354319 365.794997
11.860000 354.800235 357.131854 358.906722 359.836940 363.574973 367.359926
11.940000 356.403726 359.152372 361.333719 362.060538 365.761824 369.846573
12.020000 358.623048 361.432794 363.741084 364.297321 367.912913 371.620252
12.160000 362.064431 364.726936 367.930569 367.939101 371.099992 374.305264
12.290000 364.647984 367.750341 371.329114 371.216726 374.530041 377.303893
12.400000 367.390238 370.235968 373.779497 373.759956 377.250170 379.455343
12.490000 369.847387 372.854392 375.958550 376.066309 379.601231 381.567581
12.565000 371.758024 374.597545 377.729600 377.851653 381.290292 383.315953
12.640000 373.489069 376.579675 379.683544 379.680977 383.022576 384.892588
12.780000 377.021494 380.133412 383.470573 383.143209 385.966921 387.521463
12.910000 380.645285 384.009528 386.876866 386.479479 388.860457 390.370574
13.005000 383.741536 386.977571 389.401942 389.210732 391.609300 393.519412
13.100000 387.801136 390.365820 392.463286 392.464443 394.728368 396.835543
13.240000 395.694582 398.300150 400.286514 400.263849 402.219687 404.598800
13.315000 398.555110 401.656860 404.179057 404.027218 406.324699 408.439158
13.390000 401.886780 404.821060 407.683166 407.392042 409.927912 411.831672
13.400000 402.187752 405.305400 408.073687 407.824243 410.392557 412.145993
13.520000 407.147024 409.614921 411.889739 411.857094 414.082205 416.374148
13.610000 411.017356 413.035623 415.428815 415.447813 417.844943 420.220045
13.700000 414.929989 416.723725 418.928323 418.968354 421.209626 423.472560
13.830000 418.918183 421.414458 423.368166 423.280673 425.166062 426.729745
13.930000 423.112763 425.070427 426.756127 426.713210 428.335955 429.866075
14.060000 427.018764 428.435379 429.633852 429.762390 431.184940 433.047884
14.130000 429.087900 430.323579 431.582736 431.683371 433.119507 434.879149
14.270000 431.846410 433.387956 434.808425 434.886859 436.408114 438.076687
14.410000 434.759021 436.369508 438.025509 438.036252 439.661874 441.228475
14.530000 437.286759 438.923916 440.721514 440.805988 442.665868 444.614779
14.640000 439.090168 440.902755 443.014688 443.100841 445.229493 447.865098
14.715000 440.111123 442.233991 444.562597 444.656568 446.970225 449.639304
14.790000 441.202577 443.485669 446.099641 446.163532 448.641208 451.334690
14.900000 443.266343 445.756238 448.510074 448.458621 451.075929 453.973691
15.005000 445.047877 447.916015 450.750559 450.719325 453.354343 456.588539
15.110000 447.339864 450.516870 453.128597 453.154899 456.056786 458.968478
15.200000 449.228664 452.893033 455.190272 455.449992 458.533119 461.790545
15.290000 452.025217 455.253706 457.404569 457.817485 461.078106 464.090669
15.430000 455.426760 458.768681 460.884643 461.333404 464.495503 467.821189
15.440000 455.689855 459.086213 461.241658 461.635306 464.717782 468.066602
15.515000 458.872459 461.863072 464.375656 464.452874 467.157230 470.067256
15.590000 462.911727 464.942517 467.092660 467.150867 469.326417 472.157666
15.715000 466.199653 468.312233 470.448781 470.465290 472.536335 474.860198
15.840000 469.148879 471.526371 473.554034 473.581787 475.802637 477.607595
15.870000 470.374061 472.381770 474.415073 474.474760 476.671632 478.502757
15.910000 471.697618 473.710651 475.719824 475.751983 477.822912 479.720715
15.950000 472.906290 474.920213 477.011807 476.962500 478.908619 480.731840
16.050000 475.364294 477.860267 480.096217 479.884450 481.820131 483.661477
16.060000 475.572815 478.116950 480.384074 480.194970 482.166803 484.014070
16.150000 478.274717 481.198156 483.385746 483.226984 485.239610 487.336855
16.260000 481.282023 484.338427 487.071091 486.909489 489.375852 491.515183
16.400000 484.551154 487.559559 491.333322 490.924626 493.953386 496.067818
16.500000 487.484992 490.211305 493.845305 493.498847 496.504073 498.595816
16.610000 490.505592 493.389333 496.629557 496.288687 498.920832 500.741494
16.740000 494.105426 497.042340 499.835345 499.528551 501.752687 503.418944
16.840000 497.008058 499.968006 502.127046 501.940037 503.995556 505.797557
16.930000 499.575843 501.950808 504.106571 504.005057 505.959883 508.175986
17.060000 502.504027 504.571493 506.632150 506.650930 508.817585 510.981951
17.180000 505.169934 507.039497 509.163016 509.206914 511.368322 513.337970
17.280000 507.319847 509.293850 511.407070 511.423197 513.482109 515.328502
17.410000 510.351041 512.387062 514.460324 514.436988 516.415151 518.533539
17.485000 512.347101 514.371508 516.436001 516.459946 518.432265 520.938397
17.560000 514.474301 516.569110 518.530618 518.585023 520.540797 523.087313
17.660000 517.552528 519.412498 521.317768 521.451524 523.611390 526.080037
17.780000 520.951355 522.875338 524.997697 525.159742 527.574920 530.259113
17.900000 525.227001 527.134412 529.489367 529.474505 531.871627 534.019433
18.040000 530.089556 532.373282 534.315210 534.419772 536.562392 538.921601
18.180000 534.484544 536.424406 538.699632 538.835019 541.295844 543.976222
18.300000 537.666292 539.638020 542.256528 542.259388 544.623911 547.412194
18.430000 540.861904 543.214102 545.999039 545.807431 548.274403 550.390673
18.560000 544.373817 547.412593 550.049456 549.855121 552.170234 554.663827
18.645000 547.859147 550.168946 552.783053 552.767220 555.270539 558.173714
18.730000 551.310013 553.445414 555.806300 555.975917 558.439202 561.737806
18.820000 554.614340 556.928258 559.829753 559.932201 562.608620 566.619598
18.910000 558.836508 560.776422 564.510752 564.424424 567.432423 572.087110
18.990000 561.546692 564.381805 569.006270 568.957768 572.485259 579.018515
19.113333 566.341289 570.995928 576.402623 576.197233 581.106933 585.466041
19.236667 571.706482 579.260742 583.953646 583.274488 587.806430 590.883697
19.360000 577.333702 586.767441 590.330333 589.329722 592.797538 594.731345
19.435000 580.428546 590.944789 593.934183 592.789995 595.772043 597.213696
19.510000 583.514138 595.170450 597.023545 595.849577 598.301008 599.540711
19.585000 586.022645 597.298457 599.072661 598.133500 600.544175 602.812839
19.660000 588.485668 599.018777 600.977990 600.174221 602.761959 605.387306
19.735000 590.836511 600.559447 602.783068 602.153057 604.942570 607.630931
19.810000 593.251723 602.171697 604.639577 604.084953 606.992402 609.607001
19.920000 597.085819 604.710444 607.301711 607.041576 610.081188 612.861383
20.030000 601.845614 607.578168 610.506316 610.341636 613.538129 615.801348
20.110000 606.086536 610.820257 614.339682 613.844025 616.888716 618.596882
20.190000 609.471851 614.987896 617.986485 617.169512 619.514758 620.975259
20.330000 613.896801 619.320907 621.532003 620.902036 622.727958 623.863999
20.470000 619.645577 622.924799 624.198976 623.883755 625.175911 626.217762
20.610000 624.100932 625.501980 626.398913 626.342095 627.309587 628.185427
20.720000 626.615641 627.502629 628.379817 628.520859 629.393211 631.330086
20.850000 629.146426 630.322906 632.428670 634.490920 639.855802 646.200586
20.940000 631.219222 633.380352 640.237809 640.049272 645.648091 651.121371
21.055000 634.722989 642.105234 647.210443 646.778342 651.366314 655.789983
21.170000 639.646576 648.761604 652.494984 652.278924 656.327412 660.717010
21.290000 645.636436 653.015816 656.574912 656.555658 660.441276 664.358443
21.410000 651.687425 656.846088 660.438129 660.472513 664.616135 668.264805
21.530000 656.371539 660.500253 664.310095 664.376296 668.608849 672.214315
21.610000 659.384123 663.063050 667.138876 667.146637 671.026928 675.315726
21.690000 662.634286 666.226808 670.093145 670.114530 673.846059 678.182569
21.830000 668.009582 672.106422 675.770998 675.644339 679.255303 682.721011
21.960000 674.454293 677.719506 680.992876 680.890768 684.176926 686.869608
22.035000 677.336107 680.751394 683.939276 683.802442 687.013219 689.256733
22.110000 680.810481 683.824447 686.791705 686.585114 689.319812 691.474872
22.225000 685.198919 687.926685 690.559879 690.371587 692.794802 694.619405
22.340000 689.687579 691.829495 693.863649 693.813773 695.789930 697.584856
22.440000 692.416651 694.241280 696.207169 696.183596 697.999216 699.934864
22.520000 694.631904 696.026094 698.058200 697.972889 699.736424 701.723973
22.570000 695.696883 697.241077 699.205466 699.198167 701.065383 703.138070
