depth(m) lower_95(kyr) lower_68(kyr) median(kyr) mean(kyr) upper_68(kyr) upper_95(kyr)
11.020000 293.428308 295.796655 298.482668 298.777769 302.150847 303.827452
11.120000 296.729183 298.717185 301.357290 301.404481 304.089586 305.734290
11.220000 299.168849 301.321010 304.172058 303.845139 306.090684 307.757698
11.320000 301.755765 304.279549 306.438269 306.232289 308.057696 309.675112
11.420000 305.331463 307.575933 309.056728 309.030036 310.592821 312.540524
11.520000 308.648193 310.038901 311.429205 311.525287 313.070001 315.066985
11.620000 311.184379 312.324515 313.812939 313.958849 315.655547 317.300204
11.720000 313.519185 314.987852 316.455213 316.455237 318.006179 319.445330
11.790000 315.627972 317.129627 318.590385 318.512831 319.906844 321.195188
11.910000 319.795072 321.215321 322.411475 322.410831 323.633255 324.824717
11.990000 321.832523 323.241932 324.651321 324.588057 325.897012 327.034835
12.090000 324.270637 325.633520 327.134376 327.125647 328.541277 330.208064
12.210000 326.795375 328.239771 329.970165 329.992635 331.618666 333.348171
12.336667 329.793422 331.334694 333.276313 333.238709 335.098714 336.720932
12.463333 332.735633 334.774957 336.532408 336.436489 338.187739 339.496192
12.590000 336.534240 337.975079 339.412827 339.310230 340.603089 341.619796
12.660000 337.683330 339.276808 340.636787 340.544219 341.815029 342.864378
12.735000 338.993029 340.403324 341.760666 341.674954 342.898362 344.101918
12.810000 340.263199 341.526637 342.788261 342.741971 343.947424 345.422177
12.890000 341.514781 342.622627 343.805465 343.891678 345.139707 347.084836
12.990000 342.916655 344.066077 345.172741 345.405717 346.826646 349.127954
13.110000 344.619508 345.565538 347.003335 347.244800 348.982363 351.301431
13.200000 345.685995 346.827831 348.349423 348.577088 350.466293 352.590024
13.290000 346.728680 348.002133 349.773133 349.989511 352.084168 354.065150
13.390000 347.975438 349.405252 351.433846 351.543928 353.684769 355.701983
13.490000 349.362688 350.965094 353.055723 353.125698 355.332359 357.158470
13.590000 350.913774 352.632901 354.806106 354.941046 357.211780 359.407797
13.710000 352.958173 354.953181 357.492831 357.567105 360.043980 363.091566
13.800000 354.703708 357.065868 359.522855 359.851783 362.914196 365.768976
13.890000 356.692397 359.023601 361.593766 362.070745 365.630830 367.962492
13.960000 358.487936 360.683100 363.641590 363.917239 367.492098 369.602672
14.090000 361.367879 363.626558 367.638684 367.451055 371.044095 373.328156
14.160000 363.110065 365.127207 369.676622 369.374018 373.006646 376.014760
14.235000 365.021613 367.109178 371.471624 371.344019 375.165925 378.316722
14.310000 367.155243 369.299192 373.476136 373.440176 377.314297 380.552462
14.390000 369.779153 372.030910 376.171276 376.049451 379.874934 383.169179
14.490000 373.524307 375.652381 379.767498 379.522742 382.984802 385.698353
14.610000 376.838432 380.233838 384.000728 383.605968 386.625976 388.908141
14.710000 380.242746 384.376783 387.608290 387.179624 389.883311 392.139913
14.810000 385.361237 388.459809 390.896821 390.675475 392.853847 394.844119
14.910000 390.601353 392.285333 393.946814 393.938090 395.505519 397.187248
14.990000 393.237257 394.707609 396.151693 396.183556 397.532073 399.577627
15.090000 396.058004 397.432386 398.996536 399.076990 400.650163 402.751314
15.210000 398.658158 400.418065 402.400682 402.461500 404.444997 406.705094
15.300000 401.012200 402.841838 405.142296 405.197484 407.360974 410.123550
15.390000 403.713709 406.171167 408.383550 408.381215 410.598375 413.288944
15.460000 407.178056 409.782160 411.839649 411.886292 413.934336 416.731691
15.590000 414.142175 416.032935 418.199183 418.263439 420.393715 422.967102
15.660000 417.503068 419.839725 421.779496 421.750013 423.743394 425.576933
15.735000 421.190648 423.206611 424.929875 424.845052 426.581810 427.900679
15.810000 424.640019 426.209617 427.685085 427.529252 428.756994 429.770960
15.890000 427.330428 428.466731 429.635762 429.620335 430.684538 431.913182
15.990000 429.485036 430.486162 431.520788 431.528555 432.605530 433.665153
16.110000 431.144877 432.219460 433.376510 433.367637 434.469935 435.507786
16.200000 432.593395 433.524567 434.688248 434.682381 435.816647 437.022651
16.290000 433.768360 434.776918 435.943472 435.965935 437.140076 438.365209
16.410000 435.462242 436.498939 437.672525 437.706611 438.836936 440.289337
16.490000 436.746556 437.779320 439.030262 439.133061 440.414823 442.209133
16.590000 438.710035 439.863674 441.357581 441.711832 443.345388 447.497946
16.710000 441.136109 442.575693 444.807154 445.263761 448.164135 452.008341
16.800000 442.874743 444.706755 447.714639 448.058656 451.596265 455.009941
16.890000 444.731144 447.090288 450.600144 450.805027 454.665338 457.556985
16.960000 446.434261 449.013040 453.071487 452.889438 456.757248 459.306913
17.090000 449.563501 452.559460 456.864608 456.427538 459.762581 462.163520
17.160000 451.637977 454.582824 458.981849 458.428566 461.511982 464.369854
17.235000 454.413545 457.776061 461.332737 460.977682 463.670927 466.492057
17.310000 457.692440 461.137892 463.509834 463.444519 465.806815 468.523101
17.390000 461.062382 463.525261 465.560012 465.682330 467.961425 470.574082
17.490000 463.654956 465.995267 468.183404 468.211037 470.508987 472.845698
17.610000 466.279346 468.684232 471.212495 471.092266 473.362884 475.636205
17.700000 468.326568 470.798792 473.502091 473.359247 475.831678 478.009769
17.790000 470.561989 473.108606 475.679107 475.578295 478.044158 480.247132
17.910000 473.366090 475.945168 478.592602 478.343967 480.623653 483.032267
17.990000 475.498970 478.071573 480.387034 480.290604 482.451768 484.754511
18.090000 478.337853 481.202251 483.180399 483.170981 485.220438 487.301900
18.210000 481.527693 484.641919 486.828065 486.688689 488.914134 490.772178
18.300000 483.365152 486.830260 489.242512 489.070802 491.444844 493.301375
18.390000 484.964075 488.821066 491.615779 491.273005 493.678433 495.956617
18.530000 488.611966 491.654615 494.510782 494.291466 496.821962 499.275664
18.670000 491.836766 494.774737 497.303683 497.162951 499.474365 501.483717
18.810000 495.342848 497.877307 500.211602 500.079008 502.190358 504.287930
18.890000 497.439338 499.895884 501.898079 501.880645 503.937711 506.175190
18.990000 499.657958 501.847368 503.990704 503.991225 506.132924 508.494529
19.110000 501.957458 503.889308 506.093156 506.190509 508.364346 510.816598
19.200000 503.727089 505.698163 507.941375 508.042349 510.195953 512.715045
19.290000 505.924173 507.757278 509.948170 510.014526 512.064054 514.746992
19.410000 508.181263 510.540255 512.706394 512.842209 514.926044 518.495340
19.490000 510.187382 512.473733 514.721444 514.878455 517.073474 521.903487
19.590000 513.048471 515.556536 517.646533 518.066731 520.381667 526.495258
19.710000 518.742043 521.071804 523.392264 523.655120 526.312600 530.150610
19.800000 523.010902 526.052812 528.409855 528.437754 530.963630 533.336094
19.890000 528.268216 530.855187 532.657054 532.614471 534.343486 536.600564
19.960000 531.929631 533.933557 535.394447 535.429076 536.993853 538.885093
20.090000 535.410827 537.010371 538.813509 538.847780 540.680453 542.558210
20.160000 536.917380 538.562513 540.633551 540.679187 542.751641 544.830825
20.180000 537.550050 539.062790 541.186040 541.237811 543.337350 545.319379
20.250000 539.217343 540.885307 543.002555 543.049178 545.193337 547.027819
20.350000 541.548891 543.405789 545.714275 545.647335 547.784271 549.629317
20.430000 543.885320 545.877992 548.017396 547.947954 550.078344 551.886663
20.550000 548.155436 550.168236 552.076286 551.972600 553.806600 555.557773
20.650000 551.780416 553.590385 555.353561 555.331632 557.056740 558.615925
20.750000 554.924379 556.748199 558.470010 558.534594 560.416073 562.336878
20.850000 557.525314 559.352041 561.364062 561.420250 563.491414 565.379642
20.950000 560.360661 562.120014 564.362820 564.353718 566.410341 568.692263
21.050000 563.109023 565.772267 567.873127 568.053780 570.109301 573.909890
21.160000 570.292278 573.071948 576.121959 576.321762 579.754168 582.592016
21.250000 576.925494 580.263475 583.734903 583.763794 587.069556 590.284759
21.340000 584.470023 586.946616 590.218564 590.134374 593.060514 595.925620
21.460000 590.760530 593.398036 596.548854 596.626028 599.739041 602.996615
21.540000 594.036995 596.869735 600.057104 600.186614 603.434012 606.518828
21.640000 597.473898 600.789129 604.142447 604.093523 607.569871 609.913434
21.760000 602.175336 605.200601 608.634543 608.249922 611.194426 613.220160
21.850000 605.508816 608.523667 611.421305 611.128727 613.702249 615.523970
21.940000 608.247942 611.326189 614.225270 613.826201 615.959502 617.657492
22.010000 610.831189 613.502014 616.416576 615.997583 618.064211 619.570886
22.140000 614.721092 616.760946 619.392702 619.048580 621.108121 622.577525
22.200000 616.881282 618.647164 620.733183 620.573791 622.418171 623.793864
22.280000 619.552813 621.030914 622.747467 622.684300 624.241726 625.518130
22.360000 622.354301 623.847832 625.027646 624.986283 626.214539 627.320424
22.440000 625.549321 626.576502 627.666461 627.644393 628.680119 629.593270
22.540000 628.369937 629.485514 630.740266 630.931246 632.230869 634.882442
22.660000 631.012760 632.301617 634.458904 634.811425 637.390313 640.404423
22.750000 633.089916 634.813499 637.303549 637.459907 640.170792 642.746879
22.840000 635.647651 637.319676 639.926321 640.009712 642.685647 644.829709
22.960000 638.337083 640.662538 643.290279 643.187827 645.457852 648.015078
23.040000 640.494690 642.958490 645.492002 645.431428 647.848466 650.147998
23.140000 643.306690 645.743859 648.071749 648.254236 650.943490 653.965413
23.260000 646.258792 648.810687 651.427907 651.633707 654.533935 657.941461
23.350000 648.660451 651.005719 654.092905 654.264888 657.542782 660.882664
23.440000 650.852039 653.289301 656.601337 656.795890 660.184488 663.492503
23.510000 652.392866 655.039887 658.798773 658.773801 662.274995 665.562183
23.640000 655.834804 658.762254 662.594251 662.412776 665.713958 668.663084
23.710000 657.630918 660.644893 664.593562 664.295003 667.614763 670.373111
23.785000 659.539663 662.704952 666.649673 666.273220 669.512324 672.412574
23.860000 661.717195 664.975647 668.560080 668.262512 671.415904 674.223197
23.940000 663.885328 667.309436 670.630378 670.335467 673.339826 676.061097
24.040000 667.039950 670.299873 673.284285 673.079696 675.855229 678.542472
24.160000 670.390268 673.907983 676.624148 676.569202 679.347632 682.015258
24.250000 673.444673 676.672306 679.205921 679.192887 681.795503 684.460970
24.340000 676.781302 679.226663 681.841911 681.776079 684.212873 686.354564
24.460000 680.002710 682.238143 684.858376 684.663958 687.076819 688.677635
24.540000 681.859354 684.137635 686.636544 686.478012 688.789290 690.323684
24.640000 684.035756 686.625068 688.788421 688.620913 690.650781 692.053598
24.760000 687.168843 689.240943 691.263939 691.144373 692.939725 694.544764
24.850000 689.454352 691.187567 693.000972 693.044293 694.838457 696.909971
24.940000 691.362415 692.959843 694.773539 694.863307 696.764221 699.118561
25.010000 692.634364 694.250005 696.042181 696.206228 698.075044 700.713567
25.140000 694.936926 696.446855 698.466518 698.536475 700.409557 703.254997
