depth(m) lower_95(kyr) lower_68(kyr) median(kyr) mean(kyr) upper_68(kyr) upper_95(kyr)
39.780000 298.836810 301.806061 304.475749 304.396349 306.976445 308.550242
39.880000 299.259184 302.384699 304.924589 304.921414 307.548277 308.928053
39.980000 299.851988 303.026322 305.511509 305.450146 308.035113 309.402513
40.080000 300.362437 303.674711 306.083449 305.981080 308.603220 309.929643
40.180000 300.752102 304.198943 306.560973 306.503600 309.119560 310.458662
40.230000 300.955434 304.446377 306.862286 306.764132 309.391321 310.761985
40.280000 301.106967 304.691571 307.068510 307.024219 309.693866 311.075466
40.380000 301.859353 305.128917 307.523498 307.522160 310.339454 311.705163
40.480000 302.433911 305.581657 308.012425 308.009175 310.886979 312.276818
40.580000 302.950823 306.004623 308.539722 308.528713 311.529125 312.848647
40.680000 303.664987 306.442256 309.029912 309.050834 312.118926 313.369190
40.780000 304.395830 306.953562 309.515848 309.590369 312.686338 313.893523
40.880000 304.977358 307.405946 310.034966 310.150942 313.226359 314.419204
40.980000 305.872197 307.937361 310.698115 310.746397 313.789023 314.931897
41.080000 306.590690 308.453138 311.479014 311.339870 314.285347 315.391581
41.180000 307.547836 309.105313 312.290479 312.021536 314.929655 315.948894
41.280000 308.371568 309.864472 312.995955 312.697101 315.445058 316.432788
41.410000 309.483208 310.819216 313.931914 313.606481 316.136894 317.045203
41.510000 310.334174 311.607948 314.725856 314.306152 316.656940 317.590452
41.610000 310.975674 312.390197 315.402554 315.012305 317.253002 318.154286
41.660000 311.356904 312.779875 315.736084 315.363053 317.586412 318.433633
41.710000 311.646034 313.190871 316.111472 315.707206 317.858471 318.688817
41.810000 312.642120 314.177504 316.754500 316.442944 318.388589 319.197899
41.910000 313.523544 315.400322 317.460143 317.217250 318.878504 319.688116
42.010000 314.604012 316.586374 318.194893 317.998835 319.442989 320.225964
42.110000 315.576977 317.611368 318.956613 318.781204 320.030434 320.794957
42.210000 316.993371 318.492235 319.670470 319.570109 320.700466 321.607263
42.310000 318.228652 319.430197 320.487222 320.390347 321.323791 322.387993
42.410000 319.210308 320.255756 321.286162 321.228517 322.147602 323.105793
42.510000 320.451785 321.249646 322.095947 322.102261 322.891546 323.857660
42.610000 321.405188 322.156913 322.901739 322.955106 323.744654 324.771141
42.710000 322.142241 322.903390 323.640216 323.717813 324.550231 325.730127
42.810000 322.947240 323.673619 324.447455 324.511890 325.376227 326.536653
42.910000 323.631224 324.325707 325.213516 325.259859 326.167627 327.483403
43.010000 324.384385 324.996263 325.949697 326.023456 327.082497 328.210073
43.110000 325.111809 325.676281 326.718727 326.802015 327.949431 329.022656
43.160000 325.414040 326.071215 327.096107 327.213022 328.434600 329.466118
43.210000 325.743759 326.495855 327.567155 327.643967 328.857490 329.885929
43.310000 326.484603 327.404902 328.552638 328.588752 329.730486 330.891002
43.410000 327.391701 328.365918 329.693838 329.649242 330.829945 331.849818
43.510000 328.291826 329.574245 330.752426 330.690165 331.857582 332.638906
43.610000 329.577683 330.662630 331.772668 331.736984 332.764793 333.655005
43.710000 330.347928 331.476984 332.568456 332.528819 333.532875 334.415087
43.810000 331.074439 332.248312 333.353539 333.270269 334.223986 335.100974
43.910000 331.899985 332.938788 333.947077 333.885532 334.832090 335.619538
44.010000 332.588647 333.517438 334.540255 334.495046 335.445352 336.201479
44.110000 333.212319 334.202989 335.153360 335.101898 336.015505 336.689787
44.210000 333.947566 334.903797 335.786580 335.750132 336.616032 337.301022
44.310000 334.785355 335.723380 336.573535 336.550890 337.412680 338.085542
44.410000 336.045229 336.844629 337.618740 337.617841 338.397347 339.314471
44.510000 337.001672 337.751644 338.532658 338.531843 339.290217 340.183409
44.610000 337.907778 338.555937 339.284474 339.317961 340.092364 340.894222
44.710000 338.613269 339.223671 339.944702 339.987024 340.761764 341.497087
44.810000 339.221895 339.869319 340.548868 340.602230 341.388106 342.110953
44.910000 339.823940 340.477417 341.175289 341.204972 341.982947 342.739186
45.010000 340.396934 341.014911 341.772173 341.805734 342.595421 343.425855
45.040000 340.610556 341.202976 341.958641 342.003660 342.805515 343.674300
45.140000 341.116343 341.760716 342.578947 342.655517 343.493998 344.691994
45.240000 341.640252 342.405616 343.233180 343.328476 344.277657 345.579643
45.340000 342.173693 343.079697 343.987015 344.129409 345.217353 346.684431
45.440000 342.718003 343.719578 344.887090 344.963745 346.247475 347.623305
45.540000 343.225082 344.369241 345.814268 345.799450 347.229558 348.449906
45.640000 343.777356 345.051764 346.731801 346.631358 348.155089 349.320979
45.740000 344.385717 345.833388 347.620402 347.447416 348.992600 350.034108
45.840000 344.904548 346.544908 348.580587 348.285811 349.760152 350.650448
45.890000 345.205242 346.941597 349.003899 348.672035 350.162309 350.931175
45.940000 345.556328 347.427518 349.394394 349.054424 350.504288 351.311400
46.040000 346.272068 348.368308 350.114836 349.802400 351.116259 351.971134
46.140000 346.868171 349.294765 350.815633 350.533921 351.823824 352.555239
46.240000 347.656478 350.114036 351.571291 351.288618 352.478585 353.409929
46.340000 348.332333 350.963141 352.255162 352.025488 353.140642 354.067007
46.440000 349.537296 351.807789 352.943633 352.736818 353.776832 354.566570
46.540000 350.568704 352.567670 353.571819 353.427195 354.365049 355.093711
46.640000 351.893736 353.319995 354.209799 354.103323 354.970049 355.643249
46.740000 352.736125 354.087701 354.860501 354.773151 355.543530 356.141978
46.840000 353.738678 354.749520 355.478699 355.418617 356.138167 356.610022
46.940000 354.732152 355.483412 356.109367 356.064959 356.682140 357.129634
46.990000 355.144678 355.842936 356.444155 356.389610 356.973575 357.410544
47.020000 355.311686 356.034538 356.653008 356.587263 357.147301 357.582232
47.070000 355.828935 356.374670 357.002569 356.925000 357.434449 357.851823
47.120000 356.250946 356.701766 357.359679 357.257426 357.716759 358.190353
47.140000 356.406081 356.848341 357.499198 357.397071 357.850660 358.315628
47.170000 356.602168 357.040332 357.701880 357.600616 358.045128 358.513144
47.190000 356.738570 357.175365 357.829618 357.734503 358.168960 358.661423
47.220000 356.934586 357.380338 358.015584 357.934192 358.365781 358.873804
47.270000 357.262621 357.718427 358.313706 358.256435 358.682380 359.220834
47.350000 357.698992 358.251957 358.798080 358.750509 359.164348 359.883782
47.370000 357.803246 358.385059 358.926001 358.881920 359.307248 360.031284
47.440000 358.277136 358.897988 359.353765 359.341311 359.738781 360.481422
47.470000 358.478416 359.104756 359.529094 359.534123 359.929561 360.699201
47.490000 358.634530 359.243610 359.660314 359.661796 360.053189 360.815059
47.620000 359.625482 360.044097 360.379494 360.415599 360.751382 361.395475
47.640000 359.758695 360.172546 360.502690 360.539450 360.867096 361.532526
47.670000 360.001986 360.364217 360.676581 360.725735 361.044742 361.719461
47.690000 360.123793 360.488479 360.803889 360.851920 361.171283 361.809484
47.720000 360.332396 360.688265 360.992117 361.036603 361.344020 362.015992
47.770000 360.668523 360.994322 361.267120 361.336360 361.686092 362.264130
47.820000 361.023599 361.310246 361.558792 361.645666 362.011226 362.579390
47.840000 361.175565 361.433123 361.696046 361.777101 362.149181 362.696166
47.870000 361.365002 361.610177 361.895709 361.974703 362.373063 362.882505
47.890000 361.475774 361.732112 362.033624 362.113019 362.526834 363.015812
47.920000 361.679700 361.935464 362.267588 362.329139 362.750820 363.232537
47.970000 362.004367 362.264565 362.669174 362.718749 363.150510 363.683040
48.020000 362.291731 362.623227 363.050238 363.095126 363.549774 364.140901
48.040000 362.408422 362.750693 363.204020 363.244522 363.696051 364.355424
48.070000 362.582527 362.973819 363.437577 363.476143 363.952810 364.643236
48.090000 362.683326 363.115823 363.596229 363.628803 364.129503 364.796486
48.120000 362.923229 363.333908 363.814200 363.870043 364.435892 365.050640
48.170000 363.294782 363.699274 364.207060 364.310669 364.982814 365.613451
48.220000 363.647314 364.098085 364.661775 364.780913 365.537964 366.201645
48.240000 363.789873 364.248341 364.811212 364.941740 365.716427 366.419883
48.270000 364.014575 364.460352 365.069930 365.189114 365.972747 366.694529
48.290000 364.141087 364.612531 365.232415 365.341404 366.140497 366.812451
48.320000 364.356167 364.817342 365.507552 365.586356 366.385169 367.044333
48.420000 365.070914 365.515038 366.447837 366.438131 367.313826 368.007114
48.440000 365.174145 365.657148 366.603330 366.593388 367.503791 368.124423
48.470000 365.401126 365.932523 366.856618 366.847721 367.750955 368.371747
48.520000 365.792283 366.403044 367.303305 367.314307 368.175911 368.852123
48.570000 366.203344 366.895109 367.806287 367.780894 368.661773 369.318097
48.620000 366.676850 367.385447 368.256005 368.240292 369.109762 369.856655
48.640000 366.885760 367.524631 368.414191 368.397176 369.257270 369.976332
48.690000 367.247697 367.936198 368.828209 368.822063 369.669421 370.367389
48.720000 367.530167 368.205321 369.073261 369.054493 369.878505 370.565107
48.770000 367.953823 368.563507 369.477900 369.444556 370.250025 370.906776
48.820000 368.303960 368.942206 369.840741 369.821276 370.650046 371.323129
48.870000 368.722662 369.373911 370.269963 370.237008 371.094500 371.776689
48.890000 368.859632 369.533404 370.439638 370.389325 371.255497 371.893353
49.020000 370.051725 370.619841 371.501275 371.478007 372.258064 373.026133
49.140000 370.922536 371.638923 372.413488 372.421373 373.183487 373.882183
49.170000 371.108786 371.857230 372.623789 372.645393 373.415943 374.154551
49.220000 371.556251 372.227759 373.018336 373.008337 373.762536 374.557966
49.320000 372.292727 372.876791 373.766363 373.738683 374.465168 375.373666
49.340000 372.414431 373.024737 373.927671 373.882989 374.622224 375.518687
49.370000 372.586603 373.212492 374.134444 374.091193 374.829300 375.735722
49.420000 372.941613 373.582435 374.547224 374.470306 375.232179 376.150199
49.470000 373.252634 373.908642 374.893126 374.842241 375.608662 376.482486
49.520000 373.637363 374.251704 375.276748 375.219206 376.003903 376.871989
49.540000 373.768630 374.378655 375.435430 375.362830 376.169315 377.060383
49.590000 374.051042 374.690855 375.768833 375.731216 376.658926 377.446951
49.620000 374.242260 374.895864 375.968172 375.951277 376.966550 377.666773
49.670000 374.655333 375.238585 376.251190 376.319006 377.399778 378.060331
49.720000 374.981482 375.607085 376.543639 376.681609 377.823730 378.432505
49.740000 375.087444 375.757219 376.657213 376.816893 377.966818 378.597363
49.770000 375.251944 375.955830 376.828845 377.019213 378.166684 378.818345
49.790000 375.409547 376.114449 376.960088 377.156837 378.315128 379.024171
49.820000 375.625699 376.361986 377.128123 377.358647 378.502350 379.214224
49.890000 376.035614 376.794274 377.494780 377.823840 379.044272 379.978089
49.940000 376.360313 377.132280 377.763002 378.169246 379.468100 380.467398
49.990000 376.684857 377.422067 378.032224 378.545217 380.076467 381.064815
50.010000 376.792142 377.554870 378.159194 378.686668 380.287378 381.231193
50.040000 376.981787 377.730466 378.359989 378.915573 380.590316 381.505225
50.060000 377.126567 377.835703 378.523452 379.061359 380.775653 381.657907
50.090000 377.292341 378.010116 378.717969 379.285232 381.063324 381.863571
50.190000 377.789679 378.571529 379.803181 380.177938 382.090348 382.625666
50.210000 377.892040 378.691467 380.022605 380.333303 382.233424 382.775618
50.290000 378.352804 379.153896 380.865579 380.978655 382.887211 383.341251
50.340000 378.674225 379.442693 381.323312 381.372335 383.260562 383.699185
50.390000 379.015457 379.768434 381.743087 381.762653 383.605721 384.053469
50.410000 379.152418 379.912919 381.909468 381.912373 383.758973 384.200265
50.440000 379.345883 380.132980 382.141993 382.132338 383.986040 384.392506
50.490000 379.586034 380.514414 382.542960 382.506046 384.272811 384.714957
50.540000 379.921259 380.873892 382.918930 382.876074 384.588345 385.024481
50.590000 380.241965 381.244845 383.416304 383.259274 384.869495 385.368817
50.610000 380.354782 381.411404 383.635904 383.417597 385.001112 385.488087
50.640000 380.628744 381.686459 383.952127 383.653086 385.190757 385.681377
50.660000 380.847238 381.863012 384.103495 383.809366 385.316315 385.838164
50.690000 381.152734 382.185077 384.451456 384.069541 385.511062 385.992252
50.790000 382.837715 384.088881 385.473854 385.229179 386.116101 386.683663
50.810000 383.001848 384.348089 385.631220 385.408091 386.255801 386.852349
50.840000 383.285188 384.745555 385.871163 385.682458 386.478012 387.134529
50.860000 383.470863 384.963920 386.032364 385.852842 386.659319 387.246161
50.890000 383.774128 385.319823 386.279490 386.132341 386.940853 387.523597
50.910000 383.956914 385.512090 386.438527 386.313979 387.125348 387.692930
50.940000 384.331671 385.848907 386.686735 386.583432 387.372377 388.014159
50.960000 384.451276 386.050731 386.845085 386.762523 387.576460 388.209097
50.990000 384.793108 386.367250 387.133626 387.055926 387.838076 388.524953
51.110000 386.615960 387.670676 388.356522 388.326311 389.060829 389.685790
51.140000 386.878120 387.897984 388.621415 388.584338 389.340275 389.927323
51.160000 387.104357 388.044875 388.800716 388.752097 389.490163 390.064298
51.235000 387.875889 388.617465 389.416976 389.348934 390.057643 390.556294
51.310000 388.495946 389.228463 390.004382 389.915777 390.562135 391.041479
51.360000 388.870691 389.553556 390.372550 390.279380 390.917076 391.375301
51.390000 389.128056 389.766852 390.594463 390.492382 391.111588 391.583419
51.440000 389.445723 390.083164 390.964404 390.846450 391.476859 391.861375
51.510000 389.903759 390.582161 391.464394 391.319638 391.916420 392.294044
51.560000 390.148340 390.866053 391.804037 391.636789 392.240053 392.566790
51.590000 390.305766 391.015148 392.011637 391.824564 392.405493 392.711651
51.640000 390.555018 391.344411 392.326370 392.121541 392.686645 392.970660
51.690000 390.842967 391.669692 392.643350 392.430679 392.987256 393.223450
51.710000 390.965409 391.800660 392.781208 392.560943 393.102373 393.329278
51.740000 391.124526 392.038116 392.961780 392.745472 393.280124 393.486015
51.760000 391.289832 392.171871 393.067382 392.863579 393.384127 393.604960
51.835000 391.734038 392.732407 393.408504 393.258385 393.740506 393.991929
51.910000 392.271747 393.190411 393.744272 393.639812 394.069712 394.382733
51.990000 392.963711 393.690137 394.124850 394.050241 394.413988 394.702899
52.110000 393.803388 394.305122 394.651527 394.622734 394.938140 395.332708
52.160000 394.061246 394.573106 394.875341 394.861744 395.156575 395.598712
52.190000 394.272075 394.719114 395.012456 395.009519 395.288603 395.853406
52.310000 395.032923 395.273697 395.534569 395.566046 395.817013 396.483443
52.340000 395.218224 395.422245 395.671451 395.718584 395.974684 396.673558
52.360000 395.329354 395.527952 395.785125 395.826111 396.072310 396.782145
52.390000 395.489703 395.682241 395.950263 395.993689 396.256506 396.985836
52.410000 395.583725 395.798840 396.060485 396.107387 396.379650 397.080855
52.440000 395.727842 395.948651 396.224547 396.275092 396.565221 397.286451
52.540000 396.153870 396.441689 396.742999 396.802324 397.118576 397.914213
52.610000 396.482606 396.776043 397.101444 397.164399 397.518159 398.349926
52.660000 396.733168 397.023814 397.352026 397.429031 397.771087 398.727057
52.740000 397.149293 397.429005 397.753312 397.830560 398.154301 399.285124
52.790000 397.399957 397.681312 398.004918 398.084946 398.409274 399.521114
52.810000 397.506024 397.793320 398.110730 398.188968 398.507090 399.665888
52.840000 397.693987 397.960814 398.270645 398.353897 398.684778 399.794644
52.860000 397.819484 398.072033 398.387823 398.467049 398.790481 399.913943
52.890000 397.980714 398.263008 398.569540 398.644671 398.963428 400.008529
52.990000 398.516301 398.836671 399.145578 399.207634 399.539235 400.374301
53.010000 398.603856 398.957496 399.256726 399.320965 399.640693 400.454387
53.040000 398.734586 399.125694 399.438237 399.493226 399.817232 400.589319
53.060000 398.858264 399.249501 399.553996 399.606700 399.935434 400.652215
53.090000 399.039222 399.432629 399.739008 399.779661 400.105660 400.754848
53.140000 399.274393 399.730601 400.021171 400.070059 400.457680 400.943094
53.190000 399.573518 400.002210 400.329647 400.362965 400.786080 401.160530
53.210000 399.648253 400.119130 400.449979 400.483876 400.897305 401.256945
53.240000 399.859740 400.295450 400.656134 400.664964 401.087248 401.397081
53.260000 399.984571 400.406561 400.787809 400.784986 401.205712 401.503198
53.290000 400.134291 400.564650 400.981314 400.968400 401.383370 401.672105
53.340000 400.426079 400.875394 401.323086 401.276093 401.660826 401.916243
53.390000 400.600041 401.179487 401.657146 401.580129 401.946162 402.205441
53.410000 400.683011 401.293372 401.779615 401.699754 402.056539 402.331492
53.440000 400.897906 401.470873 401.962455 401.875570 402.226801 402.498410
53.460000 400.994684 401.591647 402.063200 401.985399 402.336964 402.586499
53.490000 401.147701 401.770053 402.225804 402.147040 402.499654 402.736011
53.540000 401.421072 402.066758 402.481638 402.411760 402.763543 403.003273
53.610000 401.841757 402.475982 402.844853 402.795156 403.139978 403.378315
53.660000 402.131990 402.770938 403.116442 403.068854 403.404099 403.647616
53.690000 402.373768 402.946310 403.274998 403.239412 403.561895 403.808894
53.790000 403.271070 403.588928 403.807643 403.808423 404.056029 404.302873
53.810000 403.414985 403.716277 403.920863 403.925234 404.162409 404.414815
53.840000 403.632868 403.879226 404.089277 404.093292 404.331865 404.566881
53.860000 403.766944 403.980279 404.195506 404.202289 404.441961 404.651719
53.890000 403.940617 404.154288 404.347645 404.362816 404.597051 404.812517
53.910000 404.059821 404.264077 404.461623 404.474424 404.710865 404.920436
53.940000 404.198871 404.414949 404.629381 404.639151 404.871432 405.090410
53.960000 404.292343 404.518411 404.733040 404.743802 404.960120 405.225177
53.990000 404.449456 404.665126 404.899151 404.899626 405.117463 405.406704
54.040000 404.712665 404.892196 405.142044 405.148394 405.374887 405.688873
54.090000 404.921066 405.131205 405.389230 405.398337 405.643454 405.987522
54.110000 405.007802 405.239573 405.487365 405.502380 405.736725 406.110700
54.140000 405.141074 405.386925 405.645927 405.661070 405.913579 406.357374
54.160000 405.216838 405.487306 405.748165 405.767770 406.028956 406.475956
54.190000 405.363287 405.634171 405.888604 405.923589 406.196588 406.655136
54.240000 405.594084 405.875391 406.140723 406.192243 406.494521 407.066368
54.310000 405.937544 406.207864 406.508551 406.582944 406.954388 407.721080
54.340000 406.068469 406.362754 406.672025 406.748758 407.141128 407.898775
54.360000 406.198508 406.457526 406.775178 406.861282 407.265197 407.978997
54.390000 406.334887 406.600542 406.941171 407.032271 407.486630 408.185845
54.440000 406.588262 406.810541 407.214998 407.310742 407.821372 408.421723
54.490000 406.811057 407.073079 407.515640 407.614968 408.220751 408.748776
54.510000 406.921219 407.193891 407.641550 407.742405 408.363531 408.879990
54.540000 407.062248 407.352156 407.848167 407.935934 408.593131 409.054241
54.560000 407.177643 407.446832 407.991888 408.064540 408.738522 409.185952
54.590000 407.314792 407.638621 408.184165 408.257872 408.930954 409.368703
54.640000 407.537245 407.925169 408.575800 408.591177 409.247694 409.706128
54.660000 407.633509 408.058685 408.723411 408.722803 409.375790 409.827679
