depth(m) lower_95(kyr) lower_68(kyr) median(kyr) mean(kyr) upper_68(kyr) upper_95(kyr)
34.240000 318.361690 319.770545 320.034839 319.908258 320.185985 320.440785
34.270000 318.431507 319.874701 320.107529 319.982216 320.249377 320.522397
34.300000 318.511967 319.960680 320.172561 320.054003 320.313858 320.639398
34.330000 318.573884 320.035901 320.242352 320.121034 320.378953 320.706924
34.390000 318.753935 320.174578 320.359477 320.250252 320.494305 320.875339
34.420000 318.863597 320.247776 320.419703 320.314718 320.553619 320.973260
34.450000 318.922879 320.306745 320.477347 320.378027 320.615243 321.080641
34.555000 319.158343 320.470605 320.654374 320.576962 320.799920 321.378403
34.660000 319.418121 320.645227 320.825484 320.775841 320.984284 321.678503
34.780000 319.678870 320.831587 321.013488 320.983079 321.177000 322.086901
34.900000 319.949207 321.017796 321.198837 321.192737 321.365309 322.391024
34.990000 320.188908 321.157187 321.357583 321.358789 321.525458 322.657763
35.020000 320.292451 321.210043 321.410967 321.419924 321.577357 322.718223
35.110000 320.514455 321.372963 321.570327 321.600437 321.737500 323.009920
35.200000 320.775876 321.530855 321.732906 321.777447 321.909045 323.229848
35.210000 320.820937 321.545637 321.753103 321.799789 321.928913 323.262661
35.310000 321.082217 321.753413 321.965393 322.034505 322.205882 323.525942
35.410000 321.336215 321.956675 322.177458 322.277602 322.522298 323.778001
35.510000 321.643111 322.158615 322.408530 322.530838 322.872270 324.080070
35.610000 321.921750 322.361497 322.634423 322.788734 323.251755 324.375914
35.710000 322.156863 322.543425 322.882810 323.035076 323.595276 324.672587
35.810000 322.383713 322.745212 323.140399 323.291179 323.898071 324.994931
35.910000 322.580089 322.918634 323.376070 323.541198 324.225329 325.224250
36.054444 322.864563 323.203859 323.764576 323.911927 324.668917 325.715100
36.198889 323.101208 323.473493 324.116269 324.269114 325.094457 326.241142
36.343333 323.331727 323.749925 324.520044 324.624235 325.493962 326.761180
36.487778 323.589538 324.043622 324.888269 324.986082 325.894623 327.128656
36.632222 323.841290 324.360185 325.257056 325.358047 326.331211 327.612747
36.776667 324.088015 324.692657 325.684051 325.751251 326.764289 328.081456
36.921111 324.345241 325.011764 326.075388 326.141870 327.180731 328.585525
37.065556 324.646909 325.327767 326.538101 326.563912 327.646300 329.112537
37.210000 324.901739 325.749409 327.005447 327.013771 328.139493 329.817688
37.310000 325.120584 326.020019 327.291165 327.342264 328.574299 330.242430
37.410000 325.344467 326.281358 327.679003 327.704281 328.985294 330.655051
37.510000 325.591874 326.610762 328.073144 328.103829 329.484140 331.057586
37.640000 325.978079 327.142798 328.645513 328.766150 330.336180 332.354624
37.770000 326.391341 327.690209 329.354852 329.503821 331.274465 333.465429
37.898571 326.977524 328.608554 330.707385 330.886404 333.322062 335.410425
38.027143 327.788642 329.795030 332.489618 332.413097 334.989128 336.780009
38.155714 328.847146 331.395071 334.180965 333.953228 336.310583 338.029688
38.284286 330.286465 333.085318 335.624226 335.372879 337.456605 339.066528
38.412857 332.488940 335.037964 337.001192 336.789582 338.612805 340.040400
38.541429 334.409441 336.611933 338.219183 338.097626 339.618433 340.890835
38.670000 336.895460 338.158950 339.415334 339.357832 340.568593 341.664836
38.790000 338.024261 339.160284 340.349618 340.298497 341.391414 342.382393
38.910000 339.104670 340.267432 341.222012 341.212012 342.167972 343.136097
38.990000 339.745503 340.950402 341.852842 341.831607 342.763799 343.750933
39.070000 340.402878 341.668263 342.488197 342.476969 343.350852 344.238390
39.170000 341.316329 342.522195 343.305444 343.305255 344.125387 345.169048
39.270000 342.494580 343.312157 344.102083 344.137075 344.922561 345.916682
39.370000 343.300310 344.108875 344.875323 344.918584 345.723176 346.639484
39.470000 344.014627 344.811164 345.597018 345.639811 346.440180 347.349307
39.570000 344.637092 345.470922 346.280260 346.322047 347.164454 348.120511
39.670000 345.249921 346.089594 346.904980 346.955904 347.772553 348.867450
39.770000 345.831626 346.723946 347.560468 347.603786 348.464380 349.525715
39.870000 346.571312 347.344844 348.226899 348.262028 349.102585 350.223560
39.970000 347.133268 348.001517 348.895791 348.957896 349.866041 351.011472
40.070000 347.792112 348.650616 349.575610 349.648605 350.616419 352.059888
40.210000 348.603951 349.484133 350.488229 350.594390 351.731872 353.286358
40.290000 349.151934 350.022604 351.025838 351.191137 352.330039 354.313449
40.370000 349.558362 350.515280 351.605192 351.788676 353.064053 354.971244
40.483333 350.243180 351.204837 352.417495 352.658040 354.193918 356.066059
40.596667 350.909902 351.947285 353.248267 353.593595 355.472044 357.336002
40.710000 351.534940 352.574454 354.189280 354.513157 356.649874 358.314273
40.790000 352.101820 353.083582 354.884216 355.163936 357.421322 359.065503
40.870000 352.586682 353.643192 355.518760 355.803876 358.200430 359.891826
40.970000 353.120331 354.250655 356.514365 356.644848 359.147414 360.798216
41.070000 353.663283 354.895410 357.408089 357.468072 360.135416 361.741874
41.170000 354.305754 355.471600 358.450965 358.299385 361.004606 362.398336
41.270000 354.884265 356.077793 359.685556 359.221169 361.974262 363.453564
41.310000 355.203922 356.348992 360.056532 359.567160 362.356751 363.826067
41.440000 356.005071 357.305257 361.119218 360.625647 363.553139 364.964159
41.570000 356.877979 358.173351 362.322754 361.679294 364.674926 366.084932
41.710000 357.669606 359.188727 363.559195 362.849964 365.846800 367.179481
41.790000 358.098687 359.772024 364.404873 363.539924 366.515937 367.898762
41.870000 358.795182 360.516615 365.161049 364.261215 367.165785 368.600350
41.970000 359.754172 361.603709 366.041975 365.211098 368.065691 369.518348
42.070000 360.730795 362.679279 366.946202 366.194783 369.024136 370.392272
42.170000 361.572255 363.789991 367.815288 367.181118 369.973801 371.506059
42.270000 362.283605 365.187788 368.732897 368.233550 371.019627 372.713739
42.370000 363.335652 366.326094 369.696002 369.330717 372.002028 373.937769
42.490000 365.089852 367.976110 370.942551 370.803810 373.382870 376.350256
42.610000 366.814371 369.457541 372.224050 372.286570 375.032599 378.108251
42.730000 368.377550 371.088488 373.612430 373.776999 376.726533 379.924403
42.850000 370.154308 372.534366 374.929028 375.244624 378.221243 381.257585
42.970000 372.055783 373.839303 376.408755 376.671139 379.663866 382.340617
43.070000 373.063311 374.874134 377.657644 377.764109 380.832205 383.138180
43.210000 374.278454 376.184582 379.276706 379.260824 382.352843 384.126513
43.290000 375.076107 376.919661 380.215115 380.110666 383.133679 384.729819
43.370000 375.705627 377.820409 381.185330 380.954174 383.922561 385.329626
43.510000 377.262191 379.374802 382.870701 382.412965 384.971591 386.361300
43.590000 378.157882 380.331909 383.780744 383.220192 385.619344 386.945060
43.670000 379.083393 381.278431 384.609102 383.997340 386.257534 387.393307
43.765000 380.007018 382.631178 385.440871 384.931979 386.923872 387.995659
43.860000 381.013496 383.894864 386.329593 385.847566 387.578779 388.556499
43.970000 382.299837 385.369967 387.209058 386.844001 388.329074 389.301815
44.065000 383.788087 386.509507 387.922901 387.673099 388.934479 389.889414
44.160000 385.510457 387.441637 388.646175 388.465088 389.560034 390.479454
44.220000 386.116562 387.946503 389.007326 388.885069 389.913511 390.818724
44.320000 387.090633 388.631088 389.592506 389.528972 390.497549 391.454830
44.460000 388.102330 389.417466 390.413527 390.351357 391.310557 392.313408
44.593333 389.120802 390.251726 391.179496 391.210359 392.219423 393.514176
44.726667 390.071708 390.993483 391.976264 392.055162 393.126721 394.537717
44.860000 390.836461 391.719940 392.802622 392.875443 394.069619 395.443871
44.980000 391.473721 392.323153 393.422235 393.547014 394.819591 396.290829
45.100000 392.134717 392.893608 394.043205 394.200678 395.602973 396.956022
45.220000 392.652002 393.458709 394.645059 394.811276 396.252464 397.572585
45.362857 393.223316 394.051715 395.319305 395.505222 397.073760 398.400026
45.505714 393.838319 394.649738 395.980808 396.190535 397.864402 399.385357
45.648571 394.454826 395.293051 396.603111 396.844457 398.603156 400.170834
45.791429 394.880189 395.808731 397.213651 397.469458 399.291955 400.800422
45.934286 395.555566 396.351426 397.803881 398.114622 400.005773 401.500022
46.077143 396.114202 396.935295 398.517727 398.743019 400.702233 402.055790
46.220000 396.644887 397.487201 399.194016 399.377586 401.405431 402.718580
46.320000 397.004627 397.841324 399.657452 399.798395 401.881990 403.151511
46.420000 397.426127 398.271320 400.104824 400.235788 402.302603 403.521363
46.520000 397.789097 398.696488 400.576991 400.662830 402.745064 403.862108
46.620000 398.175884 399.028233 401.084389 401.075780 403.143177 404.208263
46.720000 398.509839 399.407699 401.544281 401.493121 403.578036 404.515547
46.820000 398.828935 399.820643 402.055528 401.917099 403.995242 404.868496
46.920000 399.194241 400.228518 402.509564 402.336769 404.361292 405.249677
47.053333 399.632979 400.794861 403.096721 402.895174 404.855814 405.703884
47.186667 400.132937 401.286256 403.717543 403.452057 405.368022 406.265480
47.320000 400.639425 401.797193 404.323142 404.008502 405.899604 406.776662
47.420000 401.075980 402.246354 404.793691 404.452548 406.289474 407.165092
47.520000 401.360370 402.662000 405.232739 404.890269 406.661394 407.612426
47.620000 401.830286 403.109768 405.666590 405.329862 406.980698 408.073908
47.720000 402.153143 403.581681 406.077910 405.758122 407.352361 408.434097
47.820000 402.590286 404.100211 406.565321 406.206389 407.784335 408.861286
47.953333 403.207684 404.979054 407.237005 406.873671 408.370525 409.563316
48.086667 403.840796 405.810404 407.861514 407.525833 408.984658 410.144466
48.220000 404.596460 406.666827 408.479628 408.207229 409.580153 410.865839
48.360000 405.323744 407.547211 409.166827 408.966221 410.334722 411.644534
48.440000 405.737917 408.032074 409.559726 409.405208 410.847029 412.065319
48.520000 406.132366 408.406176 409.964326 409.829699 411.269771 412.684276
48.653333 407.074392 409.225593 410.705434 410.670286 412.184085 413.763624
48.786667 407.958963 410.079452 411.539346 411.544118 413.097203 414.894714
48.920000 408.952901 410.978753 412.457975 412.475011 414.020584 415.840937
49.057778 409.805999 411.747801 413.365287 413.385840 415.070878 416.939406
49.195556 410.812421 412.598015 414.325334 414.350782 416.110193 417.975389
49.333333 411.609861 413.420352 415.332647 415.326632 417.176523 419.092849
49.471111 412.548211 414.315842 416.382717 416.347489 418.349722 420.130646
49.608889 413.504705 415.318406 417.502557 417.407938 419.425769 421.088391
49.746667 414.211482 416.380023 418.715155 418.529140 420.548966 422.326918
49.884444 415.177940 417.529323 419.912371 419.725045 421.756067 423.480290
50.022222 416.278031 418.788428 421.158889 420.959083 423.042307 424.633200
50.160000 417.406359 420.350919 422.558511 422.348117 424.344093 425.841330
50.220000 417.740411 421.154718 423.300770 423.048688 425.115060 426.515664
50.320000 419.568037 422.972202 424.895535 424.687797 426.549919 427.826033
50.420000 422.003027 424.820497 426.559438 426.358221 427.921301 429.241561
50.520000 425.316387 426.839697 428.156717 428.129134 429.466688 430.834801
50.615000 427.243609 428.481383 429.715913 429.881655 431.218498 433.857585
50.710000 429.004013 430.116232 431.310952 431.567746 433.069656 435.696925
50.760000 429.691474 430.843841 432.086219 432.360741 433.938412 436.523312
50.885000 431.205549 432.484887 433.929276 434.168133 435.861178 438.201343
51.010000 432.728133 434.204498 435.848484 435.946871 437.595317 439.832251
51.110000 433.850222 435.576317 437.337332 437.352004 439.064862 441.299117
51.210000 434.817570 436.751568 438.727886 438.657119 440.397573 442.590690
51.310000 435.812569 438.001793 439.934073 439.940623 441.747780 444.222069
51.410000 436.893236 439.086244 441.076040 441.091008 442.989492 445.407790
51.510000 437.653292 440.237476 442.121084 442.186251 444.139637 446.852938
51.610000 438.591425 441.317844 443.145978 443.240261 445.301588 447.854321
51.710000 439.512115 442.262232 444.250269 444.249280 446.248987 449.006455
51.810000 440.293964 443.117060 445.192394 445.193407 447.190279 450.003553
51.910000 441.120557 444.015563 446.134511 446.164862 448.387839 450.788458
52.038000 442.317605 445.241911 447.249429 447.336267 449.685063 451.989313
52.166000 443.225575 446.416513 448.410393 448.481198 450.790771 453.262303
52.294000 444.589055 447.464133 449.590232 449.624886 452.002895 454.239774
52.422000 445.680812 448.453826 450.725236 450.797579 453.198683 455.535804
52.550000 446.994636 449.663388 451.967494 451.976575 454.367683 456.681215
52.690000 448.373732 450.803113 453.339556 453.298081 455.723599 458.111148
52.830000 449.418167 451.968576 454.658739 454.564157 457.115553 459.190933
52.970000 450.741903 453.231664 455.927561 455.844589 458.394199 460.487972
53.110000 452.034355 454.506498 457.274810 457.155422 459.716634 461.700095
53.250000 453.259571 455.769205 458.702569 458.470613 461.004544 463.225978
53.370000 454.239940 456.820266 459.792482 459.556318 462.025519 464.638125
53.490000 455.141503 457.848511 460.840368 460.645037 463.213280 465.962776
53.610000 456.214039 458.871467 461.870029 461.705947 464.347979 467.116609
53.710000 456.878365 459.707450 462.629285 462.567416 465.256771 468.054815
53.810000 457.956177 460.503789 463.411749 463.432593 466.117385 469.107356
53.910000 458.802157 461.398307 464.306582 464.337583 467.048094 470.324055
54.010000 459.851145 462.345202 465.251364 465.272493 468.083242 470.991249
54.110000 460.693830 463.279289 466.200604 466.235597 469.186007 472.034904
54.210000 461.606823 464.253806 467.152237 467.230198 470.252393 473.029944
54.320000 462.847583 465.463418 468.336459 468.427407 471.438600 474.145040
54.430000 464.005163 466.879286 469.597956 469.683846 472.736648 475.543090
54.540000 465.208805 468.017613 470.823513 470.934766 473.948327 476.667660
54.650000 466.315680 469.330973 472.220255 472.204518 475.145511 477.655225
54.783333 467.964173 470.867065 473.725379 473.768692 476.672471 479.152117
54.916667 469.932306 472.512317 475.336563 475.330702 478.094376 480.603164
55.050000 471.265277 474.233882 476.979538 476.877744 479.530340 481.754604
55.150000 472.362251 475.312585 478.186008 478.035166 480.650537 482.695733
55.250000 473.720497 476.581783 479.491583 479.272788 481.853902 483.958855
55.350000 475.199752 477.869020 480.722601 480.475570 482.984000 484.961748
55.470000 476.598916 479.405222 481.958727 481.803638 484.163646 486.192872
55.590000 478.159541 480.829802 483.230131 483.083143 485.342517 487.444787
55.710000 479.597570 482.256925 484.454996 484.322077 486.425599 488.640869
55.830000 480.923932 483.387615 485.574231 485.470196 487.530408 489.639632
55.950000 482.606047 484.598748 486.633994 486.580109 488.505378 490.744506
56.070000 483.541810 485.745334 487.631973 487.606011 489.419490 491.729789
56.190000 484.618673 486.817566 488.698541 488.633642 490.328537 492.884599
56.310000 485.959895 487.773182 489.662257 489.628665 491.300936 493.993409
56.430000 486.963256 488.934603 490.558712 490.589380 492.303617 494.686110
56.550000 487.969824 489.821654 491.427926 491.503100 493.271522 495.511080
56.675000 489.022633 490.757005 492.299931 492.425502 494.240080 496.612172
56.800000 489.952548 491.614641 493.203455 493.315872 495.201374 497.324852
56.925000 490.906093 492.471180 494.053268 494.176350 495.973294 498.032822
57.050000 491.724559 493.311355 494.827812 495.028825 496.769441 498.883955
57.130000 492.196529 493.792902 495.411813 495.564355 497.389419 499.321399
57.210000 492.768898 494.314549 495.960767 496.089359 497.910092 499.781690
57.350000 493.964163 495.197340 496.862314 497.027585 498.977661 500.704322
57.430000 494.369397 495.755161 497.394308 497.542198 499.483405 501.129692
57.510000 495.025585 496.322495 497.922333 498.070204 499.915903 501.530236
57.630000 495.813603 497.247795 498.762328 498.888508 500.703794 502.178192
57.750000 496.501753 498.099013 499.588048 499.695445 501.437091 502.859097
57.870000 497.479942 498.866628 500.377711 500.480007 502.199038 503.551547
57.990000 498.295208 499.737061 501.188650 501.260922 502.932425 504.101157
58.110000 499.215044 500.529297 501.960530 502.054338 503.788911 504.895566
58.150000 499.527280 500.798657 502.216078 502.316116 503.990523 505.231084
58.280000 500.301988 501.655317 503.088466 503.170768 504.779877 506.149641
58.410000 501.173675 502.425522 503.924926 504.011983 505.546526 507.275314
58.550000 502.124932 503.412258 504.881554 504.969925 506.437018 508.474409
58.630000 502.555372 503.910931 505.435734 505.506957 507.020098 509.094160
58.710000 503.035814 504.436498 506.010323 506.078463 507.681216 509.746745
58.830000 503.829351 505.207207 506.868823 506.959049 508.568992 510.935292
58.950000 504.564656 506.097776 507.802623 507.866467 509.557254 512.018562
59.070000 505.227398 506.892050 508.748603 508.786647 510.606141 513.013692
59.190000 505.930001 507.746404 509.682024 509.737608 511.705243 513.982328
59.310000 506.556851 508.610549 510.675121 510.663712 512.694783 514.728382
59.416667 507.215952 509.415698 511.494565 511.486413 513.678469 515.874911
59.523333 507.904610 510.182182 512.361873 512.324871 514.469137 516.639702
59.630000 508.681661 510.940274 513.279856 513.188377 515.322958 517.347785
59.758571 509.633632 512.024240 514.290922 514.216909 516.431313 518.524491
59.887143 510.348416 512.865331 515.378087 515.186509 517.419645 519.410473
60.015714 511.207360 513.834615 516.304217 516.173940 518.443686 520.555291
60.144286 512.313761 514.854999 517.284403 517.175493 519.501891 521.605376
60.272857 513.316543 515.901814 518.373008 518.196587 520.423861 522.473797
60.401429 514.336272 516.931240 519.281514 519.189248 521.380807 523.392469
60.530000 515.205838 517.996149 520.297786 520.172047 522.399702 524.311793
60.658571 516.190494 518.896124 521.213463 521.122050 523.374988 525.349024
60.787143 517.012956 519.803878 522.217222 522.054515 524.248255 526.123458
60.915714 517.839280 520.788382 523.247602 523.036043 525.248785 526.999540
61.044286 518.868710 521.810235 524.332618 524.010246 526.196816 527.813945
61.172857 519.743165 522.755309 525.266726 524.948635 527.194411 528.583941
61.301429 520.424740 523.712883 526.221967 525.884091 528.084619 529.460367
61.430000 521.496503 524.663034 527.232273 526.831692 528.965890 530.195791
61.535000 522.607112 525.462101 528.060261 527.654965 529.721916 530.829978
61.640000 523.678322 526.359754 528.752981 528.445418 530.469115 531.523712
61.740000 524.577314 527.334048 529.447003 529.253864 531.119224 532.320252
61.840000 525.509707 528.173352 530.277531 530.029624 531.801944 533.030212
61.940000 526.661246 529.268624 531.124027 530.850003 532.455192 533.676655
62.030000 527.504260 530.064409 531.856457 531.582983 533.112984 534.287873
62.157500 528.819054 531.171652 532.893546 532.689433 534.143090 535.539039
62.285000 530.317043 532.506556 534.018131 533.890633 535.208433 536.859134
62.412500 532.298064 533.789138 535.038756 535.005317 536.202685 538.022047
62.540000 533.936712 534.974459 535.945902 536.087064 537.250172 538.919185
62.630000 534.470300 535.494260 536.488207 536.638927 537.810717 539.493638
62.735000 535.017940 536.024208 537.086576 537.222388 538.396497 540.033102
62.840000 535.599130 536.508347 537.691618 537.774953 538.992700 540.602362
62.980000 536.180139 537.091440 538.358124 538.451008 539.792414 541.236408
63.100000 536.599174 537.615261 538.904228 539.011700 540.386674 541.852572
63.220000 537.168614 538.142082 539.485476 539.561365 540.970827 542.440092
