depth(m) lower_95(kyr) lower_68(kyr) median(kyr) mean(kyr) upper_68(kyr) upper_95(kyr)
28.100000 295.110326 297.545044 301.196563 300.566235 303.203464 304.752233
28.150000 296.399754 298.902666 302.430670 301.791216 304.169478 305.732456
28.200000 297.648297 300.215750 303.628346 303.035485 305.295516 306.732998
28.250000 298.508382 301.670536 304.913560 304.265574 306.458018 307.681806
28.300000 299.770434 303.240297 306.358839 305.667447 307.717315 308.843891
28.350000 300.884489 304.695030 307.842690 307.107508 309.155044 310.276284
28.400000 301.823483 305.999567 309.094351 308.354976 310.338942 311.392551
28.450000 302.871734 306.941775 310.290611 309.533565 311.527637 312.511574
28.480000 303.640943 307.480511 310.959195 310.179541 312.229968 313.247291
28.520000 304.575730 308.391586 311.773112 311.016351 313.029594 314.103851
28.550000 305.122581 309.022413 312.418175 311.634820 313.637246 314.669971
28.600000 306.099646 310.321821 313.403131 312.631733 314.588730 315.585181
28.650000 307.228946 311.745009 314.328289 313.639464 315.492556 316.471036
28.700000 308.754581 313.174399 315.296412 314.676237 316.430787 317.287745
28.750000 309.856450 314.317827 316.308190 315.736051 317.376972 318.222143
28.850000 312.345512 316.665129 318.159126 317.806370 319.204645 319.992294
28.900000 313.840115 317.763432 319.177249 318.879628 320.209774 321.054708
28.950000 315.274914 318.771566 320.110314 319.826643 321.100796 321.993899
29.050000 317.823516 320.389027 321.575762 321.404021 322.584316 323.465149
29.100000 320.318267 321.493181 322.475583 322.442662 323.411356 324.227386
29.150000 321.458619 322.436136 323.263868 323.285045 324.222895 325.031057
29.200000 322.231805 323.162744 323.949728 323.997463 324.892822 325.678176
29.250000 323.044208 323.792453 324.620769 324.652066 325.565565 326.446246
29.300000 323.523642 324.424901 325.233567 325.266978 326.160403 327.021634
29.350000 324.153474 324.989203 325.875891 325.880174 326.761009 327.549688
29.400000 324.824755 325.600288 326.542665 326.508076 327.409342 328.145914
29.450000 325.480392 326.199500 327.133010 327.097629 328.006329 328.723446
29.500000 326.038596 326.814256 327.721896 327.689806 328.572673 329.285378
29.600000 327.261805 328.050578 328.879859 328.851703 329.632613 330.351763
29.700000 328.349110 329.242657 330.026229 329.995572 330.736699 331.375975
29.800000 329.712031 330.445244 331.157607 331.132227 331.837123 332.353068
29.850000 330.274115 330.999723 331.702563 331.671231 332.310973 332.853024
29.900000 330.786811 331.566007 332.226745 332.190617 332.809051 333.401054
29.950000 331.334157 332.060352 332.710741 332.681489 333.313902 333.931123
29.980000 331.664173 332.390988 333.031851 333.003387 333.611280 334.251152
30.020000 332.127844 332.819417 333.448371 333.434301 334.078007 334.663195
30.050000 332.421051 333.127556 333.807476 333.779455 334.413343 335.040831
30.100000 332.965021 333.720720 334.409250 334.385723 335.047865 335.660091
30.150000 333.645678 334.403741 335.086850 335.112755 335.825915 336.531727
30.200000 334.407424 335.170584 335.967906 335.963075 336.749860 337.538521
30.250000 335.328907 336.198004 337.199253 337.275554 338.340223 339.591079
30.300000 336.514098 337.651322 339.008216 339.236641 340.912915 343.377811
30.350000 338.040318 339.518143 341.273815 341.257974 342.866622 344.531638
30.400000 339.243749 341.454072 343.100762 342.921635 344.358493 345.914787
30.450000 340.541978 343.044601 344.363544 344.281654 345.662605 347.169891
30.500000 342.428055 344.139860 345.444548 345.425590 346.805454 348.238305
30.550000 343.834389 345.124824 346.500903 346.490643 347.929078 349.102206
30.600000 344.636361 346.020811 347.528107 347.458867 348.898538 350.055105
30.650000 345.509337 346.978434 348.428118 348.344644 349.756356 350.871104
30.700000 346.405862 347.831354 349.274880 349.183491 350.556600 351.562198
30.750000 347.390874 348.718651 350.048100 349.971573 351.253047 352.296952
30.800000 348.066532 349.548665 350.789638 350.733738 351.980633 353.083446
30.850000 349.047504 350.305822 351.466688 351.486819 352.676008 353.866175
30.900000 349.800254 351.016098 352.239591 352.250048 353.495543 354.735262
30.950000 350.519015 351.787894 353.005731 353.014834 354.251953 355.559472
31.000000 351.327527 352.544445 353.780245 353.801555 355.046075 356.321336
31.050000 352.178909 353.313397 354.520873 354.561009 355.863863 357.057338
31.100000 352.893654 354.093902 355.316316 355.334077 356.648451 357.665958
31.150000 353.644486 354.865487 356.134190 356.092229 357.379369 358.220824
31.200000 354.305824 355.594688 356.924699 356.818494 358.013275 358.779106
31.250000 355.193396 356.331619 357.669298 357.534079 358.661567 359.427085
31.300000 355.965247 357.183864 358.354177 358.230773 359.235894 359.956948
31.350000 356.672268 358.000425 359.001473 358.901795 359.787115 360.518733
31.400000 357.485887 358.769957 359.574950 359.513729 360.310137 361.002829
31.450000 358.439108 359.337547 360.094463 360.059160 360.768459 361.431374
31.480000 358.712076 359.679329 360.365799 360.353133 361.031113 361.751754
31.520000 359.181838 360.144331 360.738290 360.725541 361.376522 362.073388
31.550000 359.501349 360.374952 360.962733 360.961939 361.590395 362.276257
31.600000 359.935810 360.744618 361.320572 361.330132 362.018004 362.595224
31.650000 360.344474 361.072502 361.651398 361.666798 362.338041 362.893733
31.700000 360.720486 361.424312 361.969159 361.986811 362.642646 363.170037
31.750000 361.049520 361.726094 362.279928 362.290331 362.946953 363.438155
31.800000 361.344971 362.021881 362.559820 362.583502 363.228605 363.684554
31.850000 361.690188 362.307503 362.857870 362.878440 363.511652 363.971697
31.900000 362.041601 362.585138 363.171264 363.178390 363.798673 364.259648
31.950000 362.356996 362.904664 363.479266 363.476402 364.067319 364.550206
32.000000 362.613674 363.228532 363.780703 363.768353 364.370237 364.851380
32.050000 362.945450 363.485708 364.073350 364.067411 364.649088 365.167198
32.100000 363.288056 363.783947 364.380949 364.369557 364.940221 365.467561
32.150000 363.560276 364.121315 364.702865 364.683711 365.257833 365.789318
32.200000 363.835568 364.424755 365.000277 364.997865 365.564605 366.092530
32.250000 364.200404 364.745290 365.329822 365.316111 365.874768 366.411723
32.300000 364.518954 365.063288 365.633559 365.626589 366.200729 366.776713
32.350000 364.840692 365.349903 365.938766 365.931220 366.474598 367.075924
32.400000 365.101172 365.642815 366.234988 366.233557 366.791431 367.399100
32.450000 365.372700 365.974132 366.526471 366.541267 367.115963 367.682183
32.500000 365.660216 366.270911 366.838499 366.843911 367.416767 367.973083
32.550000 365.987559 366.606224 367.171596 367.166611 367.727035 368.346849
32.600000 366.303663 366.936128 367.481679 367.491340 368.060272 368.676038
32.650000 366.596527 367.241669 367.810940 367.821688 368.388744 369.087844
32.700000 366.948118 367.577884 368.158516 368.169547 368.768076 369.426135
32.750000 367.305634 367.936852 368.499718 368.524102 369.114673 369.872483
32.800000 367.694429 368.296801 368.887494 368.914474 369.536624 370.240838
32.850000 368.092278 368.671738 369.286808 369.297863 369.939376 370.662596
32.900000 368.518380 369.060384 369.674995 369.719083 370.382693 371.088094
32.950000 368.958113 369.478832 370.156172 370.186983 370.881893 371.677886
32.980000 369.174306 369.737966 370.465009 370.482788 371.222671 372.084657
33.020000 369.494470 370.132049 370.862780 370.924263 371.691823 372.789209
33.050000 369.749152 370.426920 371.176245 371.278431 372.127389 373.342336
33.100000 370.381465 371.103060 371.938561 372.099865 373.133105 374.759242
33.150000 370.984813 371.811556 372.931439 373.082019 374.360833 376.223944
33.200000 371.504199 372.435590 373.717412 373.899342 375.389781 377.303917
33.250000 372.072520 373.027499 374.561626 374.693243 376.296815 378.094378
33.300000 372.503988 373.670104 375.382638 375.476024 377.202456 379.024450
33.350000 373.096415 374.347335 376.283007 376.359122 378.387172 380.031358
33.400000 373.695865 375.055941 377.260278 377.271751 379.397794 381.135722
33.450000 374.301912 375.782746 378.387807 378.263299 380.552482 382.155970
33.500000 374.872766 376.709459 379.436893 379.288754 381.744697 383.045968
33.550000 375.827890 377.655759 380.658467 380.393746 382.882535 383.905329
33.600000 376.790954 378.676860 382.032403 381.474275 383.830548 384.797207
33.650000 377.606570 379.824854 383.153776 382.596856 384.733985 385.693480
33.700000 378.512488 381.543778 384.328214 383.729737 385.634975 386.609931
33.750000 379.580764 383.198835 385.363845 384.891672 386.608109 387.481013
33.800000 381.130207 384.599716 386.424883 386.057532 387.606889 388.536619
33.850000 382.969895 386.045634 387.526539 387.299481 388.719779 389.791498
33.900000 385.004997 387.363089 388.750182 388.677830 390.109518 391.579451
33.950000 386.926602 388.839000 390.426763 390.498622 392.209709 394.236692
34.000000 390.829340 392.525439 394.600562 394.817619 397.138065 399.958664
34.050000 393.615408 395.310835 398.346724 398.419864 401.347639 404.332545
34.100000 395.631819 397.538310 401.637449 401.479739 404.884830 407.906972
34.150000 397.926538 400.445755 404.733725 404.505908 408.074111 411.192561
