depth(m) lower_95(kyr) lower_68(kyr) median(kyr) mean(kyr) upper_68(kyr) upper_95(kyr)
11.300000 303.033897 303.978168 304.875873 304.692690 305.272450 305.601312
11.330000 303.294411 304.307451 305.130762 304.952559 305.497817 305.801295
11.350000 303.457772 304.497013 305.307010 305.125417 305.647570 305.949855
11.380000 303.748814 304.834333 305.548719 305.376551 305.889303 306.156091
11.400000 303.936944 305.020345 305.727045 305.546956 306.047392 306.275247
11.430000 304.200810 305.287996 305.967077 305.793637 306.267533 306.502015
11.450000 304.372667 305.446774 306.111493 305.948946 306.410548 306.658139
11.480000 304.678187 305.698659 306.343195 306.174646 306.608752 306.835533
11.500000 304.866085 305.870249 306.475635 306.332005 306.754556 306.979911
11.530000 305.106549 306.165030 306.700946 306.561304 306.956640 307.198175
11.550000 305.261859 306.364643 306.840985 306.709503 307.097751 307.353314
11.580000 305.509684 306.561334 307.049755 306.926142 307.306885 307.573470
11.600000 305.656082 306.739563 307.197067 307.079134 307.445454 307.746249
11.630000 305.939742 306.979410 307.415137 307.308075 307.647155 307.978524
11.650000 306.092015 307.113329 307.580179 307.465764 307.801030 308.156053
11.680000 306.356225 307.388697 307.794233 307.707098 308.028482 308.436171
11.700000 306.611997 307.556559 307.946515 307.871647 308.194007 308.666820
11.730000 306.971016 307.802808 308.173363 308.137116 308.473999 309.092336
11.750000 307.132232 307.980417 308.332765 308.312465 308.645767 309.266733
11.780000 307.485246 308.228831 308.580135 308.572708 308.911262 309.549387
11.800000 307.751319 308.406923 308.737548 308.754999 309.117260 309.738849
11.830000 308.090501 308.661247 309.002919 309.039355 309.431442 310.039320
11.850000 308.277982 308.821908 309.179994 309.234593 309.645712 310.319431
11.880000 308.594501 309.080382 309.473656 309.541685 309.975952 310.817921
11.900000 308.768695 309.248304 309.660314 309.744199 310.230589 311.098409
11.930000 309.040584 309.520362 309.980415 310.099362 310.599376 311.560012
11.980000 309.508434 309.979674 310.548750 311.022760 311.465180 317.683993
12.010000 309.788805 310.264997 310.907810 311.405287 311.876694 318.030799
12.141429 310.883553 311.815411 314.494953 317.652542 325.131049 330.052500
12.272857 312.295940 315.010041 325.404979 324.023677 330.792252 334.800344
12.404286 315.079537 323.923314 330.810998 329.673107 335.221569 338.815940
12.535714 323.151131 330.602380 334.817211 334.365939 338.588437 342.185814
12.667143 330.380476 335.098642 338.337438 338.241736 341.587802 345.818983
12.798571 335.474788 339.184689 341.568439 341.714134 344.360746 349.097110
12.930000 341.431070 343.046652 344.344247 344.959687 347.124657 351.935538
12.950000 342.376716 343.671005 344.893306 345.495874 347.676987 352.280410
12.970000 342.951096 344.140957 345.344068 345.952258 348.146314 352.550124
12.990000 343.415798 344.558258 345.723779 346.367899 348.600742 352.923756
13.010000 343.779029 344.951122 346.157001 346.786453 348.920012 353.146920
13.030000 344.212859 345.318899 346.540837 347.175311 349.424568 353.423872
13.050000 344.670711 345.722027 346.912749 347.569276 349.794745 353.805676
13.090000 345.196099 346.391219 347.617382 348.312009 350.644199 354.407166
13.140000 346.063705 347.182844 348.454678 349.208602 351.678985 355.417248
13.268571 347.733827 349.153290 350.771197 351.418804 354.223381 357.684569
13.397143 349.237945 351.022209 353.115003 353.580437 356.517173 359.617264
13.525714 351.015550 352.960202 355.374179 355.687358 358.545662 361.919583
13.654286 352.884146 354.953112 357.574766 357.704887 360.594020 363.738459
13.782857 354.806029 356.969579 359.581569 359.704234 362.509813 365.201080
13.911429 356.657994 358.968556 361.492719 361.576106 364.582018 367.078563
14.040000 358.840008 360.676412 363.140258 363.365213 366.461018 368.563164
14.140000 360.079891 361.943816 364.516662 364.666929 367.655493 369.888092
14.200000 360.961377 362.698963 365.334378 365.463341 368.440874 370.604872
14.220000 361.230694 362.982826 365.607022 365.729102 368.639812 370.833641
14.260000 361.812336 363.611298 366.174290 366.251592 369.015166 371.321862
14.370000 363.598559 365.379153 367.636075 367.731003 370.013846 372.190416
14.480000 365.379487 367.197359 369.133064 369.176278 371.108482 373.371344
14.590000 367.340830 369.038809 370.584742 370.616857 372.241331 374.288613
14.700000 369.686070 370.728121 371.950817 372.024694 373.308328 375.459707
14.720000 370.003841 370.936698 372.175343 372.270406 373.513584 375.775235
14.740000 370.254738 371.217889 372.393456 372.511659 373.819765 376.017510
14.780000 370.727814 371.628820 372.842601 372.983173 374.307913 376.444700
14.820000 371.138134 372.136411 373.273763 373.461772 374.901149 376.850669
14.880000 371.745980 372.828062 374.097761 374.223578 375.675516 377.637049
15.025000 372.900729 374.272495 376.050991 376.001445 377.584948 379.387095
15.170000 374.210673 375.748017 378.164944 377.842128 379.570995 381.230506
15.180000 374.320524 375.863110 378.307009 377.967522 379.698686 381.367463
15.200000 374.505456 376.068898 378.603660 378.212961 379.946698 381.551623
15.280000 375.333410 377.223103 379.565402 379.208931 380.901389 382.174219
15.425000 376.571328 379.971512 381.489009 381.177528 382.469973 383.476665
15.570000 377.820579 382.712928 383.448127 383.260524 384.050094 385.067869
15.590000 377.964640 383.057215 383.727983 383.545437 384.285587 385.314512
15.600000 378.156415 383.199530 383.879958 383.683217 384.424391 385.409503
15.620000 378.313181 383.548230 384.147001 383.961148 384.705262 385.624169
15.630000 378.404121 383.678260 384.305507 384.104015 384.884814 385.754784
15.640000 378.631496 383.825814 384.455062 384.258568 385.085492 385.892573
15.720000 382.165148 384.967807 385.893315 385.795411 386.865010 387.964927
15.850000 385.750293 387.356080 388.483782 388.410350 389.528119 390.616833
15.980000 389.022817 389.925215 390.856421 390.860715 391.780714 392.738251
16.000000 389.411084 390.288842 391.146239 391.172014 392.051680 393.010117
16.020000 389.717617 390.590599 391.431495 391.455170 392.359612 393.283215
16.060000 390.207741 391.106833 391.947402 391.972231 392.876871 393.824241
16.100000 390.704549 391.619607 392.430041 392.472231 393.396190 394.273791
16.160000 391.382125 392.281621 393.164636 393.184349 394.105356 395.082876
16.280000 392.496440 393.431526 394.465033 394.519248 395.571840 396.798734
16.400000 393.626786 394.672649 395.689226 395.803813 396.998671 398.453842
16.520000 394.735479 395.888573 396.991061 397.098275 398.323301 399.930915
16.640000 396.179779 397.173091 398.327997 398.452881 399.728554 401.345400
16.753333 397.504732 398.525754 399.732659 399.833345 401.098848 402.582625
16.866667 398.898161 400.049366 401.250208 401.311324 402.643816 404.156557
16.980000 400.526356 401.651252 402.759929 402.860992 404.180539 405.503899
17.000000 400.822437 401.958047 403.049913 403.158723 404.451314 405.789706
17.020000 401.176493 402.269417 403.335517 403.485521 404.818513 406.041419
17.040000 401.430379 402.629537 403.664284 403.798859 405.072186 406.285975
17.100000 402.583733 403.533522 404.595106 404.715653 406.021971 407.158467
17.120000 402.946265 403.857026 404.891690 405.027830 406.332659 407.367802
17.130000 403.122641 404.029406 405.040313 405.191757 406.516891 407.557911
17.160000 403.732322 404.557569 405.581012 405.708674 407.027702 407.986747
17.180000 404.150634 404.901956 405.908962 406.057711 407.394214 408.367356
17.200000 404.469288 405.284420 406.295296 406.419237 407.682010 408.615512
17.220000 404.724562 405.693913 406.708634 406.808268 408.036552 408.913998
17.270000 405.913854 406.823274 407.884084 407.899360 408.964084 409.840619
17.300000 406.611637 407.574669 408.608403 408.569691 409.538678 410.387402
17.320000 407.115125 408.076249 409.102241 409.052549 409.973823 410.764274
17.340000 407.865236 408.707297 409.607267 409.594337 410.445850 411.167188
17.350000 408.066307 408.959400 409.848488 409.821236 410.664523 411.391321
17.370000 408.736970 409.556170 410.418732 410.354239 411.127580 411.797553
17.380000 409.015356 409.792193 410.654741 410.579014 411.357275 411.978389
17.390000 409.217282 410.030959 410.861782 410.802909 411.567945 412.170035
17.410000 409.579043 410.442157 411.291186 411.245645 411.988176 412.660251
17.430000 410.060579 410.892975 411.755446 411.659644 412.339140 412.985375
17.450000 410.437152 411.285886 412.150586 412.053409 412.733384 413.390511
17.460000 410.651712 411.479943 412.334313 412.247508 412.923845 413.544857
17.470000 410.842816 411.669481 412.542834 412.438037 413.112772 413.708985
17.480000 411.025434 411.875497 412.726389 412.625348 413.294778 413.895941
17.500000 411.467560 412.316910 413.077484 412.994650 413.609725 414.185942
17.520000 411.915614 412.695557 413.413346 413.331473 413.932587 414.454808
17.540000 412.236094 413.077823 413.724765 413.663405 414.238844 414.761426
17.560000 412.561913 413.421450 414.022113 413.976408 414.519036 415.066727
17.570000 412.741139 413.572480 414.172751 414.135920 414.667868 415.237324
17.580000 412.959270 413.762362 414.336866 414.302873 414.821788 415.402497
17.620000 413.632755 414.453880 414.938425 414.933650 415.398275 416.167716
17.640000 414.011897 414.791435 415.258636 415.263179 415.724479 416.473433
17.650000 414.192547 414.972258 415.424021 415.435256 415.882399 416.693378
17.660000 414.365844 415.147588 415.587681 415.596570 416.038141 416.909576
17.670000 414.511450 415.333352 415.736829 415.764429 416.203230 417.108882
17.680000 414.688283 415.475525 415.904921 415.930202 416.365584 417.358169
17.690000 414.876179 415.640504 416.078621 416.100409 416.521634 417.517721
17.720000 415.457448 416.137369 416.539440 416.603995 417.015424 418.151940
17.730000 415.768347 416.330638 416.709656 416.787674 417.204763 418.353691
17.740000 415.919650 416.519580 416.880618 416.973848 417.429113 418.529685
17.750000 416.050301 416.697820 417.041118 417.150199 417.633959 418.650705
17.760000 416.284713 416.851268 417.204199 417.328324 417.819189 418.851095
17.770000 416.430749 417.041389 417.399816 417.515918 418.031320 419.028086
17.780000 416.578748 417.213996 417.573726 417.712263 418.246107 419.199477
17.790000 416.855840 417.399720 417.777248 417.908853 418.453823 419.385943
17.800000 417.016344 417.571749 417.992501 418.100259 418.672104 419.562915
17.810000 417.236906 417.747108 418.214103 418.299649 418.905716 419.779287
17.820000 417.364984 417.926875 418.425460 418.489684 419.105246 419.944109
17.830000 417.533451 418.102964 418.621707 418.680827 419.299524 420.150269
17.840000 417.661042 418.267600 418.821383 418.877391 419.522248 420.331686
17.850000 417.897576 418.464842 419.016025 419.072416 419.705499 420.531829
17.870000 418.262850 418.873250 419.385387 419.454041 420.102733 420.881215
17.880000 418.426772 419.057628 419.588971 419.649504 420.301693 421.023232
17.890000 418.630318 419.253683 419.787298 419.837733 420.498643 421.181651
17.900000 418.785600 419.461090 419.970235 420.026278 420.677781 421.404586
17.920000 419.169543 419.853661 420.336946 420.410292 421.032448 421.845560
17.930000 419.387263 420.049541 420.526748 420.606881 421.233192 421.984793
17.940000 419.577136 420.229652 420.732767 420.802210 421.426830 422.185494
17.950000 419.736329 420.425875 420.905163 420.998701 421.626441 422.394233
17.960000 419.884973 420.624732 421.128749 421.195233 421.819980 422.584126
17.970000 420.090980 420.815212 421.325369 421.386302 421.991348 422.826536
17.990000 420.477375 421.167614 421.752755 421.787163 422.381645 423.180362
18.000000 420.647856 421.357080 421.955422 421.983869 422.578770 423.466799
18.010000 420.793852 421.545827 422.168553 422.182349 422.785737 423.679402
18.020000 420.988806 421.734354 422.365748 422.381384 422.993412 423.879899
18.030000 421.180091 421.892079 422.577045 422.573708 423.182395 424.134982
18.050000 421.618198 422.233310 422.952372 422.937802 423.587848 424.448354
18.060000 421.749044 422.400003 423.142490 423.113691 423.787110 424.588044
18.110000 422.516573 423.210470 423.963887 423.941806 424.629392 425.446643
18.180000 423.700515 424.417142 425.208193 425.200252 425.969030 426.728594
18.260000 425.234355 426.119461 426.986881 426.931636 427.709994 428.278839
18.270000 425.407510 426.391192 427.269120 427.199440 427.964921 428.569870
18.310000 427.313138 428.054610 428.629425 428.658774 429.317228 429.941972
18.320000 427.715541 428.413676 428.937477 428.981312 429.619547 430.285844
18.330000 428.293640 428.779362 429.293335 429.367516 430.018628 430.732096
18.340000 428.693089 429.097368 429.592808 429.684109 430.323097 431.047762
18.350000 428.961324 429.356677 429.879324 429.965628 430.593150 431.398062
18.360000 429.246780 429.630442 430.198143 430.267582 430.900163 431.684042
18.370000 429.554842 429.911455 430.547308 430.582266 431.227482 432.059833
18.380000 429.816812 430.207382 430.835855 430.888291 431.524082 432.449797
18.390000 430.068596 430.486314 431.116628 431.182053 431.854509 432.818546
18.400000 430.315935 430.769428 431.413171 431.489431 432.172598 433.182699
18.410000 430.554843 431.029662 431.703171 431.780051 432.502069 433.544385
18.420000 430.824080 431.319537 432.025138 432.091368 432.821708 433.928991
18.430000 431.041973 431.606950 432.348237 432.400335 433.175303 434.219778
18.440000 431.327598 431.876768 432.683225 432.717385 433.516304 434.555870
18.450000 431.631914 432.196067 433.077321 433.084467 433.893642 434.983216
18.460000 431.910564 432.550165 433.447144 433.462217 434.301818 435.294275
18.470000 432.245517 432.908315 433.804085 433.826438 434.723768 435.706521
18.480000 432.555125 433.245588 434.196088 434.198549 435.129511 436.090051
18.490000 432.860978 433.634133 434.577213 434.566528 435.522745 436.391705
18.500000 433.162218 434.001840 434.983254 434.961036 435.876597 436.875790
18.510000 433.536277 434.382622 435.396912 435.384057 436.370681 437.241014
18.520000 433.871341 434.776149 435.845047 435.813091 436.845811 437.705048
18.530000 434.213386 435.172778 436.284158 436.240467 437.280024 438.090803
18.540000 434.483425 435.612787 436.750557 436.700019 437.732055 438.608609
18.550000 434.822567 436.004878 437.289863 437.215871 438.253500 439.433543
18.560000 435.319084 436.550566 437.941117 437.953277 438.932402 442.150423
18.570000 435.803843 437.196643 438.645628 439.153183 440.278035 447.719472
18.580000 436.182913 437.783298 439.327051 440.284250 443.612085 449.241490
18.590000 436.509471 438.309259 439.849799 441.206807 445.907371 450.399979
18.600000 437.235126 439.072920 440.978723 442.930971 448.909361 451.623728
18.610000 438.070399 440.138303 445.173708 445.154070 450.744173 452.988181
18.620000 439.016528 441.643170 447.956377 447.403311 452.144215 454.057309
18.630000 442.289255 446.713504 450.387098 449.989416 453.478673 455.384068
18.640000 444.733585 448.502538 452.103328 451.686824 454.666639 456.645433
18.650000 447.250467 450.332470 453.471928 453.165985 455.830080 458.111582
18.660000 448.993361 451.943784 454.716746 454.537840 456.969830 459.642363
18.670000 450.548243 453.537660 456.029757 455.943035 458.118156 462.185835
18.680000 452.299382 454.828578 457.097906 457.208420 459.316405 463.484998
18.690000 453.780850 456.116548 458.181524 458.281056 460.374962 463.908679
18.700000 455.187351 457.264349 459.274927 459.466251 461.691447 464.847296
18.710000 456.488397 458.815369 462.020256 461.942060 464.871478 467.269876
18.720000 459.515329 462.661550 464.735663 464.570348 466.825038 467.935976
18.730000 461.956890 463.567753 465.155787 465.220049 467.214321 468.215161
18.740000 462.782033 464.134591 465.505985 465.626732 467.483641 468.414531
18.750000 463.238183 464.546742 465.754072 465.946518 467.715795 468.651010
18.760000 463.717329 464.905853 466.040969 466.234144 467.975496 468.824159
18.780000 464.543063 465.570037 466.540634 466.788067 468.378625 469.175691
18.790000 464.867370 465.942182 466.795193 467.061458 468.593075 469.413342
18.800000 465.194789 466.293382 467.028002 467.324144 468.814030 469.619110
18.810000 465.436414 466.578528 467.257999 467.570593 469.004999 469.829125
18.820000 465.693431 466.852471 467.493852 467.802309 469.183385 469.964781
18.830000 465.941979 467.128814 467.724787 468.024505 469.382080 470.163002
18.840000 466.181561 467.360161 467.931042 468.252131 469.532842 470.350190
18.850000 466.351078 467.588657 468.153033 468.469402 469.716487 470.552945
18.860000 466.521493 467.825771 468.381721 468.682407 469.881841 470.803342
18.870000 466.706699 468.020842 468.599916 468.890931 470.058959 470.998871
18.880000 466.848808 468.209660 468.797413 469.091896 470.229681 471.270440
18.890000 467.043223 468.405908 469.035050 469.295558 470.405740 471.578693
18.900000 467.226075 468.606584 469.241993 469.500646 470.596079 471.808157
18.910000 467.478693 468.800491 469.460485 469.713846 470.799371 472.006144
18.920000 467.654932 469.014297 469.692219 469.921143 470.983165 472.140003
18.930000 467.838589 469.202534 469.979346 470.135646 471.181811 472.351740
18.940000 468.013846 469.410574 470.250264 470.338596 471.354325 472.528122
18.950000 468.162794 469.590145 470.572941 470.543489 471.582490 472.658258
18.960000 468.335722 469.799463 470.820001 470.748959 471.792181 472.810957
18.970000 468.493721 469.992603 471.046048 470.954952 472.042397 472.953744
18.980000 468.675605 470.161171 471.273235 471.166014 472.297092 473.135225
18.990000 468.864885 470.327272 471.493183 471.369024 472.532650 473.301156
19.000000 469.055570 470.509954 471.705961 471.569926 472.743346 473.495825
19.010000 469.293700 470.679159 471.890878 471.765319 472.991409 473.651025
19.020000 469.462825 470.866752 472.090424 471.965638 473.250075 473.833667
19.030000 469.650069 471.019476 472.265204 472.157184 473.442681 474.050330
19.040000 469.815660 471.205089 472.466730 472.353946 473.658904 474.211107
19.050000 470.056185 471.375151 472.647702 472.543010 473.829567 474.389684
19.060000 470.317791 471.557358 472.836440 472.743188 474.028343 474.594479
19.080000 470.617172 471.903006 473.240061 473.123298 474.376795 474.894824
19.100000 471.122953 472.249378 473.585862 473.501654 474.733916 475.219314
19.120000 471.636251 472.614517 473.970665 473.873653 475.020296 475.525507
19.140000 472.048570 473.022785 474.342921 474.226030 475.337467 475.798679
19.160000 472.393362 473.356173 474.679937 474.549719 475.610509 476.041547
19.180000 472.734756 473.775285 475.027637 474.864066 475.885371 476.305476
19.200000 473.037697 474.159864 475.360729 475.176921 476.153241 476.549602
19.220000 473.404544 474.503754 475.651295 475.465965 476.368901 476.771097
19.260000 474.102755 475.221017 476.156577 476.014233 476.759292 477.133658
19.320000 475.369289 476.126355 476.904763 476.783747 477.391860 477.720307
19.350000 475.826099 476.606089 477.275028 477.176077 477.708658 478.025852
19.370000 476.191997 476.934669 477.526965 477.442009 477.921249 478.236859
19.380000 476.380488 477.091417 477.656886 477.579680 478.038797 478.356277
19.420000 477.129968 477.737828 478.154179 478.100842 478.439424 478.850156
19.430000 477.268853 477.893016 478.275946 478.231112 478.554636 478.976207
19.450000 477.667515 478.197738 478.520322 478.502216 478.811925 479.250644
19.460000 477.822015 478.352620 478.644319 478.640198 478.933556 479.419530
19.470000 477.978140 478.502293 478.770444 478.772363 479.059434 479.558727
19.480000 478.180081 478.634328 478.897682 478.912176 479.189193 479.667014
19.500000 478.542514 478.896738 479.138164 479.178501 479.515713 479.903472
19.510000 478.735851 479.014168 479.271396 479.318846 479.670401 480.024913
19.520000 478.902499 479.164997 479.412528 479.466035 479.842409 480.178144
19.530000 479.046498 479.300682 479.569493 479.616153 479.991788 480.324778
19.540000 479.187922 479.427439 479.726367 479.769679 480.133815 480.464271
19.550000 479.338624 479.569326 479.915227 479.927472 480.295461 480.626918
