depth(m) lower_95(kyr) lower_68(kyr) median(kyr) mean(kyr) upper_68(kyr) upper_95(kyr)
22.340000 290.625480 291.640331 292.581192 292.531325 293.393967 294.200408
22.360000 291.001672 292.042947 292.928236 292.876601 293.717647 294.493309
22.380000 291.443848 292.417217 293.259249 293.218736 294.032029 294.715670
22.400000 291.799580 292.822899 293.594704 293.565293 294.348425 295.001614
22.420000 292.156379 293.206707 293.926718 293.908705 294.680420 295.312865
22.440000 292.678706 293.564020 294.273625 294.259564 294.992734 295.606862
22.460000 293.227514 293.944811 294.607195 294.623311 295.339748 295.929813
22.480000 293.636693 294.338846 295.002581 294.988112 295.688310 296.231236
22.500000 293.977283 294.710912 295.414141 295.374841 296.066344 296.583975
22.520000 294.355917 295.085510 295.779387 295.755852 296.434415 296.933062
22.540000 294.756419 295.481324 296.174176 296.143380 296.811888 297.381483
22.560000 295.238036 295.873669 296.558658 296.527874 297.185428 297.735498
22.580000 295.630846 296.252771 296.968392 296.909192 297.540283 298.083526
22.600000 296.018559 296.631322 297.327167 297.286081 297.890937 298.453920
22.620000 296.368833 297.083761 297.707276 297.683807 298.294376 298.871102
22.640000 296.699609 297.467069 298.069598 298.062170 298.673097 299.315045
22.660000 297.150913 297.881845 298.451685 298.457540 299.064664 299.760422
22.680000 297.731284 298.275691 298.860298 298.878631 299.464718 300.214217
22.700000 298.157437 298.713714 299.316588 299.315879 299.913491 300.574682
22.720000 298.526280 299.133758 299.734023 299.741231 300.336352 301.015322
22.740000 298.965666 299.525476 300.133457 300.153712 300.757632 301.473282
22.760000 299.332440 299.920490 300.527851 300.548065 301.134079 301.907630
22.780000 299.691074 300.299924 300.936786 300.945096 301.510766 302.345531
22.800000 300.049010 300.696302 301.338149 301.340073 301.933532 302.775810
22.820000 300.437316 301.117226 301.723533 301.731308 302.353024 303.131309
22.840000 300.829939 301.502748 302.111162 302.123574 302.727749 303.474950
22.860000 301.265419 301.903118 302.513360 302.523352 303.140847 303.880488
22.880000 301.612918 302.254788 302.876812 302.897884 303.529763 304.239991
22.900000 301.981055 302.632872 303.274931 303.281642 303.898393 304.694705
22.920000 302.359904 303.011206 303.641085 303.664449 304.357436 305.141671
22.940000 302.727893 303.369497 304.034867 304.055884 304.737638 305.522593
22.960000 303.108129 303.765872 304.440162 304.466109 305.157705 305.997013
22.980000 303.505567 304.176756 304.838008 304.867003 305.564821 306.315238
23.000000 303.909777 304.602465 305.268037 305.282029 305.996652 306.661220
23.020000 304.278415 304.978443 305.662124 305.674406 306.372674 307.028737
23.040000 304.696603 305.412294 306.120273 306.092655 306.763879 307.370314
23.060000 305.147815 305.842465 306.532518 306.513240 307.203347 307.791039
23.080000 305.648430 306.297249 306.944522 306.933382 307.583547 308.180034
23.100000 306.044579 306.714722 307.333572 307.335096 307.952389 308.591342
23.120000 306.549450 307.138926 307.769838 307.755213 308.353632 308.930487
23.140000 306.946488 307.550581 308.156625 308.159145 308.765851 309.315909
23.160000 307.424727 307.940456 308.545578 308.546962 309.163177 309.753320
23.180000 307.846976 308.351086 308.923363 308.941783 309.535775 310.077949
23.200000 308.257802 308.741455 309.287734 309.313329 309.896910 310.483657
23.220000 308.550423 309.076754 309.612023 309.645265 310.255024 310.765998
23.240000 308.841628 309.433739 309.953108 309.986829 310.610741 311.079017
23.260000 309.199839 309.752505 310.335579 310.333789 310.938684 311.450961
23.280000 309.507425 310.077841 310.656089 310.663441 311.239349 311.823297
23.320000 310.111892 310.625275 311.285635 311.267953 311.889504 312.458988
23.340000 310.359774 310.913575 311.601810 311.579435 312.205684 312.797568
23.360000 310.690129 311.197419 311.910979 311.891305 312.522178 313.145377
23.380000 310.935318 311.491155 312.246414 312.201071 312.869526 313.466595
23.400000 311.191375 311.783487 312.566503 312.514805 313.179240 313.754683
23.420000 311.507318 312.095715 312.902206 312.836420 313.516613 314.032081
23.440000 311.769958 312.375810 313.223494 313.146984 313.817293 314.313141
23.460000 312.016274 312.718933 313.536773 313.461129 314.124492 314.722964
23.480000 312.360396 313.021633 313.862483 313.777126 314.423174 314.988692
23.500000 312.611685 313.343228 314.172736 314.093809 314.754790 315.263058
23.520000 312.892748 313.670681 314.490198 314.407742 315.064425 315.522514
23.540000 313.138697 314.040344 314.816956 314.729617 315.375017 315.895498
23.560000 313.419541 314.388722 315.164327 315.051362 315.682885 316.200925
23.580000 313.683609 314.755604 315.469797 315.379571 316.008887 316.520033
23.600000 314.010655 315.056210 315.768135 315.691287 316.298595 316.833161
23.620000 314.298641 315.438234 316.083551 316.007268 316.619420 317.105707
23.640000 314.625637 315.739434 316.399912 316.314221 316.927193 317.367285
23.660000 314.907960 316.029846 316.699235 316.620553 317.248141 317.678578
23.680000 315.363215 316.328083 316.995225 316.921052 317.525720 317.944333
23.700000 315.776452 316.630734 317.283252 317.212743 317.793868 318.213517
23.720000 316.204578 316.946262 317.554496 317.511679 318.063931 318.496988
23.740000 316.554371 317.299698 317.845818 317.795479 318.305238 318.746684
23.760000 316.815062 317.585885 318.137658 318.074480 318.570192 318.964305
23.780000 317.139244 317.874071 318.433094 318.362993 318.853044 319.214659
23.800000 317.479481 318.175108 318.690960 318.643843 319.119959 319.473271
23.820000 317.779986 318.492460 318.955803 318.924405 319.397109 319.720662
23.840000 318.164496 318.770479 319.251900 319.206058 319.653342 319.992687
23.860000 318.544846 319.068205 319.506689 319.489203 319.921297 320.266546
23.880000 318.863611 319.354861 319.793313 319.773315 320.178880 320.536927
23.900000 319.206343 319.641958 320.086158 320.067870 320.474241 320.834937
23.920000 319.506849 319.947459 320.384807 320.361750 320.754301 321.160191
23.940000 319.802016 320.252195 320.678833 320.668358 321.070483 321.514909
23.960000 320.046254 320.538307 320.957093 320.952188 321.358849 321.809593
23.980000 320.326091 320.820500 321.263869 321.245501 321.671336 322.142965
24.000000 320.573313 321.111177 321.550772 321.543429 321.971078 322.464786
24.020000 320.922367 321.395349 321.846773 321.846165 322.287160 322.767344
24.040000 321.211105 321.702111 322.164190 322.162301 322.610388 323.093555
24.060000 321.515822 322.005930 322.467166 322.480911 322.965267 323.453389
24.080000 321.816266 322.330379 322.794098 322.810714 323.289939 323.825399
24.100000 322.118610 322.652535 323.132464 323.153687 323.641092 324.282151
24.120000 322.487760 322.980680 323.476713 323.491297 323.987133 324.701661
24.140000 322.823180 323.269067 323.796295 323.821289 324.337033 325.108446
24.160000 323.089021 323.551936 324.112156 324.134820 324.680532 325.489281
24.180000 323.346212 323.867048 324.388276 324.450504 325.035601 325.834961
24.200000 323.656701 324.157008 324.691841 324.759528 325.351698 326.161512
24.220000 323.990335 324.449424 325.018607 325.088991 325.719971 326.502382
24.240000 324.267025 324.751995 325.346190 325.402880 326.095295 326.826787
24.260000 324.548336 325.038768 325.679712 325.724252 326.453100 327.168760
24.280000 324.817525 325.329719 326.033848 326.059374 326.797235 327.477683
24.300000 325.072734 325.630505 326.392363 326.389419 327.153182 327.779676
24.320000 325.392544 325.965535 326.730474 326.722521 327.482547 328.138719
24.340000 325.718694 326.307886 327.090978 327.072479 327.831879 328.516443
24.360000 326.035174 326.645481 327.441528 327.435610 328.194446 328.847342
24.380000 326.267088 326.970997 327.813523 327.785669 328.546414 329.253128
24.400000 326.546616 327.286475 328.168576 328.122100 328.885757 329.600048
24.420000 326.827983 327.607372 328.533220 328.458927 329.249621 329.930778
24.440000 327.136068 327.959347 328.878064 328.796325 329.567203 330.268602
24.460000 327.385670 328.318484 329.240053 329.138894 329.878295 330.622366
24.480000 327.760779 328.637870 329.553126 329.475102 330.234810 330.904896
24.500000 328.063612 329.005870 329.877112 329.831678 330.641602 331.280467
24.520000 328.546930 329.420035 330.252842 330.222250 331.032823 331.751880
24.580000 329.689158 330.553839 331.414335 331.412170 332.261128 333.047707
24.600000 330.076375 330.967516 331.882530 331.868116 332.772539 333.545288
24.620000 330.528974 331.434928 332.449596 332.393879 333.335562 334.101908
24.640000 331.157567 332.187909 333.156741 333.135506 334.092443 334.978569
24.660000 331.958000 333.012604 334.031048 334.013887 334.988791 335.930450
24.680000 333.142110 334.145287 335.177574 335.120678 336.013905 336.845459
24.700000 333.953650 334.958957 335.968628 335.898098 336.780746 337.613352
24.720000 334.987746 335.957842 336.832303 336.777357 337.576437 338.341063
24.740000 335.657726 336.665612 337.468539 337.414262 338.167561 338.876136
24.760000 336.463039 337.362188 338.068139 338.055976 338.761083 339.436473
24.780000 337.235129 337.954811 338.647635 338.640445 339.360918 339.995730
24.800000 337.820727 338.481272 339.183883 339.175189 339.876329 340.561058
24.820000 338.358198 338.996923 339.672933 339.660842 340.324027 341.019183
24.860000 339.310909 339.893295 340.541924 340.533065 341.162046 341.803742
24.880000 339.806397 340.344275 340.987862 340.966029 341.583238 342.183110
24.900000 340.214598 340.780352 341.376576 341.388019 341.988019 342.536430
24.920000 340.619919 341.183655 341.801739 341.810868 342.427821 342.968396
24.940000 341.022835 341.636700 342.221120 342.233674 342.862582 343.476096
24.960000 341.396310 342.058257 342.639165 342.661549 343.287744 343.945339
24.980000 341.780202 342.462297 343.087131 343.116752 343.797122 344.508778
25.000000 342.212121 342.919481 343.584236 343.607096 344.315523 345.148557
25.020000 342.600334 343.325121 344.045900 344.076252 344.820190 345.818864
25.040000 342.965966 343.703809 344.494763 344.533330 345.325182 346.478073
25.060000 343.332804 344.053274 344.884438 344.953830 345.843653 347.046930
25.080000 343.653828 344.389093 345.311911 345.385677 346.364471 347.646203
25.100000 344.015483 344.774475 345.731185 345.839524 346.934939 348.360399
25.120000 344.435718 345.191776 346.189194 346.320819 347.438155 348.823619
25.140000 344.864295 345.613890 346.674570 346.812444 348.031601 349.329571
25.160000 345.243913 346.038359 347.148249 347.295205 348.601807 349.805357
25.180000 345.673870 346.469146 347.600397 347.760147 349.093240 350.297793
25.220000 346.443007 347.337522 348.571566 348.679755 350.064002 351.361829
25.240000 346.895319 347.822863 349.053805 349.154697 350.501112 351.826043
25.260000 347.307684 348.296216 349.535960 349.626313 350.988240 352.351360
25.280000 347.769287 348.829855 350.013364 350.100315 351.394412 352.840405
25.320000 348.878258 349.810306 350.939381 351.043761 352.235002 353.649772
25.340000 349.431316 350.288986 351.433056 351.533084 352.797779 354.231458
25.360000 349.828936 350.767676 351.915016 352.017838 353.280087 354.727672
25.380000 350.344459 351.227750 352.436114 352.538176 353.805363 355.312112
25.400000 350.790888 351.757820 352.961857 353.054667 354.328827 355.787486
25.420000 351.390357 352.255066 353.493879 353.566012 354.868930 356.291545
25.440000 351.915146 352.785035 354.008917 354.074371 355.381355 356.820606
25.460000 352.424380 353.325467 354.491621 354.598726 355.870361 357.286776
25.480000 352.937433 353.793521 354.991786 355.094649 356.382226 357.747927
25.500000 353.395777 354.337311 355.446135 355.583893 356.901980 358.352116
25.520000 353.852021 354.800877 356.000453 356.070930 357.309484 358.733990
25.540000 354.215178 355.260834 356.525459 356.546642 357.797775 359.172191
25.560000 354.579638 355.720912 357.034930 357.023726 358.251342 359.596971
25.580000 355.011012 356.185198 357.520892 357.487822 358.657216 359.877900
25.620000 355.985861 357.303484 358.490516 358.438514 359.585668 360.664826
25.640000 356.507185 357.790477 358.952992 358.909131 360.039486 361.084266
25.660000 357.004682 358.316517 359.420651 359.381303 360.577016 361.506729
25.680000 357.561683 358.760568 359.876429 359.863967 361.033748 361.915217
25.720000 358.553512 359.727505 360.886817 360.831466 361.951800 362.766960
25.740000 359.111468 360.165108 361.342534 361.276674 362.387164 363.192383
25.760000 359.563705 360.592432 361.760139 361.701025 362.787500 363.656504
25.780000 359.975470 360.992744 362.176388 362.103186 363.175167 363.969975
25.840000 360.908913 362.170807 363.364233 363.202779 364.192657 364.858269
25.880000 361.480444 362.885113 364.146803 363.934776 364.895431 365.621295
25.900000 361.756912 363.233970 364.509139 364.303622 365.286447 365.939447
25.920000 362.086539 363.609716 364.894666 364.682851 365.618605 366.303646
25.940000 362.352484 363.974565 365.249980 365.046854 365.991033 366.637462
25.960000 362.863205 364.378956 365.585185 365.395697 366.306120 366.958850
25.980000 363.264021 364.758338 365.913639 365.736057 366.629426 367.303405
26.000000 363.632085 365.121282 366.264102 366.080236 366.942607 367.721911
26.020000 364.077454 365.447667 366.585231 366.417224 367.269785 368.085020
26.040000 364.522591 365.796373 366.903242 366.751053 367.617525 368.401691
26.060000 364.859407 366.130474 367.230184 367.074950 367.940474 368.691516
26.080000 365.168075 366.473174 367.522554 367.401995 368.278819 369.001680
26.100000 365.680957 366.832035 367.850696 367.747834 368.632986 369.352056
26.120000 366.115308 367.205525 368.170823 368.085607 368.942099 369.707467
26.140000 366.555682 367.565685 368.465053 368.420366 369.258757 370.054540
26.160000 366.914689 367.951675 368.822649 368.766069 369.602157 370.437180
26.180000 367.387144 368.325509 369.112906 369.116303 369.937034 370.742105
26.220000 368.106701 369.036248 369.827691 369.806276 370.604662 371.408848
26.240000 368.542064 369.412766 370.217274 370.185067 370.961889 371.759018
26.260000 369.059886 369.825292 370.603344 370.596525 371.359293 372.170380
26.280000 369.437886 370.222838 371.000744 371.010537 371.768217 372.659354
26.300000 369.905684 370.674765 371.387182 371.432922 372.181118 373.194482
26.320000 370.201057 371.044120 371.775942 371.823597 372.576391 373.627212
26.360000 370.954602 371.765502 372.535400 372.597913 373.382502 374.746449
26.400000 371.616872 372.435714 373.281132 373.377300 374.282588 375.711371
26.440000 372.303395 373.070810 374.036437 374.159007 375.185467 376.935404
26.500000 373.305010 374.157811 375.200904 375.407117 376.696027 378.593826
26.520000 373.674475 374.527994 375.633664 375.828875 377.209549 379.049395
26.600000 374.982971 375.901642 377.356423 377.553860 379.279107 381.215201
26.660000 375.812606 377.093248 378.943169 378.966253 380.821572 382.461077
26.780000 377.527842 379.777572 382.401035 381.937570 383.687922 384.507381
26.820000 378.145537 381.028289 383.337252 382.821606 384.466060 385.247641
26.840000 378.521129 381.446282 383.701445 383.213451 384.792305 385.570309
26.880000 379.413118 382.567730 384.511754 384.039745 385.450204 386.191074
26.920000 380.287866 383.758821 385.234047 384.844567 386.056287 386.847874
26.960000 381.294149 384.593949 385.911836 385.581227 386.670352 387.368740
26.980000 381.692204 385.047368 386.252169 385.920296 386.997280 387.677586
27.000000 382.226624 385.457928 386.540628 386.248166 387.271929 387.930019
27.020000 382.733355 385.776414 386.834741 386.551677 387.558929 388.163639
27.040000 383.125188 386.148121 387.104334 386.860778 387.831575 388.474004
27.060000 383.568055 386.432344 387.378750 387.162234 388.067082 388.709309
27.100000 385.131403 387.058253 387.943608 387.778495 388.611275 389.188517
27.160000 386.923196 388.042826 388.755794 388.682950 389.372586 389.951757
27.200000 387.803936 388.608866 389.295963 389.245188 389.897133 390.430991
27.220000 388.157447 388.909698 389.577313 389.545330 390.197606 390.731870
27.240000 388.548387 389.247320 389.862635 389.849647 390.480722 390.965019
27.260000 388.853869 389.572078 390.178199 390.162752 390.786423 391.317890
27.300000 389.681582 390.271530 390.862704 390.857917 391.455833 392.032652
27.340000 390.310762 390.824794 391.467977 391.448136 392.049938 392.605105
27.360000 390.582480 391.117319 391.747512 391.730940 392.316697 392.900550
27.380000 390.813775 391.394088 392.007888 391.991980 392.560811 393.171866
27.440000 391.483509 392.106635 392.729998 392.726545 393.329790 393.976956
27.460000 391.751423 392.346707 392.959980 392.969668 393.588627 394.186736
27.480000 391.965521 392.572149 393.176928 393.198646 393.822244 394.387372
27.520000 392.450683 392.993822 393.620654 393.640394 394.317191 394.862018
27.560000 392.826341 393.427143 394.035292 394.070689 394.746936 395.311845
27.620000 393.397504 394.042667 394.705793 394.687065 395.320563 395.866207
27.640000 393.622348 394.242119 394.922801 394.895026 395.514603 396.129307
27.720000 394.387862 395.051309 395.698343 395.660467 396.253507 396.831208
27.760000 394.786762 395.456082 396.115823 396.067635 396.663792 397.213166
27.840000 395.597291 396.256773 396.886236 396.874390 397.487129 398.111343
27.860000 395.754183 396.482609 397.108549 397.093577 397.715483 398.385680
27.880000 395.979180 396.711056 397.336897 397.327728 397.961019 398.601274
27.940000 396.834996 397.524632 398.079268 398.144120 398.826342 399.517255
27.960000 397.121223 397.733165 398.328670 398.383938 399.073038 399.792435
28.020000 397.720655 398.305611 398.977123 399.033108 399.802705 400.553215
28.080000 398.266049 398.918772 399.598532 399.673650 400.479839 401.189009
28.120000 398.656855 399.303524 400.016311 400.089776 400.948914 401.689758
28.180000 399.184934 399.871715 400.669020 400.702826 401.577931 402.302458
28.220000 399.520528 400.228747 401.092506 401.102393 402.004657 402.699475
28.260000 399.879749 400.571805 401.530000 401.511311 402.488189 403.130002
28.280000 400.080051 400.748061 401.735051 401.727031 402.705869 403.356028
28.320000 400.415258 401.098157 402.208309 402.161829 403.142882 403.803868
28.340000 400.643034 401.261653 402.456844 402.378472 403.373406 404.035243
28.380000 401.039494 401.620029 402.941140 402.819569 403.820510 404.449154
28.440000 401.521596 402.162236 403.639140 403.444501 404.474768 405.076315
28.460000 401.665779 402.315350 403.886450 403.654628 404.697283 405.245073
28.520000 402.221681 402.844801 404.559887 404.251219 405.315398 405.817418
28.540000 402.369653 403.037333 404.760596 404.457239 405.545069 406.041161
28.560000 402.546807 403.264098 404.983742 404.661721 405.712446 406.261347
28.580000 402.715411 403.441394 405.188519 404.858051 405.909593 406.452190
28.620000 403.046067 403.838327 405.608829 405.253695 406.276652 406.762057
28.640000 403.237941 404.090848 405.798162 405.455506 406.474458 406.967868
28.660000 403.445343 404.315215 405.994848 405.653217 406.650274 407.163259
28.720000 403.976896 404.994785 406.522957 406.253635 407.222535 407.793099
28.780000 404.626058 405.755542 407.063272 406.868381 407.778443 408.451734
28.880000 405.746053 406.934052 408.010577 407.894488 408.788284 409.539529
28.940000 406.427930 407.674650 408.623437 408.528793 409.417544 410.270444
28.960000 406.628976 407.907109 408.834729 408.743423 409.625070 410.481871
29.060000 407.812371 409.067231 409.861692 409.856754 410.674674 411.654498
29.120000 408.610448 409.772515 410.559120 410.583300 411.489804 412.430163
29.140000 408.865296 409.975755 410.783428 410.808982 411.706481 412.636693
29.160000 409.179536 410.187314 410.998044 411.030651 411.947440 412.945705
29.180000 409.295586 410.391386 411.226080 411.248031 412.180408 413.166634
29.220000 409.730726 410.784099 411.673737 411.686038 412.665362 413.712664
