depth(m) lower_95(kyr) lower_68(kyr) median(kyr) mean(kyr) upper_68(kyr) upper_95(kyr)
19.330000 301.350134 302.537923 303.603401 303.400415 304.210809 304.621906
19.350000 301.644870 302.796996 303.862264 303.652927 304.414026 304.822876
19.370000 301.947545 303.089214 304.133820 303.914796 304.661957 305.011053
19.390000 302.309775 303.385442 304.397165 304.168736 304.887186 305.265671
19.410000 302.531954 303.646789 304.630099 304.412037 305.102027 305.461332
19.430000 302.794110 303.924354 304.850646 304.650159 305.306356 305.673631
19.450000 303.037757 304.225606 305.076135 304.890852 305.550842 305.855551
19.470000 303.290348 304.491099 305.300488 305.117427 305.768526 306.079050
19.490000 303.607161 304.726421 305.543306 305.351240 305.982948 306.288292
19.510000 303.925123 304.973961 305.753031 305.584341 306.180372 306.483411
19.530000 304.198769 305.193349 305.986189 305.812846 306.389578 306.701033
19.550000 304.423012 305.442355 306.192012 306.038265 306.599000 306.906313
19.570000 304.689752 305.674331 306.404959 306.264621 306.809772 307.136951
19.590000 304.975348 305.925311 306.640553 306.495826 307.014189 307.329294
19.610000 305.225578 306.183046 306.852823 306.729432 307.249059 307.544873
19.630000 305.553325 306.486321 307.087206 306.971256 307.464598 307.849376
19.650000 305.795337 306.734359 307.297965 307.203928 307.683003 308.068945
19.670000 306.187454 306.981708 307.509970 307.445045 307.897916 308.333104
19.690000 306.550544 307.211646 307.740065 307.697471 308.156542 308.698414
19.710000 306.773009 307.476544 307.997285 307.953368 308.412434 308.964103
19.730000 307.073851 307.737042 308.242422 308.214524 308.670221 309.260834
19.750000 307.365473 308.004369 308.467349 308.476882 308.953632 309.606614
19.770000 307.646928 308.256771 308.718751 308.748843 309.245743 310.044345
19.790000 307.919228 308.506733 308.959653 309.026355 309.555481 310.446281
19.810000 308.213385 308.759608 309.212009 309.322317 309.918344 310.955605
19.830000 308.483718 309.005192 309.488213 309.616383 310.288660 311.439653
19.870000 309.045446 309.533086 310.045047 310.309102 311.253588 312.633962
19.890000 309.306517 309.766616 310.338341 310.624734 311.697446 313.055030
19.910000 309.602896 310.042869 310.638867 310.949712 312.086214 313.306229
19.930000 309.855964 310.306127 310.926595 311.275022 312.568693 313.735199
19.950000 310.104292 310.574896 311.211094 311.613785 313.018756 314.139896
19.970000 310.372048 310.823657 311.503439 311.935247 313.489334 314.599036
19.990000 310.614749 311.141890 311.845393 312.257733 313.850815 314.976078
20.010000 310.923817 311.435895 312.150839 312.582412 314.178908 315.281218
20.030000 311.240433 311.722789 312.518941 312.937389 314.613831 315.585234
20.050000 311.559386 312.001647 312.906175 313.277307 314.959719 315.922717
20.070000 311.829688 312.289970 313.314214 313.645025 315.311427 316.269949
20.090000 312.131180 312.670188 313.796545 314.040655 315.607629 316.538787
20.110000 312.435602 313.040652 314.171623 314.412225 315.967579 316.814999
20.130000 312.729874 313.450117 314.635649 314.808693 316.313398 317.191107
20.150000 313.035376 313.905985 315.107226 315.207508 316.633612 317.380680
20.170000 313.413485 314.298805 315.529350 315.598593 316.974377 317.666687
20.190000 313.824715 314.719090 315.988460 315.990987 317.281469 317.950844
20.210000 314.252465 315.217643 316.365884 316.381421 317.626315 318.275299
20.230000 314.662550 315.721115 316.784648 316.756619 317.900656 318.544813
20.250000 315.144432 316.138451 317.158773 317.121628 318.178201 318.833138
20.270000 315.573452 316.531230 317.475335 317.450265 318.427468 319.090162
20.290000 316.017464 316.930984 317.804025 317.777303 318.642376 319.292823
20.310000 316.560325 317.397988 318.157870 318.129222 318.953633 319.499050
20.330000 316.978896 317.773534 318.486427 318.462611 319.221058 319.698331
20.350000 317.294704 318.158930 318.797768 318.770716 319.502662 319.931836
20.370000 317.650542 318.443039 319.068108 319.044949 319.735640 320.139190
20.390000 317.989795 318.719451 319.347292 319.307084 319.950285 320.339815
20.410000 318.276946 318.980023 319.595468 319.552386 320.179703 320.491043
20.430000 318.546706 319.232962 319.831208 319.795156 320.390191 320.708952
20.450000 318.853373 319.487656 320.062670 320.031694 320.590996 320.918945
20.470000 319.126586 319.760046 320.331972 320.272177 320.795643 321.141373
20.530000 320.206628 320.659443 321.063729 321.030948 321.413292 321.724611
20.550000 320.459525 320.937993 321.301502 321.281146 321.664302 321.932750
20.570000 320.778042 321.167315 321.529431 321.514566 321.878136 322.130827
20.590000 321.009601 321.403603 321.742593 321.732866 322.057569 322.323530
20.610000 321.259502 321.614217 321.957030 321.942578 322.252603 322.525773
20.630000 321.493956 321.846008 322.164792 322.148492 322.445725 322.703662
20.650000 321.700288 322.084953 322.372397 322.354618 322.622054 322.905804
20.670000 321.953212 322.297381 322.561360 322.553874 322.805272 323.116346
20.690000 322.190887 322.498304 322.757143 322.745640 322.978460 323.283259
20.710000 322.394443 322.696398 322.927531 322.929319 323.157527 323.464268
20.730000 322.598671 322.875625 323.103656 323.106857 323.327452 323.619717
20.750000 322.782163 323.045914 323.277487 323.280237 323.494199 323.788381
20.770000 323.006573 323.222504 323.452531 323.453340 323.674356 323.945582
20.790000 323.151714 323.393242 323.618794 323.620816 323.838849 324.104759
20.810000 323.343582 323.542283 323.773007 323.782517 324.001388 324.255648
20.830000 323.483028 323.710667 323.935079 323.944662 324.163709 324.403016
20.850000 323.624831 323.862681 324.105788 324.106352 324.325273 324.580886
20.870000 323.795988 324.038847 324.263630 324.266828 324.484234 324.754582
20.890000 323.955037 324.200260 324.421528 324.425832 324.633742 324.907283
20.910000 324.136494 324.368405 324.580833 324.586060 324.794359 325.076612
20.930000 324.276799 324.529602 324.743233 324.746389 324.950286 325.260631
20.950000 324.435525 324.689203 324.894204 324.903523 325.109618 325.444451
20.970000 324.603723 324.848563 325.046950 325.063397 325.268656 325.620071
20.990000 324.765003 325.007394 325.208340 325.223363 325.417696 325.771413
21.010000 324.955978 325.156670 325.366440 325.382761 325.574029 325.949152
21.030000 325.121347 325.320015 325.527656 325.542766 325.734890 326.162099
21.050000 325.286144 325.472658 325.676746 325.701415 325.900214 326.297272
21.070000 325.428745 325.626414 325.835966 325.862219 326.063553 326.505475
21.090000 325.586748 325.791623 325.987412 326.023399 326.228463 326.744780
21.110000 325.768061 325.953599 326.150800 326.191009 326.404288 327.029165
21.130000 325.914028 326.105520 326.311735 326.356656 326.566452 327.273652
21.150000 326.070926 326.267108 326.469873 326.528941 326.757405 327.505651
21.170000 326.254233 326.424185 326.640062 326.700699 326.955379 327.674058
21.190000 326.417765 326.578373 326.805097 326.870359 327.131645 327.871563
21.210000 326.581607 326.738019 326.973625 327.047112 327.324368 328.062470
21.230000 326.727027 326.905637 327.152600 327.222486 327.532401 328.270855
21.250000 326.867387 327.069982 327.319516 327.405788 327.752108 328.481080
21.270000 327.036749 327.233027 327.506097 327.590437 327.947871 328.670016
21.310000 327.340500 327.544784 327.839383 327.937536 328.350812 329.005477
21.330000 327.487873 327.698176 328.017122 328.118679 328.581049 329.218116
21.350000 327.648627 327.874209 328.196731 328.301677 328.788907 329.385334
21.370000 327.805160 328.043817 328.400287 328.487884 328.973286 329.567054
21.390000 327.964305 328.234381 328.591455 328.685842 329.192310 329.768496
21.410000 328.137254 328.410732 328.801058 328.878908 329.397236 329.977131
21.430000 328.295464 328.588778 329.006323 329.083701 329.624198 330.177612
21.450000 328.480233 328.756143 329.226077 329.301340 329.864043 330.507116
21.470000 328.695569 328.957905 329.461942 329.539969 330.116507 330.881969
21.593333 329.652355 330.450009 331.972547 332.739761 335.644737 337.607494
21.716667 331.168471 333.289746 336.775206 336.092257 338.176549 338.988202
21.840000 337.962198 338.600132 339.232042 339.181472 339.697693 340.118869
21.860000 338.450377 338.983545 339.532023 339.483215 339.927060 340.327547
21.880000 338.818766 339.313380 339.783360 339.744134 340.141858 340.574155
21.900000 339.114024 339.586199 340.004989 339.979419 340.345609 340.769537
21.920000 339.369584 339.846120 340.215164 340.199172 340.524441 340.951216
21.940000 339.639413 340.077630 340.416658 340.406785 340.725602 341.152380
21.960000 339.895539 340.281148 340.615356 340.610398 340.916096 341.355862
21.980000 340.186283 340.502099 340.814461 340.814374 341.103518 341.569960
22.000000 340.400155 340.708302 341.005074 341.007323 341.288897 341.774917
22.020000 340.614045 340.910040 341.189575 341.199245 341.479131 341.970619
22.040000 340.805950 341.102764 341.364744 341.387936 341.650632 342.179597
22.060000 341.007495 341.283371 341.552487 341.568211 341.832455 342.368287
22.080000 341.197440 341.476588 341.743184 341.758118 342.013306 342.574211
22.100000 341.393434 341.668442 341.926031 341.951161 342.199328 342.756373
22.120000 341.615572 341.862097 342.123648 342.150651 342.416982 342.924077
22.140000 341.809032 342.057487 342.325520 342.352526 342.642326 343.072258
22.160000 341.991826 342.276360 342.521215 342.560538 342.856146 343.277695
22.180000 342.175819 342.464474 342.742594 342.784006 343.113333 343.546799
22.200000 342.388234 342.668512 342.967873 343.005083 343.351917 343.823595
22.220000 342.570120 342.861537 343.204744 343.228320 343.579344 344.079257
22.240000 342.755488 343.058676 343.418880 343.453770 343.820006 344.356030
22.280000 343.130399 343.445128 343.847592 343.868038 344.266666 344.854347
22.300000 343.326117 343.625578 344.077892 344.089434 344.513788 345.112477
22.320000 343.513726 343.833055 344.320748 344.327080 344.774439 345.380817
22.340000 343.754019 344.073864 344.551187 344.580213 345.045064 345.668909
22.360000 343.974442 344.308704 344.811945 344.843558 345.334637 346.071153
22.380000 344.168486 344.575223 345.069233 345.108352 345.617754 346.326606
22.400000 344.400415 344.831641 345.324242 345.382566 345.925890 346.656383
22.440000 344.801295 345.341385 345.890113 345.924457 346.538475 347.225665
22.460000 345.026871 345.555011 346.152157 346.189914 346.854140 347.493945
22.480000 345.248036 345.827213 346.445818 346.471859 347.144202 347.772220
22.520000 345.777295 346.328185 346.987717 347.000032 347.677223 348.277388
22.540000 346.067680 346.566924 347.252575 347.265550 347.943710 348.570166
22.560000 346.298951 346.822133 347.536241 347.540984 348.222176 348.944753
22.580000 346.544644 347.097488 347.803856 347.808243 348.501591 349.162148
22.600000 346.801763 347.349381 348.045043 348.063634 348.737671 349.420229
22.640000 347.395462 347.969861 348.573193 348.601084 349.224074 349.909269
22.660000 347.659781 348.247715 348.848232 348.868353 349.489975 350.187296
22.680000 347.935274 348.487069 349.092805 349.123506 349.750166 350.498608
22.700000 348.237476 348.770181 349.371528 349.393878 350.030105 350.793439
22.720000 348.502015 349.052615 349.597586 349.654471 350.312965 351.087913
22.740000 348.778798 349.335105 349.866842 349.913211 350.511148 351.340753
22.760000 349.038665 349.601930 350.126851 350.173995 350.748917 351.566804
22.780000 349.402020 349.870880 350.379023 350.435123 351.016456 351.830438
22.800000 349.702458 350.155275 350.631540 350.703775 351.287939 352.057249
22.820000 349.993224 350.413213 350.905156 350.969143 351.543298 352.383838
22.840000 350.219397 350.672962 351.164526 351.227420 351.795851 352.629150
22.860000 350.512096 350.930383 351.443063 351.493223 352.055640 352.873038
22.880000 350.754933 351.207704 351.709402 351.766636 352.331331 353.114898
22.900000 351.005583 351.459840 351.972240 352.033862 352.585457 353.329625
22.920000 351.233786 351.723834 352.267070 352.318517 352.908159 353.689707
22.940000 351.458230 352.005189 352.562866 352.609410 353.184752 354.032208
22.960000 351.672178 352.285093 352.819385 352.880722 353.483401 354.381218
22.980000 351.941638 352.538582 353.097428 353.158207 353.740356 354.721914
23.000000 352.176322 352.813270 353.387190 353.438884 354.031890 355.061267
23.020000 352.442312 353.104786 353.678950 353.729456 354.377281 355.325158
23.040000 352.718630 353.371968 353.942477 354.034971 354.773517 355.642144
23.060000 353.007256 353.670982 354.228427 354.340992 355.154327 355.988791
23.080000 353.276262 353.980652 354.527701 354.648492 355.468346 356.259605
23.100000 353.533209 354.262088 354.832797 354.959250 355.795236 356.629967
23.120000 353.732616 354.499302 355.162417 355.255970 356.086187 356.959617
23.140000 354.012112 354.765766 355.473819 355.557139 356.374633 357.203190
23.180000 354.704005 355.288420 356.132415 356.146232 356.952415 357.792330
23.200000 355.029877 355.589026 356.463887 356.440376 357.237977 358.066911
23.220000 355.269580 355.875270 356.803398 356.732297 357.519408 358.313565
23.240000 355.579847 356.142870 357.080155 357.017229 357.796561 358.565506
23.260000 355.844162 356.442537 357.353828 357.307728 358.056432 358.784918
23.280000 356.078195 356.767105 357.656000 357.604170 358.369240 359.074152
23.300000 356.363145 357.061988 357.963742 357.904243 358.654674 359.459479
23.320000 356.622812 357.325518 358.283077 358.198055 358.963673 359.693849
23.340000 356.885420 357.604493 358.555137 358.492124 359.302342 359.974491
23.360000 357.230956 357.934107 358.854034 358.798634 359.576331 360.304532
23.380000 357.549543 358.242467 359.152658 359.118781 359.895291 360.654721
23.400000 357.826324 358.586316 359.488877 359.449074 360.235803 361.042062
23.420000 358.170535 358.886909 359.830053 359.796289 360.599673 361.427307
23.440000 358.456012 359.294479 360.200339 360.169831 361.014101 361.890927
23.460000 358.778498 359.628191 360.596572 360.556603 361.403938 362.301380
23.480000 359.135400 360.043589 360.980097 360.962210 361.796475 362.843434
23.500000 359.385048 360.489492 361.396525 361.383340 362.231420 363.420956
23.520000 359.766629 360.898215 361.837831 361.825576 362.704701 364.031815
23.540000 360.120929 361.260046 362.258407 362.243055 363.127482 364.559997
23.560000 360.671573 361.713067 362.677111 362.683559 363.586442 365.004546
23.620000 361.888998 362.964016 363.993927 364.044356 365.071540 366.562820
23.640000 362.261698 363.453287 364.499156 364.517957 365.592741 366.949911
23.660000 362.653451 363.862289 364.956623 364.968470 366.083392 367.437648
23.680000 363.065296 364.268752 365.389062 365.425853 366.574101 367.807094
23.700000 363.436442 364.713414 365.828071 365.877950 367.066720 368.236434
23.720000 363.889540 365.140748 366.306978 366.325584 367.518478 368.612168
23.740000 364.394155 365.599682 366.760436 366.769316 367.924433 368.935572
23.760000 364.867392 366.139650 367.241475 367.229840 368.365548 369.318684
23.780000 365.315926 366.611718 367.696615 367.682322 368.784289 369.687091
23.820000 366.685697 367.619215 368.642265 368.604856 369.569690 370.297927
23.840000 367.176734 368.142890 369.135524 369.079661 369.977277 370.637322
23.860000 367.803012 368.724032 369.611724 369.562737 370.383309 371.143289
23.880000 368.255398 369.236910 370.093616 370.025775 370.805531 371.502560
23.900000 368.867889 369.752268 370.559532 370.509308 371.262422 372.002765
23.920000 369.455146 370.249438 371.028163 371.000939 371.700466 372.414068
23.940000 370.041563 370.781257 371.517685 371.492876 372.159511 372.997942
23.960000 370.586508 371.318472 371.977401 371.985496 372.654805 373.595350
23.980000 371.093447 371.831677 372.418014 372.487254 373.160114 374.125014
24.000000 371.580670 372.295586 372.869267 372.948022 373.625891 374.775756
24.020000 371.978786 372.696768 373.299422 373.392050 374.106625 375.331656
24.040000 372.317968 373.036700 373.718968 373.829228 374.603382 375.891470
24.060000 372.789260 373.440738 374.116252 374.264756 375.083450 376.416584
24.080000 373.238208 373.841846 374.541338 374.715129 375.605488 377.093678
24.100000 373.584982 374.229167 374.985690 375.177856 376.129361 377.875451
24.120000 373.939544 374.566524 375.406525 375.617476 376.734783 378.353535
24.140000 374.302074 374.933273 375.850353 376.074071 377.282213 378.814162
24.160000 374.643759 375.320605 376.339842 376.529548 377.878136 379.353033
24.180000 374.992505 375.674995 376.758445 376.970729 378.358399 379.833452
24.220000 375.602918 376.410692 377.729989 377.859811 379.442541 380.611500
24.240000 375.948911 376.752382 378.156362 378.269172 379.900420 380.990311
24.260000 376.297645 377.083306 378.585534 378.666312 380.286773 381.486998
24.280000 376.670474 377.507721 378.960593 379.062558 380.698726 381.885389
24.300000 377.094642 377.908436 379.350185 379.450839 381.119379 382.355076
24.320000 377.375214 378.273133 379.700575 379.820882 381.550413 382.747288
24.340000 377.676875 378.667425 380.014145 380.196285 381.904803 383.064941
24.360000 377.994962 379.020504 380.411255 380.557111 382.254024 383.439317
24.380000 378.332333 379.402095 380.735888 380.915368 382.610842 383.956922
24.400000 378.699923 379.708337 381.052399 381.269221 382.978830 384.248123
24.420000 378.978916 380.101027 381.411543 381.616850 383.344350 384.523377
24.440000 379.328510 380.398269 381.719307 381.967564 383.708485 384.768507
24.460000 379.674587 380.792465 382.072059 382.311745 384.049724 385.043390
24.480000 379.986296 381.127872 382.375823 382.653100 384.479625 385.369970
24.500000 380.355821 381.451054 382.689760 382.984627 384.816469 385.693862
24.520000 380.673553 381.857978 382.995703 383.312796 385.182865 385.982181
24.540000 380.992709 382.226868 383.348923 383.653712 385.460217 386.215374
24.560000 381.308790 382.564486 383.712804 383.987813 385.741492 386.485906
24.580000 381.640790 382.979826 384.145802 384.332007 386.037068 386.732094
24.600000 382.012380 383.327167 384.496059 384.674109 386.324820 386.979160
24.620000 382.499297 383.683005 384.890836 385.018602 386.578715 387.222390
24.640000 382.842192 384.080581 385.237488 385.349757 386.837227 387.446389
24.660000 383.309647 384.461855 385.596274 385.674120 387.083121 387.613297
24.680000 383.721196 384.814061 385.923001 385.983690 387.344183 387.853574
24.700000 384.118825 385.168277 386.252842 386.293940 387.558420 388.105865
24.740000 384.876266 385.881781 386.921927 386.917900 388.023175 388.554474
24.760000 385.285602 386.258619 387.293689 387.255442 388.310422 388.830047
24.780000 385.679601 386.625158 387.644346 387.583336 388.580384 389.060275
24.800000 386.007195 386.982932 387.978819 387.912235 388.852626 389.338727
24.820000 386.553467 387.444082 388.356225 388.281032 389.121893 389.692763
24.840000 387.030662 387.868951 388.750272 388.674146 389.462188 389.994080
24.860000 387.565012 388.315812 389.108932 389.074585 389.784729 390.351103
24.880000 388.157977 388.877426 389.583151 389.531884 390.177377 390.782060
24.900000 388.617163 389.247573 389.933760 389.904210 390.543718 391.110883
24.920000 389.050115 389.724206 390.308075 390.315221 390.921924 391.494246
24.940000 389.461611 390.126244 390.709271 390.695912 391.265041 391.843105
24.960000 389.899005 390.504250 391.040319 391.044025 391.600951 392.152153
24.980000 390.283518 390.832513 391.358986 391.385618 391.981411 392.515177
25.000000 390.658861 391.167677 391.688212 391.708942 392.298968 392.779218
25.020000 390.970504 391.465158 391.989574 392.020051 392.600941 393.160374
25.040000 391.270565 391.759822 392.308275 392.321183 392.917128 393.404737
25.060000 391.640853 392.069223 392.611947 392.633900 393.207061 393.767079
25.080000 391.905821 392.376159 392.926143 392.938142 393.500574 394.101486
25.100000 392.195332 392.670699 393.250271 393.255289 393.818325 394.441379
25.120000 392.495556 392.965085 393.563531 393.582274 394.148405 394.852908
25.140000 392.766857 393.289675 393.882349 393.901030 394.485571 395.154299
