depth(m) lower_95(kyr) lower_68(kyr) median(kyr) mean(kyr) upper_68(kyr) upper_95(kyr)
22.680000 691.163200 697.545819 701.098177 701.617749 706.795002 709.930991
22.770000 695.646098 702.503474 706.084489 705.816634 709.886652 712.151056
22.875000 703.154465 707.660037 711.054725 710.607458 713.365793 715.733636
22.980000 712.300544 713.995958 715.183607 715.379150 716.769545 719.181548
22.984000 712.421219 714.202977 715.380679 715.567972 716.957614 719.265327
23.030000 715.446181 716.588807 717.885516 718.043681 719.436213 721.105624
23.110000 717.885952 719.383895 721.020981 721.300850 723.141263 726.522674
23.190000 720.739198 722.066076 723.752788 724.201209 726.440098 730.204790
23.330000 724.900125 726.351929 728.764853 729.242217 732.141054 736.407049
23.460000 727.969685 730.317554 733.265757 733.608847 737.181960 740.030879
23.535000 730.163708 733.131741 736.114308 736.347032 739.919763 742.169784
23.610000 732.788527 736.007371 739.085450 739.068733 742.475490 744.427357
23.735000 737.450949 740.702606 743.231462 743.134830 745.716374 747.958595
23.860000 743.654266 745.150365 747.005748 747.135052 749.237731 751.502303
23.940000 745.888844 747.362623 749.312324 749.476625 751.567448 753.700604
24.020000 748.193627 749.727939 751.784398 751.888651 754.073816 755.998722
24.165000 751.622331 753.434393 755.806664 755.947475 758.392680 760.995617
24.310000 755.499461 757.566046 759.849490 760.101280 762.694050 765.570552
24.420000 758.525161 760.657823 763.292977 763.419394 766.043260 769.095718
24.530000 761.923496 764.305380 767.169517 767.146458 769.830140 772.799710
24.610000 764.574686 767.586388 770.729149 770.753935 773.658696 778.721979
24.690000 768.319079 771.504541 774.751501 774.904707 778.246317 782.334584
24.830000 777.037002 780.671908 783.919258 783.424094 786.116852 787.381243
24.960000 786.729779 788.459550 789.691033 789.567742 790.704377 791.798758
25.020000 789.328965 790.465453 791.341431 791.416384 792.346066 794.084780
25.110000 792.813539 793.564759 795.189522 795.659070 797.871831 800.525283
25.220000 795.781292 797.487311 800.197882 800.190043 802.667202 804.927560
25.330000 799.087739 801.163819 803.960712 803.870181 806.295358 808.245509
25.420000 801.706598 804.125917 806.580586 806.562074 809.089713 811.001075
25.440000 802.595402 804.879528 807.417855 807.404173 809.849310 811.907526
25.520000 808.541836 810.737102 812.670762 812.938280 815.245985 817.515362
25.570000 810.806606 812.867945 814.871433 815.136009 817.208353 820.512379
25.670000 814.358270 816.367372 819.183165 819.297873 822.140433 824.909193
25.750000 816.422075 818.429039 821.998364 822.399948 825.909322 831.213066
25.890000 820.594829 822.439960 826.158782 826.851259 832.011623 835.604089
26.030000 825.405769 826.913075 830.379664 831.381978 836.843290 839.396376
26.110000 827.639808 829.673750 834.022047 834.400487 839.525259 841.644550
26.190000 830.100192 833.207629 838.170607 837.671804 841.770255 843.726676
26.330000 834.608105 840.242118 843.775660 843.014561 845.771227 847.329440
26.460000 840.916984 846.498141 848.210509 847.913212 849.396079 851.253626
26.535000 845.310661 849.001693 850.423718 850.387252 851.842226 855.332851
26.610000 848.874466 851.465636 852.671165 852.853498 854.347544 858.385503
26.700000 852.854298 854.516584 856.531753 856.671756 858.935880 861.756649
26.790000 856.806698 859.092336 861.277737 860.997928 862.757882 864.208599
26.865000 860.187278 863.199273 865.012422 864.973484 866.715185 869.335106
26.940000 865.888491 867.090477 868.530704 868.714738 870.130327 872.734506
27.055000 868.669850 870.316343 872.883891 873.059652 875.638176 879.611777
27.170000 871.350449 873.351786 876.893431 877.000918 880.447652 884.003903
27.270000 873.332702 875.979847 880.117757 880.119386 884.216660 886.842419
27.370000 876.221802 878.941630 883.283370 883.223595 887.361084 889.425737
27.470000 878.926831 882.190848 886.488511 886.236913 890.073010 892.004450
27.560000 881.959527 885.980671 889.676010 889.253636 892.640968 894.308662
27.650000 886.096349 889.592836 892.943003 892.411163 894.987033 896.461442
27.660000 886.538083 890.038508 893.369116 892.791035 895.289336 896.781121
27.730000 889.790852 893.728565 896.033923 895.721040 897.694958 899.652390
27.830000 895.828140 898.185871 899.959959 900.259487 902.528164 906.050998
27.860000 897.478630 899.339446 901.332171 901.675071 904.095064 907.180239
27.990000 900.738739 903.587844 906.699868 906.364128 909.153649 910.751325
28.040000 902.347132 905.514981 908.470604 908.153101 910.823876 912.325460
28.150000 906.541433 909.774731 911.955302 911.701578 913.750966 914.900408
28.190000 908.453826 911.576133 913.428169 913.153241 914.923085 915.931704
28.250000 911.010665 913.789947 915.677901 915.311531 916.828890 917.762888
28.260000 911.432374 914.242567 916.123927 915.754602 917.233139 918.198079
28.390000 918.007112 919.521236 921.101212 921.268272 923.189146 925.282009
28.480000 920.760221 922.726822 925.141690 925.125069 927.440231 929.982411
28.570000 924.418132 926.458259 928.638709 928.603352 930.721455 932.887258
28.700000 928.210518 930.398740 932.391854 932.310879 934.176392 936.098995
28.780000 931.006774 933.088927 934.877829 934.935712 936.824755 938.853287
28.860000 934.312576 935.780298 937.485551 937.592406 939.416126 941.509717
28.870000 934.667097 936.153987 937.794464 937.953912 939.788818 941.835052
28.940000 936.674820 938.197361 939.973495 940.083744 942.024202 943.917621
29.040000 939.754190 941.513563 943.662886 943.574590 945.381798 947.859885
29.060000 940.405101 942.392031 944.482446 944.427564 946.224015 948.687547
29.190000 945.499893 947.626250 949.648097 949.766233 952.115303 954.352989
29.260000 947.971021 949.972663 952.513499 952.388359 954.762816 956.065726
29.350000 951.007315 953.391800 955.935128 955.506452 957.446071 958.308891
29.435000 954.194355 957.003969 959.149977 959.274753 961.721549 964.732330
29.520000 959.615358 960.700351 962.671656 963.155328 965.965060 968.033696
29.600000 961.831372 963.654191 966.079385 966.214174 968.769569 970.971746
29.680000 964.785226 966.959388 968.965408 969.029919 971.163201 973.169144
29.810000 969.194546 970.971189 972.981879 973.040506 975.149021 976.780502
29.885000 971.182879 973.245288 975.453411 975.333748 977.457877 978.867203
29.960000 973.219617 975.641042 977.760617 977.569524 979.388029 980.916872
30.035000 975.377553 977.701815 979.997669 979.840953 981.722464 984.194829
30.110000 977.177688 979.731098 982.046024 982.010964 984.142732 986.971436
30.185000 979.071038 981.700578 983.897006 984.040518 986.591942 989.208412
30.260000 981.047152 983.442587 985.722286 985.991608 988.907612 990.970453
30.400000 984.029004 986.811804 989.331027 989.389428 992.156038 994.159785
30.420000 984.736026 987.375337 989.914422 989.954746 992.658046 994.632511
30.540000 989.753406 991.796126 993.860299 993.797729 995.778050 997.438753
30.615000 991.837997 993.932762 995.882096 995.778081 997.631258 999.051379
30.690000 993.891202 996.063792 997.727362 997.668466 999.418211 1000.628853
30.793333 996.696580 998.634719 1000.151040 1000.181268 1001.820355 1003.520435
30.896667 999.538745 1001.229444 1002.502230 1002.649445 1004.213953 1006.365227
31.000000 1002.600007 1003.687976 1004.908808 1005.145072 1006.656881 1008.773794
31.080000 1004.318262 1005.585001 1007.053053 1007.181257 1008.873920 1010.628042
31.160000 1006.198779 1007.507601 1009.068893 1009.175250 1010.931967 1012.749056
31.290000 1008.827675 1010.469413 1012.145582 1012.161077 1013.872069 1015.886950
31.375000 1011.155279 1012.596659 1014.215924 1014.263637 1015.885612 1017.951623
31.460000 1013.247384 1014.833883 1016.304795 1016.390749 1017.877412 1020.212841
31.590000 1016.207175 1018.089700 1019.535177 1019.528274 1020.943535 1022.939013
31.665000 1017.993913 1020.092697 1021.536977 1021.501659 1022.962648 1024.685181
31.740000 1020.517479 1022.286799 1023.627318 1023.565912 1024.977300 1026.479614
31.830000 1022.510820 1024.377673 1025.839720 1025.793293 1027.252478 1028.600811
31.920000 1024.931496 1026.626002 1028.179331 1028.079520 1029.512931 1030.736426
31.940000 1025.500872 1027.287706 1028.794940 1028.690438 1030.146121 1031.348833
32.040000 1028.682823 1030.343675 1031.876350 1032.150621 1033.817459 1037.139441
32.160000 1031.541691 1033.089127 1035.168872 1036.328730 1039.763510 1048.325407
32.276500 1034.482429 1036.283709 1039.528630 1040.781127 1045.839116 1051.771033
32.393000 1037.359640 1040.073922 1045.251851 1045.610819 1051.317406 1054.820614
32.500000 1041.006973 1045.789192 1050.677990 1050.375806 1055.032860 1057.037168
32.640000 1051.140075 1054.882393 1057.898262 1057.279447 1059.361194 1060.663601
32.740000 1056.684454 1058.829108 1060.496639 1060.331317 1061.869777 1063.069744
32.810000 1059.516055 1061.068084 1062.467564 1062.398715 1063.718721 1064.896868
32.940000 1063.246311 1064.675013 1066.088171 1066.117001 1067.562865 1069.326641
33.070000 1065.733452 1067.671241 1069.193041 1069.240477 1070.826175 1072.632146
33.145000 1067.526352 1069.529228 1071.040725 1071.066728 1072.615159 1074.266723
33.220000 1069.431509 1071.444124 1072.962075 1072.979516 1074.542206 1076.256964
33.340000 1072.818207 1074.694663 1076.096266 1076.269645 1077.882135 1080.737477
33.420000 1075.817509 1077.038167 1078.600318 1079.010011 1081.073581 1084.175779
33.460000 1076.780027 1078.160099 1079.860302 1080.287016 1082.535952 1085.754358
33.590000 1079.896424 1081.262644 1083.771844 1084.143100 1087.009901 1090.170833
33.710000 1082.839185 1084.795712 1088.704541 1088.822350 1092.637643 1095.777600
33.815000 1084.998167 1087.846867 1094.443524 1093.997258 1099.088332 1105.018699
33.920000 1087.493126 1090.624675 1101.795873 1099.406342 1104.047277 1111.805128
33.980000 1088.938068 1092.086831 1104.852849 1102.568546 1107.814649 1113.278138
34.070000 1091.647037 1094.433614 1111.239901 1108.069971 1113.621157 1116.225630
34.120000 1093.226138 1096.419865 1114.095337 1110.920828 1116.691330 1119.108325
34.250000 1097.695469 1121.930683 1124.452511 1122.026159 1127.485305 1132.293414
34.360000 1104.236323 1128.790406 1134.792009 1131.734509 1139.004405 1142.382517
34.470000 1111.357222 1133.051024 1138.738996 1136.332499 1142.840258 1146.453886
34.560000 1115.684194 1136.417404 1141.490800 1139.453357 1145.569280 1148.767045
34.645000 1122.636486 1138.620615 1143.742349 1142.642911 1148.232739 1151.354248
34.730000 1133.506649 1141.264133 1145.893523 1145.631889 1150.657483 1154.031135
34.810000 1137.904845 1144.057629 1147.898065 1148.088716 1152.822272 1156.026066
34.890000 1141.520531 1146.170986 1150.254675 1150.499600 1155.136021 1158.258466
34.965000 1144.060567 1148.470461 1152.459712 1152.732867 1157.426946 1160.145446
35.040000 1146.368376 1150.416036 1154.568407 1154.823442 1159.522734 1162.092718
35.140000 1149.626758 1152.962531 1156.827714 1157.298772 1161.996933 1164.524479
35.270000 1153.264919 1156.190309 1160.896040 1160.729984 1165.064127 1167.911846
35.380000 1156.634713 1158.800127 1164.464044 1163.717381 1167.912948 1170.831412
35.490000 1159.314527 1161.403124 1167.855132 1166.717594 1171.003766 1174.283968
35.620000 1162.192583 1164.368439 1171.559617 1170.327028 1174.903419 1178.463538
35.740000 1164.977803 1167.185613 1175.100411 1173.604676 1178.536561 1181.625944
35.860000 1167.624401 1170.183066 1178.651865 1177.222532 1182.328270 1185.024066
35.970000 1170.745739 1176.467579 1182.319084 1181.356429 1185.937239 1187.614843
36.110000 1177.564881 1183.522009 1187.576757 1186.840098 1190.052408 1191.163780
36.195000 1183.999019 1187.558952 1189.823420 1189.629871 1191.912721 1193.317064
36.280000 1189.442297 1190.971248 1192.071371 1192.260390 1193.702248 1195.633731
36.380000 1192.127405 1193.308085 1194.647122 1194.839382 1196.194425 1199.122290
36.455000 1194.138611 1195.531287 1196.954403 1197.356522 1199.165979 1203.035117
36.530000 1196.529578 1197.935599 1199.802908 1200.188564 1202.724471 1205.762003
36.610000 1198.857967 1200.853555 1204.008276 1203.900197 1206.752231 1209.039094
36.750000 1209.410633 1211.104065 1212.879315 1213.149678 1215.001746 1219.568284
36.810000 1212.134635 1213.511885 1215.243212 1215.613832 1217.699776 1221.840466
36.940000 1216.001859 1217.665545 1219.687975 1219.949477 1222.110715 1225.127018
37.025000 1218.805805 1220.898808 1223.510794 1223.520818 1226.032914 1228.546053
37.110000 1222.898378 1225.112213 1227.195443 1227.243845 1229.303059 1231.993648
37.240000 1228.346099 1230.245192 1232.383351 1232.503723 1234.761688 1237.758645
37.340000 1231.421315 1233.715426 1236.374495 1236.206642 1238.570201 1240.527275
37.470000 1236.516172 1239.743048 1241.730574 1241.261991 1242.682559 1243.685976
37.540000 1243.990544 1244.803706 1245.676259 1245.884089 1246.831549 1249.411462
37.610000 1246.786502 1248.086581 1249.625132 1249.894520 1251.840929 1254.269619
37.730000 1252.978843 1254.359636 1257.048980 1257.160004 1260.012336 1262.021377
37.740000 1253.439092 1254.957187 1257.683285 1257.726357 1260.593711 1262.403371
37.815000 1256.779759 1259.274132 1261.830741 1261.551947 1263.734039 1265.574167
37.890000 1260.617727 1263.387851 1265.030932 1264.946020 1266.563770 1268.219841
37.930000 1262.473319 1264.685022 1266.317749 1266.279895 1267.942111 1269.727748
38.030000 1265.059056 1267.087318 1268.996534 1268.965521 1270.785675 1272.314960
38.130000 1267.831462 1269.841946 1271.476845 1271.578093 1273.254021 1274.966749
38.210000 1270.687756 1272.266146 1273.794756 1273.944557 1275.485552 1277.137643
38.350000 1274.038147 1275.776681 1277.423466 1277.456294 1278.945126 1280.460850
38.470000 1277.215104 1279.177143 1280.580902 1280.556593 1281.760116 1283.048260
38.580000 1280.809570 1282.498028 1283.601370 1283.648678 1284.723176 1285.903638
38.610000 1281.641272 1283.369965 1284.416520 1284.526044 1285.604255 1286.784548
38.695000 1284.437801 1285.672482 1286.779455 1286.931011 1288.006161 1289.443540
38.780000 1286.912032 1288.098675 1289.139967 1289.296397 1290.276892 1291.747592
38.860000 1288.952595 1290.088133 1291.209201 1291.358917 1292.342862 1293.865837
38.990000 1292.221298 1293.294710 1294.373780 1294.749396 1295.415334 1297.477480
39.100000 1294.689556 1295.630649 1296.757477 1297.374677 1298.052169 1300.374838
39.190000 1296.758033 1297.744765 1298.817562 1299.537310 1300.060854 1302.507721
39.270000 1298.480427 1299.720760 1300.844582 1301.633427 1302.081040 1307.246694
39.350000 1300.555213 1301.816124 1302.813278 1303.769026 1304.119898 1312.784388
39.470000 1303.247180 1304.310761 1305.448748 1306.708271 1307.153451 1320.427436
39.596667 1305.515354 1306.813627 1308.249045 1310.092578 1310.213790 1338.004785
39.723333 1308.215769 1309.533154 1311.019881 1313.623549 1313.131550 1348.053485
39.850000 1311.039722 1312.241266 1313.777824 1317.074040 1316.058484 1354.512674
39.970000 1313.555962 1314.935309 1316.600544 1320.033021 1319.173025 1358.034908
40.080000 1316.057993 1317.841063 1319.693832 1323.174045 1322.473463 1361.523448
40.210000 1319.209255 1321.039280 1323.336843 1326.676852 1326.106216 1364.983871
40.285000 1321.612413 1323.688847 1326.159129 1329.452049 1329.536490 1367.164554
40.360000 1323.824483 1326.170810 1328.970206 1332.151391 1332.326396 1369.455348
40.490000 1327.268016 1329.802512 1332.818946 1335.814538 1336.062988 1372.300836
40.590000 1330.126534 1332.967896 1335.938187 1338.818034 1338.952125 1374.814581
40.690000 1334.194222 1336.644534 1339.250469 1342.073040 1341.641028 1377.554493
40.770000 1337.117955 1339.995872 1342.198227 1345.132707 1344.446636 1380.123049
40.850000 1340.988961 1343.318657 1345.192924 1348.315821 1347.326097 1385.125423
40.970000 1343.783174 1346.550081 1348.872773 1352.728632 1356.186442 1388.134723
41.060000 1345.709428 1348.435946 1351.019865 1357.032052 1367.532798 1389.840627
41.145000 1347.926239 1350.649115 1353.103245 1361.324701 1382.809949 1393.159946
41.230000 1349.971271 1352.977351 1355.241352 1365.570880 1391.825416 1396.381205
41.350000 1353.731307 1356.059930 1358.087942 1369.463840 1396.584113 1400.654933
41.470000 1358.000605 1359.660452 1362.118980 1373.815506 1401.583804 1404.752944
41.580000 1362.673670 1365.278455 1369.150367 1380.447815 1406.308061 1409.260296
41.710000 1367.499291 1370.480888 1376.877162 1387.990965 1411.007153 1415.180300
41.785000 1370.448937 1373.185294 1391.269156 1392.449093 1413.477563 1420.490616
41.860000 1373.685756 1376.396365 1406.687346 1397.139961 1416.362651 1426.095260
41.990000 1383.386735 1388.596970 1425.577313 1412.528937 1435.351171 1439.063587
42.090000 1389.042386 1392.645197 1432.483397 1416.687088 1439.063246 1444.876303
42.190000 1392.395203 1395.464558 1435.717976 1420.298041 1443.028020 1448.645273
42.270000 1394.554373 1397.788059 1438.296095 1423.772958 1446.737716 1452.130877
42.350000 1397.373439 1400.651104 1440.930980 1427.502918 1450.328525 1454.690527
42.476667 1401.874024 1408.084655 1447.172427 1436.581085 1459.228081 1468.867393
42.603333 1409.694235 1420.580641 1456.080783 1446.495023 1468.331387 1475.217734
42.730000 1423.917355 1430.474296 1469.705535 1455.649272 1475.229489 1479.649843
42.850000 1431.063969 1434.929999 1473.886131 1460.660745 1480.053742 1483.385840
42.970000 1434.913362 1439.181824 1478.106575 1464.779109 1483.861156 1486.466656
43.080000 1438.792945 1443.110596 1481.691257 1468.323851 1486.977692 1489.066124
43.210000 1443.971993 1448.930183 1486.826885 1472.774733 1490.600777 1492.376471
43.285000 1448.560778 1451.682420 1490.762116 1476.202280 1493.949169 1496.518891
43.360000 1452.926973 1454.267651 1494.174409 1479.411034 1497.107805 1499.371290
43.490000 1455.574380 1457.618853 1497.456308 1482.778948 1500.464328 1502.851094
43.590000 1457.618400 1459.815999 1500.072443 1485.247057 1503.043597 1505.825266
43.690000 1459.816631 1462.020913 1502.570275 1487.549710 1505.371853 1507.844329
43.770000 1461.827579 1463.840714 1504.631824 1489.631029 1507.604911 1510.099619
43.850000 1464.017333 1465.981346 1506.769234 1491.832382 1509.727816 1512.219493
43.976667 1467.257918 1469.931615 1509.878415 1495.575287 1513.223399 1515.751159
44.103333 1470.486013 1473.987767 1513.195791 1499.351454 1516.440635 1518.870046
44.230000 1474.577759 1478.532178 1516.569607 1503.291343 1519.789331 1521.829169
44.360000 1478.941017 1484.689381 1519.785636 1507.283135 1522.663799 1524.976956
44.470000 1483.448244 1488.889204 1522.603358 1511.460860 1525.630204 1527.747504
44.580000 1488.893903 1492.302090 1525.679296 1515.810150 1528.304000 1530.353344
44.710000 1492.558457 1494.961103 1529.655674 1520.803546 1531.898603 1533.469814
44.730000 1493.771759 1495.646242 1530.732694 1521.734964 1532.877687 1534.271894
44.860000 1497.392396 1500.364724 1536.819422 1527.595589 1539.308597 1541.190910
44.990000 1501.280856 1505.387620 1542.601064 1533.059818 1544.973032 1547.525008
45.090000 1504.318998 1508.032396 1545.385970 1536.267060 1548.433332 1551.531061
45.190000 1507.698932 1510.769456 1548.112277 1539.423377 1552.041587 1556.097660
45.270000 1509.894964 1513.131442 1550.593852 1542.211595 1555.078520 1559.847966
45.350000 1511.958304 1516.281944 1553.368779 1545.127098 1557.925002 1563.903445
45.400000 1513.888233 1518.449588 1555.277256 1547.062007 1559.869184 1565.747769
45.530000 1518.319488 1525.180948 1561.918412 1553.275093 1566.647685 1570.215020
45.640000 1526.471093 1537.721804 1569.373690 1561.697107 1574.498763 1576.653505
45.750000 1530.279073 1542.169292 1572.846982 1565.826152 1578.213757 1580.398194
45.820000 1533.068635 1544.051081 1575.977143 1568.243001 1580.081121 1581.994628
45.910000 1540.492355 1546.335944 1579.270287 1571.227981 1582.329601 1584.210381
46.020000 1545.611191 1549.738920 1583.122322 1575.078441 1585.472643 1587.279064
46.140000 1549.048652 1553.980241 1587.214153 1579.284894 1589.503029 1591.106847
46.200000 1551.042632 1556.375017 1588.942843 1581.217903 1591.360786 1593.082064
