depth(m) lower_95(kyr) lower_68(kyr) median(kyr) mean(kyr) upper_68(kyr) upper_95(kyr)
40.380000 1191.419481 1192.283915 1193.844690 1194.445041 1197.172443 1201.615549
40.430000 1192.801425 1193.771555 1195.413877 1196.032058 1199.225966 1202.753318
40.480000 1193.919299 1195.143573 1197.083378 1197.702259 1201.188299 1203.789373
40.530000 1194.758704 1196.737940 1199.425733 1199.465789 1202.652041 1205.052456
40.580000 1195.828947 1198.268175 1201.544235 1201.199413 1204.202758 1206.417938
40.630000 1196.994405 1200.142711 1203.176211 1202.744588 1205.542761 1207.599544
40.730000 1199.948293 1203.155963 1205.768619 1205.493500 1207.989084 1210.266794
40.780000 1201.581064 1204.614847 1206.907576 1206.722797 1209.095939 1212.009346
40.855000 1204.503103 1206.598180 1208.359269 1208.488514 1210.809107 1214.472432
40.930000 1206.701987 1208.316910 1209.900687 1210.270877 1212.730144 1216.569382
40.980000 1207.909402 1209.401950 1210.983388 1211.567727 1214.602004 1217.781525
41.030000 1209.104881 1210.425202 1212.232968 1212.898329 1216.537183 1219.003564
41.080000 1210.290955 1211.608178 1213.598738 1214.340336 1218.151930 1220.115773
41.130000 1211.644803 1213.113247 1215.486176 1215.920099 1219.574914 1221.389869
41.180000 1212.828198 1214.646939 1217.440906 1217.470417 1220.810741 1222.454534
41.230000 1214.189742 1216.166751 1219.467497 1219.033280 1221.968969 1223.465852
41.305000 1216.354992 1218.903384 1221.600734 1221.111156 1223.500383 1224.974593
41.380000 1218.739701 1221.577352 1223.421773 1223.105230 1224.970158 1226.123747
41.430000 1220.547481 1222.979996 1224.537190 1224.288953 1225.958388 1227.203793
41.480000 1222.292332 1224.108829 1225.603122 1225.406136 1226.965418 1228.171058
41.530000 1223.664002 1225.257558 1226.757525 1226.596334 1228.140612 1229.591922
41.580000 1224.860382 1226.399303 1227.873600 1227.779199 1229.444115 1231.176579
41.655000 1226.522590 1228.178425 1229.812293 1229.863935 1231.765395 1234.657357
41.730000 1228.237572 1230.045381 1231.908504 1232.077586 1234.475304 1237.460702
41.830000 1230.594073 1232.598635 1234.975621 1235.069271 1238.027581 1240.620078
41.880000 1231.469928 1233.969350 1236.656986 1236.723782 1240.311986 1241.833877
41.930000 1233.052383 1235.611533 1238.817713 1238.477081 1241.753923 1242.832289
42.030000 1235.800414 1241.517007 1243.176582 1242.438132 1244.046130 1245.353225
42.163333 1240.001293 1245.652753 1248.286088 1248.739362 1252.879617 1257.457256
42.296667 1246.622819 1251.181219 1255.348152 1255.113931 1259.349942 1262.660479
42.430000 1255.178847 1258.710611 1261.411841 1261.326848 1263.941052 1266.845272
42.480000 1257.363272 1260.937845 1263.126827 1263.094871 1265.395624 1268.164067
42.580000 1262.620446 1264.432899 1265.920619 1266.162812 1268.147984 1270.309444
42.680000 1264.878115 1266.829936 1268.533915 1268.635295 1270.511494 1272.424603
42.780000 1267.562408 1269.306348 1271.004619 1270.994294 1272.705848 1274.651307
42.880000 1270.458975 1271.944934 1273.382609 1273.398514 1274.707730 1277.071328
42.910000 1271.725383 1272.952443 1274.243293 1274.298306 1275.497086 1277.698693
42.930000 1272.389973 1273.593909 1274.834838 1274.901357 1276.069836 1278.304060
42.960000 1273.277337 1274.519334 1275.651641 1275.791664 1277.055567 1279.205505
42.980000 1273.978612 1275.126186 1276.218636 1276.429225 1277.755003 1279.823565
43.010000 1274.735748 1275.953772 1277.128172 1277.326905 1278.817229 1280.603844
43.030000 1275.317277 1276.584711 1277.776918 1277.957195 1279.509142 1281.061845
43.060000 1276.202696 1277.374653 1278.771221 1278.892470 1280.563219 1281.879832
43.080000 1276.629932 1277.954277 1279.525974 1279.544027 1281.174621 1282.650342
43.160000 1278.567738 1280.297921 1282.327046 1282.152170 1283.785057 1285.346442
43.210000 1279.551283 1281.824445 1283.931832 1283.774955 1285.655069 1287.217939
43.310000 1281.440648 1284.434996 1287.248033 1287.177889 1289.908250 1292.176142
43.410000 1283.446079 1287.394914 1291.118747 1290.522946 1293.254573 1295.415068
43.510000 1285.185695 1291.038680 1294.425991 1293.690686 1295.919759 1298.366999
43.585000 1287.992679 1293.597079 1296.327119 1295.785366 1297.967932 1299.925126
43.660000 1290.081494 1296.145524 1298.266233 1297.866538 1299.914707 1301.798488
43.710000 1291.525314 1297.784814 1299.812828 1299.505375 1301.480953 1303.359721
43.830000 1301.530948 1303.081962 1306.268456 1307.211346 1312.942971 1317.096079
43.880000 1303.156754 1304.894960 1309.065545 1309.827048 1315.589133 1318.521378
43.930000 1304.655095 1306.723917 1312.961340 1312.416920 1317.790671 1320.043180
43.980000 1306.502866 1308.627792 1316.217167 1314.961797 1319.381373 1321.640073
44.030000 1307.868284 1313.633168 1318.555257 1317.460956 1320.836097 1322.893634
44.080000 1309.930145 1317.279805 1320.270862 1319.648013 1322.325590 1324.134165
44.130000 1313.892941 1319.514945 1321.841772 1321.497592 1323.843309 1325.612376
44.180000 1316.998922 1321.350901 1323.403062 1323.152475 1325.354715 1327.063362
44.230000 1318.965399 1322.839131 1324.781704 1324.595306 1326.634123 1328.449816
44.280000 1321.846088 1324.561731 1326.437146 1326.322598 1328.171336 1330.008078
44.330000 1324.020981 1326.109506 1327.814643 1327.839489 1329.627441 1331.506705
44.380000 1325.780979 1327.433636 1329.264864 1329.262776 1330.946938 1332.899849
44.430000 1327.214639 1328.744106 1330.587276 1330.612686 1332.372675 1334.144204
44.480000 1328.590877 1330.339289 1331.906397 1331.982089 1333.746202 1335.557990
44.530000 1329.870575 1331.612481 1333.168178 1333.233477 1334.942661 1336.856629
44.580000 1330.955667 1332.819992 1334.447247 1334.449370 1336.094495 1337.936207
44.630000 1332.225961 1334.156063 1335.799735 1335.732636 1337.341574 1339.140741
44.730000 1334.600588 1336.478677 1338.135742 1338.034774 1339.504040 1341.115251
44.780000 1335.731720 1337.838009 1339.322882 1339.238167 1340.610503 1342.361208
44.830000 1337.119434 1339.120392 1340.390159 1340.367805 1341.677782 1343.249838
44.905000 1339.498673 1340.948791 1342.095430 1342.121959 1343.274278 1345.055903
44.980000 1341.704037 1342.692604 1343.638746 1343.787337 1344.847204 1347.030233
45.030000 1342.732877 1343.667829 1344.578174 1344.751769 1345.863261 1348.042310
45.080000 1343.716719 1344.544527 1345.375459 1345.645728 1346.728826 1349.194335
45.130000 1344.638488 1345.436807 1346.315855 1346.613463 1347.766181 1350.507751
45.180000 1345.569838 1346.396231 1347.389079 1347.691768 1349.010794 1351.840297
45.230000 1346.698876 1347.520104 1348.661230 1349.047267 1350.734619 1353.149645
45.280000 1347.820828 1348.674633 1350.111493 1350.453812 1352.440499 1354.476186
45.380000 1349.977515 1351.204391 1353.365247 1353.339035 1355.439762 1356.968370
45.480000 1352.096490 1353.973693 1356.542243 1356.247002 1358.130433 1359.688915
45.555000 1354.706203 1357.062132 1359.002794 1358.836638 1360.690873 1362.333883
45.630000 1358.488668 1359.805371 1361.300953 1361.392100 1363.078796 1364.437859
45.680000 1359.978827 1361.253514 1362.763169 1362.853228 1364.538832 1365.933379
45.780000 1362.511813 1363.970257 1365.623477 1365.639923 1367.294035 1369.039624
45.855000 1364.511886 1366.062297 1367.962048 1368.016118 1369.853271 1371.702642
45.930000 1367.212343 1368.647726 1370.443950 1370.450222 1372.218454 1373.952614
45.980000 1368.622985 1370.209120 1372.075631 1372.017440 1373.684653 1375.321354
46.030000 1370.048486 1371.766001 1373.621611 1373.533542 1375.163759 1376.629257
46.080000 1371.281028 1373.323465 1375.084008 1374.978512 1376.570585 1378.072973
46.130000 1372.543147 1374.619592 1376.352212 1376.302207 1377.981405 1379.716045
46.180000 1374.244667 1376.053059 1377.623042 1377.601587 1379.070493 1381.597921
46.230000 1375.841571 1377.654122 1378.786043 1378.982096 1380.499935 1382.843714
46.280000 1378.320498 1379.250964 1380.319676 1380.705702 1382.399555 1384.579013
46.330000 1379.716255 1380.641564 1381.969400 1382.311250 1384.279651 1386.223889
46.430000 1381.674198 1382.835899 1384.735395 1385.124395 1387.206578 1392.222352
46.480000 1382.888370 1384.029428 1385.931269 1386.404483 1388.457551 1394.154884
46.530000 1384.059253 1385.437731 1387.226952 1387.833114 1389.912200 1395.879907
46.580000 1385.736853 1386.965685 1388.817815 1389.475669 1391.912825 1397.269520
46.630000 1387.092810 1388.596924 1390.709934 1391.366743 1394.527660 1398.879695
46.700000 1389.602234 1391.600554 1394.713265 1394.769061 1398.139615 1400.842584
46.730000 1390.828212 1393.099260 1396.297466 1396.175602 1399.269823 1401.630062
46.800000 1395.094530 1397.472883 1400.286686 1399.911835 1402.083633 1403.542529
46.830000 1396.734917 1399.168795 1401.836413 1401.476229 1403.377189 1405.113001
46.870000 1399.779606 1402.902018 1404.491483 1404.363262 1406.038978 1407.435779
46.900000 1401.402521 1404.274543 1405.795354 1405.696423 1407.315605 1408.595728
47.000000 1407.035068 1408.597463 1410.014716 1409.969041 1411.267479 1412.944448
47.100000 1410.032133 1411.774855 1413.059990 1413.108162 1414.375732 1416.400215
47.200000 1412.495980 1414.490794 1416.039711 1416.298040 1418.231856 1421.205468
47.300000 1414.988224 1417.244985 1419.324863 1419.574813 1422.179575 1424.754485
47.400000 1417.643551 1420.065967 1422.933746 1422.835026 1425.433265 1427.485032
47.500000 1420.678089 1423.582128 1426.501385 1426.219655 1428.506932 1430.494330
47.600000 1424.495351 1428.401642 1430.563590 1430.835971 1433.134470 1440.858759
47.700000 1430.244403 1432.397013 1435.200689 1435.995700 1439.292728 1446.980746
47.800000 1432.934115 1435.620910 1439.912790 1440.207344 1444.628277 1449.690905
47.933333 1436.826216 1441.076082 1445.814658 1445.730434 1450.359556 1453.707455
48.066667 1442.767140 1447.756446 1451.435832 1451.164503 1454.906451 1457.614532
48.200000 1452.979690 1454.100423 1456.309792 1456.472080 1458.977662 1460.764138
48.300000 1455.697960 1457.383132 1459.655063 1459.639458 1461.868778 1463.644899
48.400000 1458.835813 1461.074218 1463.499691 1463.596537 1465.762583 1469.002553
48.500000 1463.886233 1465.724993 1467.716932 1467.985212 1470.202319 1474.136193
48.600000 1466.759110 1469.518737 1473.341326 1473.559982 1477.289113 1482.389128
48.700000 1468.916976 1472.024445 1477.584038 1477.353682 1482.046892 1486.573566
48.800000 1471.528688 1475.184089 1481.391740 1481.169928 1486.611746 1490.298238
48.900000 1474.225224 1479.488728 1485.301845 1484.851827 1490.380474 1492.414503
49.033333 1477.975120 1484.829067 1490.729993 1490.151061 1494.981173 1498.859315
49.166667 1482.717401 1491.432752 1495.691657 1495.319355 1499.636788 1503.679837
49.300000 1488.715567 1496.837938 1500.282380 1500.432744 1504.659792 1508.696882
49.400000 1490.134248 1499.915685 1505.016477 1505.814985 1513.492253 1517.893773
49.500000 1496.106013 1502.497425 1507.336794 1508.825585 1517.060117 1520.791851
49.600000 1500.802906 1504.959510 1510.020475 1511.708988 1520.346000 1523.104124
49.700000 1505.199392 1507.841801 1512.896739 1514.573201 1522.971482 1525.493351
49.800000 1508.426440 1511.027596 1517.291573 1517.919957 1525.121568 1527.404346
49.900000 1511.907969 1515.908891 1522.948766 1522.019447 1527.259635 1529.348584
50.000000 1515.147656 1523.098949 1527.323884 1526.273560 1529.668546 1531.365235
50.100000 1521.354042 1527.686655 1530.475400 1529.932798 1532.323918 1533.912137
50.200000 1527.542953 1531.831312 1534.283238 1534.136392 1536.543277 1539.594466
50.300000 1534.523845 1536.548809 1538.768975 1538.718926 1540.816619 1542.792171
50.400000 1539.995576 1542.123027 1543.942731 1543.950643 1545.789920 1547.736716
50.500000 1543.845069 1545.629878 1547.488927 1547.473317 1549.224602 1551.196386
50.600000 1546.075142 1548.064009 1549.981699 1549.957599 1551.872148 1553.818230
50.700000 1548.468983 1550.301370 1552.184798 1552.190608 1554.085713 1555.768148
50.800000 1550.570299 1552.516533 1554.349917 1554.309144 1556.099957 1557.713232
50.900000 1552.636922 1554.617344 1556.404421 1556.415562 1558.221156 1559.847988
50.997000 1554.676976 1556.610358 1558.401254 1558.368179 1560.167689 1561.428809
51.094000 1556.939900 1558.665223 1560.288016 1560.287641 1561.911228 1563.353681
51.200000 1558.960000 1560.863381 1562.407354 1562.334278 1563.867933 1565.131503
51.300000 1560.947399 1562.777451 1564.273433 1564.231133 1565.712682 1567.076143
51.400000 1562.836973 1564.754770 1566.129076 1566.127990 1567.534162 1568.892777
51.500000 1565.106544 1566.734402 1568.095785 1568.135411 1569.557266 1571.171743
51.600000 1567.171341 1568.777436 1570.112691 1570.214927 1571.703961 1573.485325
51.733333 1569.699463 1571.558354 1573.141632 1573.312519 1575.118518 1578.617333
51.866667 1572.253304 1574.252908 1576.090174 1576.377009 1578.467660 1582.116344
52.000000 1574.992642 1577.140616 1579.191189 1579.543194 1582.063323 1585.514150
52.133333 1577.859522 1579.877831 1582.051775 1582.794141 1586.082943 1590.438138
52.266667 1580.474163 1582.478322 1585.240846 1586.043498 1589.732848 1594.593674
52.400000 1583.353413 1585.182172 1588.498038 1589.319183 1593.424494 1598.026598
52.500000 1585.781456 1587.420142 1591.368639 1592.003235 1596.332654 1602.748869
52.600000 1587.948012 1589.864365 1594.617170 1595.052942 1600.013630 1607.491970
52.700000 1590.940482 1592.819864 1597.173835 1598.294360 1604.328849 1611.083686
52.800000 1593.917702 1596.705132 1601.711267 1602.336141 1608.458602 1614.189156
52.900000 1598.554813 1602.402836 1607.047428 1607.078999 1611.626187 1617.024488
53.000000 1606.457161 1610.743615 1613.400750 1613.405664 1615.858592 1619.730000
53.100000 1611.696114 1615.824849 1617.829899 1617.771862 1619.700643 1623.674347
53.120000 1612.945205 1616.666734 1618.620724 1618.520704 1620.414635 1624.196283
53.170000 1616.011846 1618.539781 1620.235856 1620.282291 1622.059870 1626.043422
53.200000 1617.649160 1619.595033 1621.162167 1621.286380 1623.066401 1626.955164
53.220000 1618.375420 1620.313007 1621.894947 1621.989501 1623.763890 1627.620918
53.270000 1619.993262 1622.095889 1623.742216 1623.812532 1625.706328 1628.796241
53.300000 1621.139386 1623.300831 1625.030577 1624.995660 1626.787666 1629.553033
53.320000 1621.936682 1623.993071 1625.807479 1625.757441 1627.588103 1630.091635
53.370000 1623.925510 1625.853657 1627.734225 1627.677057 1629.489514 1631.415452
53.400000 1625.007989 1627.076129 1628.900058 1628.845847 1630.684038 1632.359328
53.420000 1626.017377 1627.900235 1629.607530 1629.562928 1631.292144 1632.906189
53.470000 1627.722387 1629.755912 1631.303909 1631.252535 1632.904287 1634.338484
53.500000 1629.225590 1630.721117 1632.170581 1632.175874 1633.685846 1635.124629
53.520000 1629.912212 1631.315408 1632.771653 1632.764765 1634.285103 1635.604242
53.570000 1631.513956 1632.662523 1634.072930 1634.102471 1635.617751 1636.849613
53.620000 1632.743872 1633.963302 1635.382685 1635.404541 1636.887435 1638.215445
53.670000 1633.852205 1635.257982 1636.741064 1636.695800 1638.107143 1639.433418
53.720000 1635.086124 1636.600459 1638.164346 1638.116485 1639.553275 1641.031839
53.770000 1636.901192 1638.080570 1639.697774 1639.688363 1641.147687 1643.201503
53.820000 1638.136113 1639.618589 1641.278035 1641.313321 1642.946770 1645.137555
53.870000 1639.439604 1640.952407 1642.577843 1642.682862 1644.361739 1646.693989
53.920000 1641.037086 1642.507456 1644.102339 1644.283388 1646.124496 1648.314105
54.020000 1643.270929 1644.894563 1646.624062 1646.819979 1648.835333 1651.274390
54.120000 1645.526577 1647.000569 1648.892067 1649.113564 1651.309964 1653.649508
54.170000 1646.507314 1648.170893 1650.248683 1650.402824 1652.691673 1655.005476
54.270000 1648.793823 1650.500934 1652.808433 1652.953656 1655.413225 1657.654725
54.320000 1649.995906 1651.847383 1654.331601 1654.318278 1656.730879 1659.124436
54.420000 1652.515844 1654.636624 1657.070817 1656.994966 1659.329188 1661.248275
54.470000 1654.102432 1656.233228 1658.669502 1658.533233 1660.686407 1662.512024
54.520000 1655.677048 1657.928303 1660.232970 1660.160283 1662.270293 1664.349773
54.570000 1657.716468 1660.106969 1662.057682 1662.105986 1664.162313 1666.499668
54.620000 1659.466786 1661.737889 1663.805896 1663.906386 1666.199602 1668.897262
54.670000 1661.318273 1663.374179 1665.452110 1665.701874 1668.168196 1671.200558
54.720000 1662.907168 1664.952675 1667.255803 1667.570418 1670.291540 1673.837508
54.845000 1665.645221 1668.205915 1671.407862 1671.724277 1675.379707 1679.007101
54.970000 1668.564479 1671.640925 1675.634196 1675.778492 1680.087507 1684.487454
55.045000 1670.610246 1673.586867 1678.115203 1678.176009 1682.741186 1686.713984
55.120000 1672.689034 1675.643611 1680.533805 1680.496847 1685.107149 1688.987449
55.220000 1674.972822 1678.897431 1683.625194 1683.621422 1688.148603 1692.207314
55.320000 1677.640252 1681.880681 1687.097831 1686.780432 1691.098302 1695.069910
55.420000 1679.838131 1685.225440 1690.753239 1690.217022 1694.706542 1698.600177
55.470000 1681.239740 1686.952496 1692.602820 1692.142851 1696.827406 1701.283565
55.603333 1684.576982 1692.182109 1698.682433 1698.406007 1704.523252 1710.719002
55.736667 1688.125470 1698.200617 1705.887699 1705.075972 1711.514557 1717.456771
55.870000 1690.849377 1706.203910 1712.600285 1711.506924 1716.551755 1725.604637
55.970000 1693.128794 1712.942060 1717.061601 1716.134793 1720.473954 1728.978450
56.070000 1695.757798 1716.992481 1720.622186 1719.887686 1724.163828 1732.327565
56.170000 1698.230094 1720.305442 1724.310995 1723.657063 1728.567490 1735.172381
56.220000 1700.105721 1721.946851 1726.200149 1725.533916 1730.710014 1736.374932
56.345000 1707.659818 1725.699754 1730.410747 1729.918206 1735.402195 1739.179635
56.470000 1716.390933 1730.074889 1734.933318 1734.349920 1739.065657 1742.322590
56.520000 1718.606821 1732.055955 1736.877261 1736.155350 1740.525581 1743.746476
56.630000 1723.241974 1736.581707 1740.906094 1740.131862 1743.526372 1746.392670
56.730000 1729.145674 1741.397814 1744.878559 1744.140119 1746.930751 1749.157577
56.830000 1733.497651 1744.910584 1747.839387 1747.449253 1749.965602 1752.727165
56.930000 1738.298499 1747.607296 1750.767626 1750.507785 1753.238621 1756.643136
57.030000 1741.557327 1750.311024 1753.367193 1753.467259 1756.536006 1760.858053
57.130000 1748.019365 1753.036412 1756.051440 1756.474553 1759.812027 1764.649355
57.230000 1751.624969 1755.866128 1759.094773 1759.730226 1763.642765 1768.813481
57.330000 1755.588108 1758.743845 1762.399720 1763.145756 1767.292512 1773.143142
57.430000 1758.307699 1761.242195 1765.306623 1766.204334 1771.153709 1776.979928
57.530000 1760.962195 1763.843427 1768.188347 1769.216343 1774.470943 1780.728411
57.658571 1763.768834 1766.861750 1772.450192 1773.597239 1780.215927 1789.614407
57.787143 1766.294552 1769.879040 1777.042385 1778.043907 1785.964749 1797.057585
57.915714 1769.079960 1772.949344 1781.235156 1782.594680 1792.189851 1803.434350
58.044286 1771.763085 1775.883595 1786.513030 1787.129650 1797.659886 1808.809984
58.172857 1774.161043 1778.773335 1791.432668 1791.638041 1803.043799 1814.386008
58.301429 1777.340852 1781.607202 1797.061320 1796.227840 1808.580123 1819.789386
58.430000 1780.522317 1784.857532 1802.631314 1800.798987 1813.699527 1825.027153
58.530000 1783.302590 1788.498851 1805.529210 1804.264333 1817.563077 1829.262182
58.630000 1786.947933 1793.565836 1808.435668 1808.057324 1821.530726 1832.828109
58.730000 1790.996580 1798.890083 1811.678215 1811.830887 1825.291190 1835.550948
58.830000 1796.743672 1802.783057 1814.215766 1815.344756 1828.584914 1838.465950
58.930000 1800.803949 1806.004827 1817.570091 1818.709714 1832.118496 1841.074625
59.030000 1803.381981 1809.082857 1820.853139 1821.948229 1835.372211 1843.775243
59.130000 1806.385235 1811.737185 1824.852157 1825.153227 1838.698866 1847.080518
59.230000 1809.766514 1814.794187 1828.293777 1828.486693 1842.673202 1849.323130
59.330000 1812.879642 1817.941931 1831.043626 1831.705613 1846.136655 1852.474084
