depth(m) lower_95(kyr) lower_68(kyr) median(kyr) mean(kyr) upper_68(kyr) upper_95(kyr)
31.670000 713.674915 714.881912 715.681024 715.660187 716.489995 717.430905
31.770000 715.523075 716.422605 717.178061 717.198962 717.952124 718.805398
31.870000 717.158264 717.815395 718.592944 718.606895 719.362017 720.184954
31.970000 718.405580 719.209809 719.971151 719.981832 720.793491 721.606018
32.070000 719.676914 720.605485 721.353978 721.391760 722.200404 723.371901
32.170000 721.077402 721.976498 722.853504 722.949124 723.794590 725.761070
32.270000 722.733887 723.502699 724.553449 724.998855 726.279366 730.545253
32.370000 724.106659 725.099226 726.616409 727.460495 730.403155 734.446897
32.470000 725.700414 726.924629 729.386595 730.259357 734.231027 737.205464
32.570000 727.280789 728.943890 733.246520 733.063580 736.879211 738.859300
32.670000 728.869632 731.408771 736.443737 735.737473 739.063932 740.809847
32.770000 731.331256 734.572363 739.069012 738.188493 740.972184 742.477626
32.870000 734.363918 738.057289 741.290578 740.639188 742.782345 744.119855
32.970000 737.949606 741.614174 743.410567 743.028542 744.433701 745.972643
33.070000 742.735038 744.571607 745.518594 745.518235 746.575796 748.248063
33.170000 744.916143 746.168834 747.295244 747.349398 748.501501 750.409002
33.270000 746.614290 747.724498 748.988211 749.109751 750.474597 752.533140
33.370000 748.078649 749.326736 750.651274 750.830906 752.334635 754.536540
33.470000 749.522287 750.869369 752.355217 752.585717 754.421583 756.746959
33.603333 751.642766 753.059600 754.690535 754.957373 756.967382 759.548840
33.736667 753.818980 755.264125 757.024510 757.363889 759.557998 762.342478
33.870000 755.747004 757.592597 759.430709 759.837723 762.573352 765.294835
33.970000 757.476818 759.237576 761.525246 761.819934 764.573651 767.339398
34.070000 759.434700 761.263258 763.898468 764.133674 767.258461 769.356443
34.170000 761.528192 763.781949 766.696527 766.749601 769.885176 772.179124
34.270000 763.763159 766.628176 769.601542 769.769495 772.837490 776.933603
34.370000 766.967027 769.750505 772.660099 772.978315 775.977505 780.463444
34.470000 771.684577 773.862339 777.325117 777.583306 781.254031 784.999354
34.560000 774.144023 777.245776 780.943866 781.101296 785.291457 787.505998
34.660000 777.525891 781.183187 786.330134 785.179095 788.378713 789.488479
34.760000 781.958775 786.635781 789.835972 788.983036 790.949991 791.845213
34.860000 790.007937 791.331172 792.300506 792.216845 793.121796 793.865605
34.960000 791.899462 792.869606 793.949657 793.903078 794.947107 795.810003
35.060000 793.634210 794.492070 795.491678 795.519353 796.543585 797.549539
35.160000 795.036954 796.058916 797.097698 797.085223 798.143585 799.351449
35.260000 796.615129 797.616137 798.653131 798.691840 799.750123 801.099393
35.360000 798.150552 799.200085 800.360034 800.372147 801.542075 802.722969
35.460000 799.807900 800.919829 802.217470 802.267243 803.559976 805.078749
35.560000 801.521910 802.895920 804.596706 804.729750 806.377616 808.856265
35.693333 803.906174 805.704215 808.389722 809.074996 812.344660 818.165889
35.826667 806.213636 809.051321 813.500330 813.695848 818.453451 822.192423
35.960000 808.503744 814.251796 818.788338 818.406588 822.996359 825.199119
36.060000 809.802457 817.912355 823.114578 821.808368 825.576930 827.812396
36.160000 811.459531 823.328749 826.281251 824.971822 827.915175 831.112100
36.260000 813.261932 826.198484 828.547543 827.432669 830.668583 833.707211
36.360000 814.987098 828.426067 831.197578 830.200365 834.208946 837.716868
36.460000 816.922719 830.311974 834.149082 833.143438 837.352505 840.781582
36.560000 818.483211 832.228983 837.562077 836.160920 840.320349 843.598172
36.660000 820.959878 834.811845 840.612803 839.403232 844.008881 847.958916
36.760000 823.602401 837.442878 843.837494 842.626056 846.891929 851.522771
36.893333 833.906464 842.626166 847.683802 846.906810 851.341888 855.064573
37.026667 840.568189 847.318688 851.584058 851.179371 855.267497 859.165398
37.160000 847.835858 852.814025 855.733774 855.850128 859.453454 862.899213
37.260000 855.099599 857.688470 860.854922 860.687518 863.410122 865.703349
37.360000 867.811112 870.039394 871.868758 871.829162 873.688850 875.350912
37.460000 871.305057 873.021151 874.596387 874.619297 876.332850 877.900684
37.560000 873.559253 875.188940 876.956884 876.928047 878.649113 880.277038
37.660000 875.559954 877.475957 879.364856 879.353205 881.238633 883.013450
37.760000 877.231094 879.510956 881.548500 881.497531 883.486427 885.619419
37.860000 879.125409 881.480228 883.583444 883.525087 885.643315 887.534521
37.960000 880.796799 883.416575 885.596258 885.474302 887.620671 889.285596
38.060000 882.639966 885.439194 887.698300 887.432106 889.468142 890.888222
38.160000 884.571638 887.668174 889.798597 889.488342 891.299320 892.739958
38.260000 886.736578 889.744174 891.767037 891.493302 893.218628 894.692654
38.360000 889.001773 891.961340 893.701818 893.530943 895.150799 896.664334
38.460000 891.711305 893.991435 895.554345 895.561419 897.043482 899.020321
38.560000 894.544008 896.166242 897.658271 897.845790 899.214205 902.856366
38.660000 896.761530 898.425894 900.012885 900.422512 902.492379 906.824531
38.760000 899.033104 900.532928 902.556984 903.204984 905.926944 910.728221
38.860000 901.120460 902.753503 905.385100 906.130478 909.887132 915.160882
38.993333 903.608021 905.792341 909.359733 910.067706 914.713517 920.049564
39.126667 906.111601 908.846436 913.195722 913.933291 920.544641 923.699089
39.260000 908.633800 912.618987 916.839753 917.834598 924.599938 927.154599
39.360000 911.508150 916.506968 919.704403 920.900090 926.916577 929.268056
39.460000 914.887531 920.022354 923.962277 924.123625 928.810578 931.075933
39.560000 920.016644 924.378331 927.530061 927.454214 930.849202 932.904017
39.660000 925.906848 928.518876 931.097191 930.941004 933.529795 935.304403
39.760000 929.301882 931.679285 933.718432 933.713021 935.867611 937.928126
39.860000 932.553205 934.514111 936.413783 936.598216 938.729471 941.158115
39.960000 935.106910 936.906204 939.137225 939.235725 941.644042 943.672750
40.060000 938.003817 940.161318 942.842570 942.753758 945.121209 947.278783
40.160000 941.719884 944.571051 946.989020 947.032270 949.620564 952.353185
40.260000 946.302957 948.493332 950.996892 951.005514 953.578059 955.409818
40.360000 949.546881 952.587244 955.400497 954.852573 956.756467 957.754658
40.460000 955.424758 958.234530 959.091696 958.980127 959.887773 961.058472
40.560000 960.617401 961.615610 962.942696 963.136653 964.715472 966.661456
40.660000 962.819214 964.649625 966.487848 966.576321 968.561469 970.894982
40.760000 965.411151 967.260655 969.378446 969.508111 971.807244 974.280080
40.860000 969.021382 970.945533 973.223681 973.221603 975.587390 977.117291
40.960000 971.589417 973.678360 976.296361 976.001836 978.118050 979.524865
41.060000 973.929275 976.221636 978.684815 978.369585 980.222438 981.514340
41.160000 976.436925 979.291200 980.908788 980.684586 982.101046 983.155571
41.260000 979.381344 981.785490 983.029385 982.897136 984.145698 985.281022
41.360000 981.743431 983.669891 984.932107 984.865487 986.028674 987.288143
41.460000 984.009114 985.556696 986.788641 986.768459 987.916725 989.093407
41.560000 985.835769 987.485734 988.627576 988.656707 989.839510 991.247370
41.660000 988.226980 989.468731 990.690224 990.743160 991.917979 993.471055
41.760000 990.455625 991.713534 993.018448 993.164112 994.497391 996.342283
41.860000 992.505816 993.945821 995.441092 995.658583 997.272895 1000.014960
41.960000 994.647973 996.163136 997.933206 998.293982 999.853143 1005.167131
42.060000 997.179156 999.174278 1000.683334 1001.228527 1002.511342 1009.115760
42.160000 1001.392657 1002.486185 1003.891779 1004.865325 1007.680911 1012.218949
42.260000 1003.685547 1005.293701 1007.964846 1008.688170 1012.245137 1017.338299
42.360000 1006.499823 1008.587291 1011.980390 1012.383271 1016.762879 1020.029782
42.460000 1009.956604 1013.193029 1016.391358 1016.897607 1021.427446 1023.944912
42.560000 1012.729009 1016.555642 1020.534827 1020.487924 1024.557367 1026.704486
42.660000 1015.827763 1020.513556 1024.632839 1024.040550 1027.517492 1029.319052
42.760000 1019.237138 1024.593531 1028.161113 1027.513305 1030.308571 1032.565464
42.860000 1023.232800 1029.263314 1031.225604 1030.958888 1032.960729 1035.695195
42.960000 1029.195686 1032.360661 1034.575401 1034.633832 1037.116008 1040.422202
43.060000 1033.474138 1035.294236 1037.776723 1037.979031 1040.844170 1043.413131
43.160000 1036.070857 1037.982744 1040.759475 1040.945870 1043.957510 1046.410751
43.260000 1038.268079 1040.536162 1043.848764 1043.642575 1046.620297 1048.844080
43.360000 1040.321961 1043.060337 1046.318144 1046.090787 1048.927137 1051.339244
43.460000 1042.793927 1045.602861 1048.625474 1048.418598 1051.157338 1053.289514
43.560000 1044.909587 1048.124460 1050.930255 1050.706274 1053.301214 1055.197902
43.660000 1047.668741 1050.481212 1053.161139 1052.957579 1055.485155 1057.222995
43.760000 1050.189704 1052.666094 1055.277992 1055.124348 1057.525129 1059.280640
43.860000 1052.899745 1055.112077 1057.381582 1057.341865 1059.634249 1061.398587
43.960000 1055.823282 1057.787870 1059.912425 1059.857856 1061.951165 1063.519554
44.060000 1060.300676 1062.230445 1063.757061 1063.843321 1065.445545 1067.823860
44.160000 1064.199371 1065.612035 1067.561643 1067.785584 1069.834221 1072.866728
44.170000 1064.561598 1065.916700 1067.925635 1068.161776 1070.380709 1073.197046
44.270000 1067.093560 1068.869394 1071.816326 1071.702919 1074.341774 1076.417389
44.370000 1069.925302 1072.337454 1076.141652 1075.834929 1078.614152 1081.606510
44.470000 1072.862696 1076.414930 1079.856330 1079.731185 1082.874836 1085.757941
44.570000 1077.726728 1080.677653 1083.631100 1083.578818 1086.530322 1088.673589
44.670000 1082.134608 1085.067470 1087.684544 1087.404527 1089.653222 1091.294471
44.770000 1085.521975 1088.272896 1090.433011 1090.186877 1092.145294 1093.464130
44.870000 1088.528592 1090.930592 1092.821023 1092.570085 1094.209947 1095.362172
44.970000 1091.464779 1093.676431 1095.231357 1094.998450 1096.339961 1097.339502
45.070000 1094.255319 1096.478022 1097.769528 1097.596910 1098.761586 1099.688863
45.170000 1096.355871 1098.759772 1100.053526 1099.881013 1101.116785 1102.075595
45.270000 1099.285072 1100.926889 1102.029713 1101.973313 1103.107570 1104.100903
45.370000 1102.111700 1103.247769 1104.285629 1104.366413 1105.480788 1107.386904
45.470000 1104.671359 1106.009330 1107.589953 1107.684724 1109.373570 1111.396418
45.570000 1107.446630 1109.972418 1111.746931 1111.629598 1113.239351 1114.938880
45.670000 1112.146594 1113.675206 1115.289730 1115.285434 1116.884826 1118.616717
45.770000 1115.257345 1116.991623 1118.901744 1118.719181 1120.311988 1121.593036
45.870000 1120.422512 1122.082750 1123.437746 1123.574494 1125.155008 1127.310813
45.970000 1123.386424 1125.104439 1126.896471 1127.025769 1128.945274 1131.212478
46.070000 1126.069409 1128.079414 1130.319272 1130.527749 1132.777895 1136.802774
46.170000 1128.145009 1130.257612 1132.709425 1133.040039 1135.765280 1140.031339
46.270000 1130.252920 1132.359409 1134.929887 1135.340050 1138.543212 1142.346501
46.370000 1132.426523 1134.439636 1137.144714 1137.661722 1141.435608 1144.465888
46.470000 1134.369053 1136.881432 1140.127749 1140.437754 1144.339763 1147.800954
46.570000 1136.711679 1140.232674 1143.576570 1144.040051 1148.038582 1152.114233
46.670000 1140.764356 1144.586220 1149.247558 1149.025397 1153.279789 1156.475341
46.770000 1145.754043 1150.167398 1154.594776 1154.064219 1157.772768 1161.009154
46.870000 1150.565847 1155.301179 1158.815980 1158.559421 1161.645151 1165.573595
46.970000 1155.283829 1158.691517 1161.677817 1161.705975 1164.609018 1168.547721
47.070000 1158.262385 1161.475843 1164.426143 1164.415216 1167.273373 1171.628168
47.170000 1160.827030 1164.129760 1166.990001 1167.060653 1169.683473 1174.801215
47.270000 1163.175034 1166.864241 1169.537615 1169.702170 1172.521467 1177.675362
47.370000 1166.032962 1169.247914 1172.242809 1172.509761 1175.917083 1180.440734
47.470000 1168.146384 1171.994971 1174.790195 1175.206188 1178.617603 1183.133397
47.570000 1170.505044 1174.715488 1177.894309 1177.978028 1181.535152 1185.054787
47.670000 1173.819244 1177.721035 1180.909639 1180.954129 1184.773300 1186.853860
47.770000 1177.298611 1180.773889 1184.520927 1184.068303 1187.247710 1188.650070
47.870000 1181.464286 1185.229319 1188.082893 1187.466603 1189.628026 1190.445440
47.970000 1189.484564 1190.939349 1191.852325 1191.861452 1192.807674 1194.032583
48.070000 1191.554053 1192.659304 1193.889520 1193.962800 1195.163660 1196.903130
48.170000 1193.498084 1194.701573 1195.935517 1196.216148 1197.754187 1200.849408
48.270000 1195.433505 1197.035965 1198.602848 1198.932340 1201.070844 1203.726341
48.370000 1197.363027 1199.156213 1201.513542 1201.590726 1204.010690 1205.828694
48.470000 1199.683392 1201.656937 1204.362679 1204.121230 1206.299015 1207.662672
48.570000 1201.986901 1204.483524 1206.851111 1206.531379 1208.415945 1209.742925
48.670000 1204.686200 1206.961497 1208.766517 1208.692993 1210.308512 1212.224260
48.770000 1207.243389 1209.132769 1210.718360 1210.781478 1212.333967 1215.440078
48.870000 1210.089076 1211.739732 1213.175541 1213.343483 1214.973847 1217.786248
48.970000 1212.016960 1213.668658 1215.484619 1215.681392 1217.854667 1219.874274
49.070000 1214.067657 1215.976498 1217.820667 1217.995064 1220.261137 1222.041829
49.170000 1216.362818 1218.238428 1220.391399 1220.308844 1222.234655 1224.010442
49.270000 1219.134611 1220.981582 1222.988198 1222.807357 1224.419100 1225.991354
49.370000 1221.778879 1223.645062 1225.271460 1225.214489 1226.623435 1228.693112
49.470000 1224.657985 1226.387920 1228.056268 1228.422178 1230.250879 1234.975566
49.570000 1228.385248 1230.424246 1232.553209 1232.992471 1236.002552 1239.124922
49.670000 1232.059524 1234.368136 1236.774728 1236.946313 1239.961056 1241.834200
49.710000 1233.781127 1235.902990 1238.384330 1238.391947 1241.234446 1242.624901
49.770000 1237.715456 1239.653870 1241.256847 1241.152922 1242.690950 1243.755769
49.810000 1242.036629 1243.379778 1244.173723 1244.050055 1244.879401 1245.626576
49.910000 1244.849159 1245.549641 1246.346229 1246.386456 1247.179586 1248.330699
50.010000 1246.524001 1247.209235 1248.136015 1248.279449 1249.295813 1250.785845
50.110000 1247.875923 1248.829584 1249.832327 1249.969168 1251.195987 1252.554559
50.210000 1249.390934 1250.310140 1251.535938 1251.638804 1252.927495 1254.668786
50.310000 1250.897555 1251.881216 1253.086547 1253.268857 1254.588595 1256.919943
50.410000 1252.619393 1253.583301 1254.905623 1255.198986 1256.934388 1259.029466
50.510000 1254.233617 1255.476522 1257.132793 1257.425152 1259.495479 1262.114056
50.610000 1256.183470 1257.556211 1259.554915 1259.909075 1262.442857 1265.762722
50.710000 1258.085887 1259.809737 1262.046776 1262.254531 1264.749548 1267.872364
50.810000 1259.983854 1262.428213 1265.093178 1265.078323 1267.756920 1270.214752
50.910000 1262.031188 1264.446328 1267.912086 1267.647152 1270.463541 1272.738519
51.010000 1264.320492 1266.992925 1270.985798 1270.453565 1273.426194 1275.190772
51.110000 1266.180030 1269.577731 1273.061526 1272.675603 1275.696983 1277.348082
51.210000 1268.332932 1271.444832 1274.831752 1274.600828 1277.590111 1279.018562
51.310000 1271.317250 1274.105258 1276.866253 1276.690708 1279.309532 1280.765061
51.410000 1274.016743 1276.556587 1279.089778 1278.828574 1281.051586 1282.423192
51.510000 1276.458992 1279.340535 1281.333337 1281.149949 1283.046964 1284.870408
51.610000 1279.568182 1282.632032 1284.719062 1284.535478 1286.625004 1288.286548
51.710000 1284.487878 1286.268819 1287.899986 1287.800179 1289.256536 1290.640670
51.810000 1286.993517 1288.329792 1289.773133 1289.753042 1291.134717 1292.506402
51.910000 1288.869786 1289.995597 1291.451237 1291.486639 1292.877252 1294.368434
52.010000 1290.459259 1291.933349 1293.273306 1293.373615 1294.817989 1296.579368
52.110000 1292.325060 1294.004082 1295.550609 1295.497841 1296.977135 1298.341843
52.210000 1293.868326 1296.302046 1297.752167 1297.612686 1299.051812 1299.988008
52.310000 1295.916975 1298.430646 1299.776338 1299.579537 1300.849110 1301.837154
52.410000 1298.924815 1300.405896 1301.454185 1301.390921 1302.476876 1303.356664
52.510000 1300.963916 1302.046515 1302.929961 1302.936118 1303.772434 1305.067776
52.610000 1302.664364 1303.546002 1304.250948 1304.344705 1305.134237 1306.500163
52.710000 1303.941870 1304.801478 1305.563199 1305.663469 1306.413815 1307.992262
52.810000 1305.298764 1306.063788 1306.835699 1306.974290 1307.805827 1309.307072
52.910000 1306.424895 1307.294167 1308.100412 1308.275133 1309.133750 1311.103838
53.010000 1307.832957 1308.604286 1309.483168 1309.715847 1310.730830 1313.232101
53.110000 1309.093023 1310.025437 1311.126272 1311.364761 1312.827720 1315.086091
53.210000 1310.515552 1311.585958 1312.912782 1313.123175 1314.664752 1316.847121
53.310000 1312.168441 1313.369390 1314.763964 1314.937501 1316.619367 1318.382325
53.410000 1313.577551 1314.941589 1316.444346 1316.527348 1318.104293 1319.980260
53.510000 1315.053246 1316.355388 1317.941678 1317.986307 1319.674774 1321.582814
53.610000 1316.485134 1317.816777 1319.402753 1319.439469 1321.023790 1322.856627
53.710000 1317.937285 1319.263118 1320.869306 1320.929273 1322.538691 1324.215473
53.810000 1319.275252 1320.853296 1322.481442 1322.493618 1324.114516 1325.881314
53.910000 1320.970873 1322.534558 1324.320351 1324.289773 1325.978779 1327.660696
54.010000 1322.928593 1324.555052 1326.492069 1326.417012 1328.236904 1329.916988
54.110000 1324.721865 1326.474523 1328.540448 1328.419328 1330.221283 1331.735005
54.210000 1326.730057 1328.465347 1330.542852 1330.393636 1332.151149 1333.691780
54.310000 1328.513795 1330.382078 1332.279232 1332.135423 1333.817996 1335.169619
54.410000 1330.179702 1332.390682 1334.041880 1333.888105 1335.398400 1336.749753
54.510000 1332.051974 1334.343681 1335.758021 1335.655916 1336.980940 1338.417773
54.610000 1334.013125 1336.210071 1337.439441 1337.370746 1338.573208 1339.948815
54.710000 1335.621685 1337.917635 1339.092837 1339.069772 1340.412260 1341.773137
54.810000 1337.586271 1339.474868 1340.638424 1340.636338 1341.930981 1343.269743
54.910000 1339.544651 1340.970242 1342.103216 1342.106575 1343.301155 1344.540515
55.010000 1341.401921 1342.788973 1343.766196 1343.824480 1344.954707 1346.285208
55.110000 1343.329109 1344.674066 1345.842331 1346.025353 1347.245716 1350.096543
55.210000 1346.502099 1347.971279 1350.250077 1350.506390 1353.276451 1355.539008
55.310000 1348.994749 1350.675351 1354.439320 1353.890979 1356.574995 1358.128878
55.410000 1350.823443 1353.325012 1357.861201 1357.123158 1360.011632 1361.907956
55.510000 1352.981543 1355.741119 1359.722547 1359.261859 1362.052982 1364.058319
55.610000 1354.995946 1358.726426 1361.539897 1361.330681 1363.858586 1366.135269
55.710000 1358.673363 1361.357870 1363.439933 1363.436810 1365.625842 1367.970839
55.810000 1360.893759 1363.390433 1365.420906 1365.575172 1367.790290 1370.711768
55.910000 1363.514357 1365.524551 1367.682951 1367.899214 1370.283782 1373.603511
56.010000 1366.705109 1368.970514 1371.705059 1371.826490 1374.761961 1377.264110
56.110000 1368.744075 1371.654597 1375.340034 1374.960225 1378.104351 1380.371134
56.210000 1370.750840 1374.967579 1378.699093 1378.153900 1381.035978 1383.199710
56.310000 1374.822043 1379.028233 1381.598584 1381.379524 1383.897562 1385.728329
56.410000 1380.150713 1382.099673 1385.076117 1384.775163 1386.978663 1389.083817
56.510000 1383.070560 1385.793038 1388.280044 1388.359329 1390.839383 1394.273068
56.610000 1387.252961 1389.167755 1391.476152 1391.818798 1394.670789 1397.364070
56.710000 1389.841115 1391.992850 1394.863638 1394.910887 1397.805918 1400.012376
