depth(m) lower_95(kyr) lower_68(kyr) median(kyr) mean(kyr) upper_68(kyr) upper_95(kyr)
28.200000 697.928325 702.559835 706.380646 705.925485 709.218290 710.530716
28.300000 703.255289 706.592152 709.351519 708.912813 711.258488 712.141147
28.400000 707.600668 710.474576 712.257392 711.899178 713.303084 714.085544
28.500000 712.233260 713.740168 714.817344 714.714006 715.674871 716.596454
28.600000 714.597882 715.941523 717.085889 717.062015 718.171290 719.329356
28.700000 717.058581 718.119823 719.316518 719.299955 720.443798 721.538397
28.800000 719.153999 720.404226 721.476908 721.504746 722.597462 723.773805
28.900000 721.481040 722.452028 723.499157 723.634422 724.711280 726.847016
29.000000 723.456193 724.360746 725.513855 725.985671 727.591592 731.718982
29.100000 725.333610 726.358838 728.081064 728.859873 731.772701 735.553580
29.200000 727.185793 728.634394 731.412244 731.919718 735.497307 738.150990
29.300000 729.306860 731.887885 735.396364 735.219016 738.400870 740.064860
29.400000 732.279277 735.634194 738.824799 738.404469 740.851270 742.182200
29.500000 736.216487 739.519253 741.895400 741.384395 743.069367 743.917914
29.600000 740.822268 743.204806 744.263095 744.113048 745.136303 746.078360
29.700000 745.120678 745.883561 746.632102 746.687919 747.504438 748.576417
29.800000 746.858961 747.863429 748.730124 748.793490 749.757944 750.929372
29.900000 748.940085 749.829178 750.766634 750.812613 751.833274 752.993760
30.000000 750.681034 751.747648 752.717014 752.753203 753.777717 754.925674
30.100000 752.669181 753.785242 754.721226 754.708733 755.688070 756.694839
30.200000 754.939111 755.925870 756.864929 756.925240 757.852209 759.350972
30.300000 757.203514 758.117286 759.377960 759.691821 761.241764 764.245061
30.400000 759.581376 761.050664 763.427879 763.794046 766.595691 769.376754
30.500000 762.490963 765.232884 768.801094 768.470079 771.278714 773.924901
30.600000 770.739306 772.414340 774.169172 774.375211 776.647583 778.790202
30.700000 773.945140 775.564682 777.407050 777.564445 779.686129 781.892972
30.800000 776.176578 778.037752 780.190147 780.223568 782.345933 784.832758
30.900000 778.045743 780.149238 782.364543 782.609994 784.999280 788.487617
31.033333 780.905434 783.112427 785.303431 786.068727 788.647792 796.210471
31.166667 783.886070 786.236278 788.067909 789.461553 791.853205 804.806307
31.300000 788.208942 789.975124 791.085561 793.084106 796.749607 812.267769
31.400000 790.668046 792.646521 795.354700 797.322295 802.282823 816.503944
31.500000 792.967008 796.380051 801.507555 801.899240 805.572813 820.688409
31.600000 795.953978 802.517681 805.912802 806.169076 808.486981 823.787720
31.700000 802.234781 805.980754 808.217940 809.065428 810.348641 826.017521
31.800000 806.761518 808.923561 810.454994 811.602699 812.309248 827.698158
31.900000 810.015893 811.617554 812.964689 814.159246 814.721525 829.586990
32.000000 812.707144 814.132206 815.562735 816.774804 817.530132 831.474243
32.100000 814.990364 816.336193 817.990936 819.406337 821.396371 833.479456
32.200000 817.029048 818.733638 821.061499 822.337967 824.764921 835.341709
32.300000 819.720685 822.323882 824.788307 825.787248 828.729284 837.317787
32.400000 823.691962 825.741727 828.472854 829.138870 831.815803 839.369448
32.500000 825.872820 829.008238 831.884232 832.359178 835.736636 841.370604
32.600000 828.332638 831.455803 834.911875 835.209748 839.026682 843.179170
32.700000 830.831403 833.960651 837.938596 838.088587 842.300762 845.601965
32.800000 833.133503 836.568537 841.215403 841.025014 845.070966 848.222077
32.900000 835.509977 839.396917 845.114020 844.416509 848.592721 851.763925
33.000000 838.415554 842.360222 849.798214 847.994108 852.468194 854.907275
33.100000 841.473596 845.975806 853.215572 852.399586 856.344440 860.436627
33.200000 848.449659 856.591234 860.276852 859.630988 863.068076 865.246143
33.300000 865.673663 867.242700 868.873693 868.786949 870.312368 871.713448
33.400000 868.468579 869.880081 871.455478 871.460804 872.978163 874.487967
33.500000 870.780133 872.163644 873.726845 873.682215 875.113662 876.911991
33.600000 872.482665 874.195381 875.680136 875.742239 877.332553 879.187201
33.700000 874.327626 876.065330 877.798543 877.846506 879.593964 881.660452
33.800000 876.282063 878.204280 880.093675 880.142977 882.211081 884.498572
33.900000 878.279446 880.324838 882.567739 882.636358 884.907011 887.407677
34.000000 880.567204 882.546402 885.382928 885.272186 887.855889 890.045857
34.100000 882.896478 885.254743 888.449208 888.094878 890.653388 892.434641
34.200000 885.702049 888.811385 891.534023 891.197066 893.403563 895.146822
34.300000 889.279028 893.108828 895.041213 894.953947 896.854881 899.081091
34.400000 894.364064 896.563274 898.562409 899.073512 901.614694 906.907938
34.500000 897.864806 899.841486 903.089752 903.442468 907.212659 910.784264
34.600000 900.753733 903.462665 908.034546 907.811751 911.932006 914.041102
34.700000 904.077528 908.538609 913.402397 912.389167 915.606869 916.810351
34.800000 908.832585 915.836436 917.511342 916.935992 918.572074 919.616534
34.900000 918.546344 919.401816 920.368820 920.416410 921.447683 922.619694
35.000000 920.620280 921.684964 922.873236 922.858277 923.980070 925.091041
35.100000 923.109250 924.271737 925.379886 925.466983 926.624663 928.102310
35.200000 925.733362 927.098835 928.403641 928.564603 930.102120 931.955946
35.300000 928.597065 930.016007 931.627949 931.628999 933.179620 935.255746
35.400000 931.879687 933.687615 935.210682 935.335044 937.106046 938.888850
35.500000 935.114662 936.934145 938.948714 938.973441 941.012034 942.792453
35.600000 938.540840 940.687833 942.963609 942.715860 944.576777 946.078283
35.700000 943.657700 945.344541 946.707204 946.954924 948.620865 951.395114
35.800000 946.937773 948.596919 950.540372 950.611303 952.641121 954.697881
35.900000 949.900455 952.371136 954.689367 954.356291 956.186716 957.243586
36.000000 954.550642 957.788230 958.751604 958.569830 959.510460 960.826397
36.100000 961.241396 962.154813 963.550629 963.595068 965.044318 966.519693
36.200000 964.815819 966.535438 967.931944 967.950556 969.379526 970.793838
36.300000 968.237985 969.603277 971.354902 971.424106 973.171763 975.128336
36.400000 971.019279 972.942689 975.235283 975.095230 977.117575 978.687529
36.500000 973.996093 976.822810 978.821169 978.534891 980.179771 981.443539
36.600000 977.016306 980.563411 981.919025 981.696697 982.873032 984.523705
36.700000 981.609981 983.271156 984.558436 984.545566 985.837962 987.655753
36.800000 984.724625 986.109002 987.379512 987.417935 988.643780 990.376908
36.900000 987.926752 989.493755 991.048720 991.225936 992.913194 995.730494
37.000000 990.860213 992.587498 994.854580 994.863054 997.151022 999.053804
37.100000 993.484598 995.883319 999.380651 998.802995 1000.944168 1001.936982
37.200000 996.800658 1002.058022 1004.847215 1004.846107 1008.151848 1011.979777
37.300000 999.831591 1006.807358 1009.941547 1009.828814 1013.665289 1016.737931
37.400000 1004.935690 1010.335295 1013.779773 1013.694940 1017.470457 1019.857595
37.500000 1010.698876 1013.885352 1018.286999 1017.616113 1020.727374 1022.911308
37.600000 1014.706038 1018.254107 1022.141333 1021.591658 1024.261733 1026.000688
37.700000 1019.203268 1023.010663 1025.577604 1025.212192 1027.442510 1028.807511
37.800000 1024.101352 1027.140237 1029.009326 1028.732409 1030.502733 1031.716964
37.900000 1029.723836 1031.221436 1032.677149 1032.819899 1034.220276 1037.153733
38.000000 1032.966101 1034.328165 1036.119893 1036.546481 1038.884385 1042.102215
38.100000 1035.092583 1036.473572 1039.313976 1039.670997 1042.776516 1046.241459
38.200000 1037.689570 1039.303718 1042.673560 1042.802153 1046.138357 1049.527619
38.300000 1040.137779 1042.509045 1046.028725 1046.042353 1049.552160 1052.447216
38.400000 1042.603645 1045.773698 1049.419526 1049.239566 1052.743832 1054.834682
38.500000 1045.948556 1049.283323 1053.104491 1052.664169 1055.887229 1057.668199
38.600000 1050.105047 1053.965150 1056.965751 1056.558874 1058.985439 1060.910177
38.700000 1056.100206 1058.642346 1060.373157 1060.360625 1062.126924 1064.066511
38.800000 1060.044373 1061.450255 1062.995382 1063.241261 1065.002260 1068.035008
38.900000 1062.896199 1064.250227 1065.998746 1066.530257 1069.085677 1072.320885
39.000000 1065.437615 1067.180189 1069.819144 1070.043916 1072.925517 1075.803807
39.100000 1068.444637 1071.108872 1074.009335 1073.884244 1076.383557 1079.220187
39.200000 1072.647735 1076.619226 1078.580519 1078.566339 1080.868960 1083.272573
39.300000 1077.193750 1079.939917 1081.950009 1081.922055 1084.056640 1086.068666
39.400000 1081.116105 1083.014735 1085.028320 1085.023207 1087.073876 1088.839355
39.500000 1083.992487 1085.775113 1087.789534 1087.765085 1089.627426 1091.756716
39.600000 1086.467365 1088.387187 1090.228027 1090.190002 1092.082919 1093.760564
39.700000 1088.991033 1090.560345 1092.362777 1092.352284 1094.191817 1095.996268
39.800000 1090.977961 1092.653643 1094.352397 1094.406578 1096.254269 1098.031092
39.900000 1093.186420 1094.788640 1096.351243 1096.433859 1098.112561 1099.966749
40.000000 1095.468173 1097.061763 1098.567398 1098.596842 1100.164561 1101.730810
40.100000 1097.726275 1099.375230 1100.857748 1100.814403 1102.257482 1103.486631
40.200000 1100.590476 1101.979771 1103.240823 1103.297918 1104.642957 1106.499567
40.300000 1104.290306 1105.658537 1107.487604 1107.606956 1109.676821 1111.396488
40.400000 1107.898887 1110.901610 1112.723781 1112.666306 1114.463413 1116.484973
40.500000 1114.441719 1116.134545 1117.820300 1117.813186 1119.486797 1120.857630
40.600000 1118.328452 1120.356675 1121.554929 1121.526115 1122.613284 1124.792221
40.700000 1122.455388 1123.315949 1124.404583 1124.575072 1125.819363 1127.771604
40.800000 1124.837350 1125.901676 1127.324327 1127.532456 1129.123978 1131.729844
40.900000 1127.284242 1128.612077 1130.373644 1130.751266 1133.176230 1136.075873
41.000000 1130.317729 1131.816869 1134.152891 1134.607943 1137.607246 1140.521988
41.100000 1132.816113 1134.869060 1137.553848 1138.003018 1141.700408 1144.319230
41.200000 1135.875286 1138.298738 1141.256463 1141.775920 1145.688982 1149.260602
41.300000 1138.540686 1141.874080 1146.209215 1145.959661 1150.101016 1153.611341
41.400000 1143.887772 1147.298132 1151.958439 1151.656181 1155.478763 1159.352031
41.500000 1148.730318 1153.540916 1157.631649 1157.498767 1161.555838 1165.176612
41.600000 1154.091363 1158.198598 1162.156256 1162.026362 1165.964704 1168.926399
41.700000 1157.643970 1161.630908 1166.380815 1165.687292 1169.273389 1171.816515
41.800000 1160.530051 1165.108534 1169.810443 1169.002324 1172.261296 1174.406318
41.900000 1163.024644 1168.565869 1172.791760 1172.010371 1175.123086 1177.307892
42.000000 1165.631781 1171.718491 1175.339813 1174.710181 1177.891083 1179.921715
42.100000 1168.475557 1174.305498 1177.769733 1177.295708 1180.539448 1182.402415
42.200000 1171.741495 1176.997563 1180.295261 1179.836114 1182.935393 1184.730079
42.300000 1174.829787 1179.837150 1182.953689 1182.503719 1185.308765 1186.844304
42.400000 1178.807340 1183.021648 1185.743363 1185.309051 1187.603469 1188.745596
42.500000 1183.715197 1187.111190 1188.957292 1188.543556 1190.093493 1190.897033
42.600000 1190.909906 1191.839602 1192.768967 1192.843422 1193.909392 1195.236428
42.700000 1193.311585 1194.333834 1195.419530 1195.526784 1196.617037 1198.268881
42.800000 1195.598705 1196.698815 1197.967957 1198.036645 1199.280927 1201.207110
42.900000 1197.652453 1198.908286 1200.237794 1200.358820 1201.798478 1203.837939
43.000000 1199.831342 1201.129851 1202.633500 1202.674419 1204.158955 1205.865123
43.100000 1202.054054 1203.575819 1205.115684 1205.089743 1206.524077 1208.147775
43.200000 1204.802830 1206.208295 1207.673458 1207.622345 1208.990230 1210.498658
43.300000 1207.807340 1209.091108 1210.436757 1210.596558 1212.198430 1214.297405
43.338000 1208.806726 1210.157221 1211.584130 1211.805683 1213.608783 1215.668949
43.400000 1210.483893 1211.674182 1213.424374 1213.642162 1215.677992 1217.668697
43.500000 1212.860805 1214.358226 1216.288433 1216.361064 1218.438995 1220.204346
43.600000 1215.326838 1217.239587 1219.270509 1219.168458 1221.049454 1222.568062
43.700000 1218.186830 1220.427764 1222.330998 1222.169729 1223.827709 1225.689136
43.800000 1221.166783 1223.276270 1224.786125 1224.894012 1226.629833 1228.979769
43.900000 1224.433889 1225.846015 1227.201074 1227.599003 1229.441660 1232.869188
44.000000 1227.747651 1228.859317 1230.805397 1231.274111 1234.049356 1236.475316
44.100000 1230.224852 1231.894794 1234.812227 1234.808844 1237.557793 1239.077697
44.200000 1232.970482 1235.839234 1239.123568 1238.395219 1240.353887 1241.309264
44.300000 1235.998373 1241.115850 1242.417301 1241.907950 1243.069884 1243.791106
44.400000 1243.986584 1244.797566 1245.739007 1246.665390 1247.659232 1255.700077
44.500000 1246.288899 1247.666617 1250.436327 1251.243270 1255.383009 1259.506069
44.600000 1249.281975 1251.602199 1255.521153 1255.652766 1259.447684 1263.027626
44.700000 1253.876214 1256.825848 1260.275676 1259.971474 1262.662099 1266.939259
44.800000 1257.613189 1261.613905 1264.436478 1264.287992 1266.844823 1270.620295
44.900000 1260.495657 1264.530007 1267.233458 1267.456430 1270.760595 1274.510051
45.000000 1264.393034 1267.645861 1270.106218 1270.512918 1274.012425 1277.254544
45.100000 1267.547761 1270.587594 1273.802296 1273.839330 1277.431666 1279.567173
45.200000 1271.125815 1273.885348 1277.520827 1277.159295 1280.168145 1282.046263
45.300000 1274.582926 1277.759509 1281.055640 1280.444278 1282.783507 1284.127115
45.400000 1278.267057 1282.215945 1284.103155 1283.790505 1285.427537 1286.656857
45.500000 1283.292891 1285.237722 1286.566583 1286.587639 1287.834997 1289.761145
45.600000 1286.717320 1288.313379 1289.462998 1289.652787 1291.050689 1293.064659
45.700000 1289.184146 1290.709827 1292.418195 1292.646840 1294.470289 1297.644928
45.800000 1291.666683 1293.506160 1295.381327 1295.621692 1298.005604 1300.557744
45.900000 1293.775445 1296.049510 1298.350503 1298.580168 1301.164967 1304.146653
46.000000 1296.496758 1298.901607 1301.276148 1301.481908 1304.019470 1307.288524
46.100000 1299.865523 1301.850268 1304.433843 1304.664161 1307.535390 1309.801468
46.200000 1303.220007 1305.077154 1308.358788 1308.257418 1310.788609 1315.563649
46.300000 1306.647897 1309.725883 1311.997621 1312.242586 1314.890672 1318.837589
46.400000 1311.079168 1313.330753 1315.949018 1316.390579 1319.823191 1322.808182
46.500000 1316.107729 1319.413527 1322.787213 1322.743694 1325.945577 1328.870455
46.600000 1320.840153 1323.594748 1326.325096 1326.364483 1329.229359 1332.164272
46.700000 1324.048305 1326.317627 1329.114296 1329.207750 1331.952337 1335.211484
46.800000 1326.481397 1329.007296 1331.845780 1331.900694 1334.646454 1338.351887
46.925000 1329.131136 1332.290285 1335.267051 1335.270837 1337.996772 1342.275680
47.050000 1332.572143 1335.677477 1338.510165 1338.520482 1341.328861 1345.552034
47.175000 1336.480621 1339.340840 1341.730631 1341.888665 1344.337099 1348.902903
47.300000 1341.949809 1343.548233 1345.283849 1345.637756 1347.469466 1351.692275
47.400000 1346.281685 1347.675125 1349.504199 1349.874095 1352.373086 1354.275093
47.500000 1349.228238 1350.982206 1353.892323 1353.541434 1355.793976 1357.352050
47.600000 1352.347177 1354.767917 1357.317631 1356.981382 1358.870110 1360.327693
47.700000 1357.006253 1359.082613 1360.544042 1360.604677 1362.231287 1363.951602
47.800000 1360.980650 1362.447394 1364.036681 1364.132930 1365.903225 1367.705177
47.900000 1363.613123 1365.101472 1366.695252 1366.763976 1368.427626 1370.248755
48.000000 1366.237045 1367.497837 1369.166182 1369.222222 1370.862932 1372.637255
48.100000 1368.597600 1369.960200 1371.653392 1371.737764 1373.367516 1375.660749
48.200000 1370.814717 1372.443249 1374.164529 1374.265097 1375.872537 1379.516996
48.300000 1373.772609 1375.521873 1377.031763 1377.172614 1378.483901 1382.832870
48.400000 1378.880340 1380.281918 1382.471441 1382.603410 1385.075525 1387.014502
48.500000 1382.534255 1385.291721 1387.448681 1387.298921 1389.305002 1391.169691
48.600000 1387.713409 1389.275541 1391.151688 1391.203124 1393.171022 1395.188112
48.700000 1390.481672 1391.987658 1393.961554 1394.001209 1395.986737 1397.658399
48.800000 1392.486151 1394.450766 1396.621312 1396.529296 1398.593820 1400.115141
48.900000 1395.185145 1397.229777 1399.270839 1399.116813 1401.006044 1402.492127
49.000000 1398.486269 1400.464116 1402.228050 1402.073105 1403.673127 1405.043152
49.100000 1402.629234 1404.163445 1405.464783 1405.538891 1406.962312 1408.675636
49.200000 1405.614685 1406.859262 1408.343872 1408.458423 1409.965644 1412.006576
49.300000 1408.345675 1409.770144 1411.536765 1411.601362 1413.402909 1415.299459
49.400000 1410.911982 1412.742691 1414.915456 1414.994801 1416.987931 1420.703026
49.500000 1415.051557 1416.810853 1418.828360 1419.295597 1422.364729 1425.067396
49.600000 1417.794909 1419.945053 1422.594033 1422.848471 1426.004016 1427.969170
49.700000 1421.507766 1424.319485 1427.516143 1427.117233 1429.615673 1431.573085
49.800000 1426.456484 1429.481835 1431.655426 1431.887017 1434.324674 1438.098267
49.900000 1430.957527 1432.980951 1435.868392 1436.063353 1439.402531 1441.746263
50.000000 1433.565078 1436.045994 1440.114317 1439.615564 1442.727824 1444.416600
50.100000 1436.496083 1439.203561 1443.671982 1442.837782 1445.481902 1446.710783
50.200000 1438.881365 1443.370858 1446.180720 1445.549497 1447.601244 1448.476092
50.300000 1442.746788 1446.454427 1448.347137 1447.909418 1449.482754 1450.255744
50.400000 1446.876005 1449.220032 1450.484200 1450.324507 1451.548380 1452.651732
50.500000 1451.000203 1451.854594 1452.584562 1452.685704 1453.546476 1454.812155
50.600000 1453.086485 1454.108267 1455.206481 1455.273579 1456.373949 1457.986718
50.700000 1455.175857 1456.428252 1457.725387 1457.768652 1459.148563 1460.485461
50.800000 1457.647614 1459.053636 1460.297934 1460.334499 1461.712544 1462.948179
50.900000 1460.135740 1461.508316 1462.825595 1462.848968 1464.145145 1465.658135
51.000000 1462.756187 1463.984579 1465.513881 1465.533491 1467.052366 1468.696749
51.100000 1465.694917 1467.177348 1468.856164 1468.950817 1470.640493 1472.836919
51.200000 1469.292480 1470.904638 1473.039848 1473.447606 1475.949103 1479.642730
51.300000 1472.064890 1473.776308 1476.443384 1476.961320 1480.507508 1483.963844
51.400000 1474.503933 1476.313616 1479.689582 1479.981142 1483.812712 1486.429484
51.500000 1476.540885 1478.880093 1483.338079 1482.947114 1486.648581 1488.787293
51.600000 1479.042310 1481.590419 1486.583889 1485.876856 1489.642512 1491.170664
51.740000 1482.388477 1486.454684 1491.383610 1491.278526 1495.691294 1500.962038
51.880000 1486.252011 1491.604797 1496.243587 1496.652811 1502.265714 1507.405316
52.020000 1491.151603 1497.034983 1502.607101 1502.328040 1507.886985 1511.922158
52.160000 1497.352991 1503.927083 1508.541241 1508.069693 1512.420257 1515.738549
52.300000 1508.195377 1510.564329 1513.264506 1513.394148 1516.317596 1518.736931
52.400000 1511.441309 1514.027924 1516.461374 1516.509715 1519.095493 1521.290163
52.500000 1514.304911 1517.092964 1519.409938 1519.402206 1521.792594 1524.029762
52.600000 1517.485314 1519.924251 1522.253753 1522.192548 1524.528886 1526.395675
52.700000 1520.681105 1522.946074 1525.239321 1525.112810 1527.316362 1528.951710
52.800000 1523.869011 1526.030606 1528.136867 1527.982332 1529.880090 1531.666478
52.900000 1527.206083 1529.336839 1531.151585 1531.037380 1532.682818 1534.689462
53.000000 1531.949941 1533.672795 1535.199249 1535.351862 1537.100858 1539.309851
53.100000 1535.367504 1537.372057 1539.165939 1539.069924 1540.805640 1542.216217
53.200000 1539.241594 1541.296810 1542.866750 1542.809152 1544.327978 1546.028891
53.300000 1542.289798 1543.917103 1545.646800 1545.615864 1547.249828 1549.031749
