depth(m) lower_95(kyr) lower_68(kyr) median(kyr) mean(kyr) upper_68(kyr) upper_95(kyr)
18.230000 690.565359 701.022060 703.142724 706.464993 723.537787 726.227311
18.280000 692.638614 702.437031 704.449496 707.882902 724.677281 727.324266
18.330000 695.245733 703.622613 705.701479 709.195324 725.828760 728.205226
18.380000 698.237909 704.703392 706.876572 710.446950 727.035635 729.337711
18.430000 701.962376 705.965599 708.010431 711.701595 728.108387 730.335523
18.480000 704.264586 707.235385 709.101498 712.886799 729.265272 731.346601
18.530000 706.141056 708.482954 710.220648 714.061864 730.295713 732.354846
18.580000 707.770115 709.825113 711.341928 715.258689 731.245840 733.377993
18.630000 709.692939 711.465419 712.660780 716.687316 732.352313 734.309587
18.680000 711.872623 713.271687 714.401576 718.596894 733.453748 735.397354
18.730000 713.777293 715.101209 718.342955 721.551061 734.516002 736.450816
18.780000 715.039699 716.893513 723.577606 724.521350 735.509598 737.480335
18.880000 722.007664 724.375438 728.393631 729.670855 737.440247 739.441911
18.930000 724.868646 727.035490 731.143861 732.027429 738.530801 740.415220
18.980000 727.031248 729.594292 733.692680 734.234171 739.802570 741.233174
19.030000 729.378525 732.510924 736.646230 736.585607 741.040361 742.418092
19.080000 732.481663 736.092741 739.668661 739.267534 742.300557 743.629016
19.130000 736.534236 739.695115 742.302525 741.963752 744.026889 745.508868
19.180000 743.035509 744.839067 746.281371 746.458394 748.208808 750.676635
19.230000 745.801036 747.437341 749.324270 749.546883 751.596394 754.552841
19.280000 748.845592 750.940281 753.390665 753.488547 756.011874 758.817300
19.330000 753.838105 757.357220 760.072328 759.898372 762.430815 765.147735
19.380000 758.052777 760.310450 762.878788 762.996001 765.863764 768.086185
19.430000 760.266236 762.807123 765.825721 765.796289 768.870495 770.428247
19.480000 762.923313 765.707606 769.303696 768.735442 771.380667 772.905118
19.530000 765.358545 768.323645 771.437877 770.914248 773.130542 774.459069
19.580000 768.044665 770.710423 773.121504 772.746326 774.567096 775.719057
19.630000 771.408205 773.031556 774.769515 774.562870 776.004957 776.887601
19.660000 772.531441 774.237607 775.772284 775.549589 776.823477 777.729360
19.680000 773.239783 774.974959 776.347680 776.168610 777.324238 778.229418
19.730000 774.831973 776.339882 777.546333 777.430624 778.489740 779.369556
19.780000 776.096188 777.602270 778.671630 778.568549 779.607740 780.532839
19.830000 777.432546 778.690943 779.700574 779.637574 780.600886 781.567553
19.880000 778.482401 779.756581 780.765715 780.682969 781.592080 782.497646
19.930000 779.638429 780.872615 781.771123 781.722850 782.620598 783.364382
19.980000 780.617436 781.890195 782.813189 782.734852 783.603736 784.413217
20.030000 781.688748 782.879069 783.779613 783.718452 784.551899 785.297540
20.080000 782.731593 783.834676 784.730456 784.675154 785.522231 786.228444
20.130000 783.881775 784.907120 785.729296 785.657601 786.448942 787.106104
20.180000 785.124157 785.926974 786.699857 786.653754 787.390765 788.107947
20.230000 786.143008 787.040422 787.783467 787.759952 788.507583 789.167088
20.330000 789.199754 789.896093 790.642937 790.667994 791.423513 792.175489
20.430000 792.686571 793.504715 794.508026 794.717288 795.984781 797.857682
20.530000 795.205975 796.726297 798.646805 798.748103 800.775576 803.132982
20.580000 797.579222 799.811575 802.118342 802.012437 804.130046 805.977346
20.630000 801.336571 803.760310 805.814085 805.832644 807.905682 810.256564
20.680000 804.540263 806.611009 808.948252 809.031473 811.533560 814.223435
20.730000 810.944886 813.048538 815.223788 815.050842 816.946178 818.579198
20.780000 814.354222 816.034606 817.441597 817.466366 819.034748 820.406622
20.830000 816.230474 817.588505 818.907263 818.963162 820.366879 821.752047
20.930000 818.790362 819.995853 821.274497 821.342624 822.726240 824.051826
20.980000 819.947897 821.184078 822.559920 822.638047 824.099886 825.432487
21.030000 821.014073 822.350141 823.954262 824.149014 826.103230 827.771081
21.080000 822.173093 823.494970 824.980381 825.428397 827.697847 829.679957
21.130000 823.174980 824.612365 826.363167 826.692541 829.034456 831.092331
21.180000 824.331823 825.935357 827.901888 828.061801 830.304831 832.475895
21.230000 825.420184 827.182231 829.417455 829.441943 831.568058 833.666801
21.280000 826.663288 828.440099 830.670279 830.700830 832.784209 834.847881
21.330000 827.957381 829.748357 831.932972 831.978166 834.198978 836.088450
21.380000 829.687069 831.186544 833.301619 833.348664 835.413302 837.450810
21.480000 832.132928 833.895454 835.787232 835.881045 837.920170 839.808597
21.530000 833.237485 835.260091 837.247472 837.257682 839.289621 840.954364
21.580000 835.025778 836.801468 838.660130 838.705237 840.740578 842.307311
21.630000 836.844060 838.466107 840.119600 840.209569 842.158030 843.549512
21.680000 838.529280 840.093569 841.979339 841.887657 843.659830 844.911507
21.730000 840.634629 842.060673 843.983335 843.782043 845.277065 846.569943
21.780000 842.367528 843.944755 845.450279 845.350536 846.718951 847.965556
21.830000 843.923407 845.392755 846.714077 846.646083 847.826720 849.136675
21.880000 845.202819 846.674809 847.870573 847.809399 848.851717 850.237468
21.930000 846.507835 847.780908 848.831124 848.891666 849.936010 851.588921
21.980000 847.728919 848.802090 849.904545 850.057655 851.267626 853.629590
22.030000 848.845509 849.888125 851.155704 851.354733 852.962668 854.882492
22.080000 850.261284 851.423680 852.835930 852.946541 854.452615 856.088238
22.130000 851.651390 853.125114 854.547745 854.544105 856.003870 857.474370
22.180000 852.938746 854.523354 855.886204 855.863746 857.211286 858.484950
22.230000 854.211153 855.700893 857.097794 857.018189 858.354196 859.565061
22.280000 855.292127 856.785241 858.275676 858.146952 859.425902 860.641026
22.330000 856.437625 857.885876 859.342166 859.256219 860.489511 861.759134
22.380000 857.799578 859.199648 860.520564 860.446595 861.645491 862.846770
22.430000 858.985526 860.534082 861.779581 861.713025 862.878709 863.923765
22.480000 860.705443 862.276075 863.388541 863.327623 864.364818 865.620227
22.580000 866.472481 869.308101 873.415741 873.380250 876.706873 882.020094
22.630000 868.052087 871.610429 876.277253 876.444427 881.080958 887.139559
22.680000 871.883557 874.817317 878.463304 879.049971 883.735634 889.555383
22.730000 875.232095 878.388302 881.178363 882.155142 886.529434 892.210279
22.780000 878.133677 881.156068 884.152748 885.211732 890.651436 894.868617
22.830000 880.895797 883.361183 886.958553 887.911531 893.558054 896.578428
22.880000 882.906614 885.599268 889.750540 890.314284 895.368398 898.095677
22.930000 884.944486 887.489173 892.506276 892.276720 896.924351 899.384729
22.980000 886.525429 889.390888 894.786863 894.250060 898.620793 901.224610
23.030000 888.663874 891.292113 896.782058 896.228348 900.633137 903.237919
23.080000 890.154888 894.047764 900.385922 899.191839 903.075083 905.462069
23.180000 893.516422 897.219244 904.420584 903.035310 907.060373 908.485994
23.230000 895.790363 899.671692 906.577120 905.100066 908.654769 909.856914
23.280000 898.005821 902.920447 908.297050 907.090756 910.106583 911.239721
23.330000 900.400301 906.119025 909.974564 908.987282 911.520403 912.739771
23.380000 902.893825 908.925010 911.590338 910.907300 913.051409 914.150194
23.430000 906.606309 911.197249 913.099781 912.671322 914.452312 915.543051
23.480000 910.096643 912.984051 914.732491 914.437235 915.970876 917.100121
23.530000 913.191082 914.981222 916.606622 916.641174 918.132351 920.685794
23.580000 917.448824 919.046847 920.745790 920.844553 922.654193 925.122317
23.680000 924.053519 926.056451 927.825510 927.972622 929.863353 933.251650
23.730000 926.614699 928.207052 930.024981 930.144593 931.968128 935.073253
23.780000 928.631484 930.254884 931.977661 932.086616 933.853842 936.663958
23.830000 930.538718 932.422080 934.291434 934.363669 936.369594 938.561478
23.880000 933.201100 935.129848 937.126026 937.255989 939.447773 941.507676
23.930000 935.347613 937.566402 939.853839 939.745073 941.944828 943.667405
23.980000 937.837524 939.999499 942.345266 942.139326 944.171663 945.723058
24.030000 940.459064 942.624782 944.668963 944.447489 946.190571 947.604735
24.080000 943.112909 945.042583 946.539310 946.467656 947.881603 949.607679
24.130000 945.603234 947.039540 948.341411 948.318072 949.560994 950.940871
24.180000 947.359827 948.660856 949.881243 949.867864 951.117051 952.255435
24.230000 948.876134 950.109113 951.295288 951.256664 952.431487 953.532048
24.280000 950.269425 951.413312 952.591857 952.580400 953.761179 954.715391
24.330000 951.442663 952.729851 953.906768 953.873879 955.052337 955.818325
24.380000 952.797173 954.080532 955.172791 955.110781 956.120169 956.919026
24.430000 954.364708 955.394435 956.444746 956.361018 957.318851 957.960894
24.480000 956.047296 956.913424 957.847208 957.793691 958.647306 959.365512
24.530000 959.024737 959.762175 960.441371 960.521276 961.294665 962.430457
24.580000 960.711974 961.515328 962.367722 962.414967 963.315680 964.399151
24.630000 962.053596 962.917515 963.908286 963.969871 965.053909 966.309719
24.680000 963.249031 964.316570 965.485269 965.508034 966.663392 968.103158
24.730000 964.931103 966.162430 967.359023 967.434502 968.648588 970.788555
24.780000 967.066053 968.315689 969.822642 970.035511 971.829230 974.254010
24.830000 969.434079 971.072989 973.133409 973.203431 975.370695 977.228870
24.880000 971.549447 973.667304 975.706749 975.638010 977.496592 979.108292
24.930000 974.132618 976.567517 978.208914 978.050750 979.548405 980.845013
24.980000 976.563037 979.061320 980.469969 980.614539 981.891817 985.887748
25.030000 978.935331 981.603896 983.619441 984.386540 988.327972 991.604985
25.080000 981.120689 983.872118 988.542322 988.307366 992.586114 995.946749
25.130000 983.478069 987.452663 991.690162 991.736828 996.590769 999.810019
25.180000 985.941370 993.358034 997.482414 996.867023 1000.490371 1001.710892
25.230000 987.559178 1000.506403 1002.191618 1001.411005 1003.321784 1004.667797
25.280000 988.579317 1002.889142 1004.090226 1003.607667 1005.250919 1006.644607
25.330000 990.961812 1004.462167 1005.649653 1005.250606 1006.889825 1008.444256
25.380000 1000.143682 1005.941903 1007.071370 1006.755721 1008.384027 1009.979217
25.430000 1002.645135 1007.227344 1008.404126 1008.186450 1009.826762 1011.556595
25.480000 1005.846216 1008.590220 1009.790456 1009.630344 1011.271219 1013.309298
25.530000 1007.744622 1009.993901 1011.217288 1011.161981 1012.772956 1015.535930
25.580000 1009.378089 1011.430199 1012.704997 1012.792771 1014.495047 1018.508822
25.630000 1011.081825 1012.883480 1014.149358 1014.582505 1017.516620 1020.888619
25.680000 1012.776230 1014.406339 1015.697522 1016.559328 1020.786279 1023.973730
25.730000 1014.132777 1015.874232 1017.267330 1018.500184 1023.545236 1026.501540
25.780000 1015.837793 1017.273342 1019.005197 1020.369136 1025.727234 1028.740373
25.830000 1017.337951 1018.970913 1021.070722 1022.446225 1027.712192 1030.270234
25.930000 1022.383274 1025.468237 1028.764422 1028.334078 1030.883527 1032.437137
25.980000 1028.317434 1030.420398 1031.670688 1031.568036 1032.862040 1034.154439
26.030000 1030.869736 1032.123729 1033.190492 1033.157329 1034.282552 1035.534178
26.080000 1032.416106 1033.484819 1034.434093 1034.489438 1035.562369 1037.064470
26.130000 1033.633101 1034.631778 1035.593440 1035.661866 1036.761657 1038.341267
26.180000 1034.764743 1035.727955 1036.681249 1036.768782 1037.893661 1039.600543
26.230000 1035.789520 1036.822828 1037.790924 1037.868549 1039.008581 1040.951925
26.280000 1036.663341 1037.800485 1038.838647 1038.950092 1040.097545 1042.237268
26.330000 1037.805377 1038.865947 1039.940274 1040.047593 1041.251427 1043.368160
26.380000 1038.741440 1039.917902 1041.008814 1041.168325 1042.418059 1044.506229
26.430000 1039.897691 1041.007824 1042.173053 1042.305493 1043.491847 1045.808238
26.480000 1041.012927 1042.073002 1043.293732 1043.422279 1044.742210 1046.872063
26.530000 1042.037693 1043.174566 1044.410434 1044.559449 1045.926505 1048.023846
26.580000 1043.204399 1044.289965 1045.572905 1045.722220 1047.130818 1049.411734
26.630000 1044.406945 1045.487187 1046.763455 1046.913539 1048.315177 1050.580069
26.730000 1046.316123 1047.499723 1048.905561 1049.034695 1050.518387 1052.756551
26.780000 1047.444803 1048.695274 1050.173179 1050.270876 1051.826208 1054.012083
26.830000 1048.571586 1049.910222 1051.398259 1051.518143 1053.209769 1055.091696
26.880000 1049.770386 1051.125302 1052.589758 1052.717029 1054.374621 1056.355286
26.930000 1050.831320 1052.386448 1053.900773 1054.005099 1055.640150 1057.575856
26.980000 1052.136006 1053.692301 1055.410261 1055.484251 1057.326506 1059.458557
27.030000 1053.126072 1054.983651 1057.145269 1057.662942 1060.435483 1064.818760
27.130000 1055.703387 1057.381670 1083.534174 1075.113072 1089.019354 1093.792088
27.180000 1057.298397 1059.384094 1090.133943 1079.824220 1095.305223 1097.038469
27.280000 1081.752203 1086.742148 1096.764500 1093.780855 1098.711846 1099.923703
27.330000 1086.166900 1091.434128 1098.901491 1097.155992 1100.360790 1101.885325
27.380000 1088.683491 1094.047751 1100.847981 1099.938245 1102.987595 1111.770992
27.430000 1090.510444 1097.546967 1102.511089 1102.811811 1109.701431 1114.754216
27.480000 1091.957125 1101.455628 1104.399165 1106.006607 1113.957784 1116.664826
27.530000 1093.385757 1104.671845 1112.498810 1110.466223 1115.839810 1118.289743
27.580000 1094.719744 1113.552311 1116.149606 1114.592896 1118.366481 1120.093534
27.630000 1096.040378 1117.247713 1119.461588 1117.777496 1120.920904 1122.868826
27.680000 1097.461869 1121.482157 1123.273942 1121.879133 1125.829490 1128.251176
27.730000 1098.744016 1124.340615 1126.999959 1125.010837 1129.025394 1131.304932
27.780000 1100.067334 1127.261652 1129.689969 1127.738436 1131.974004 1134.171498
27.830000 1101.896454 1129.566740 1132.068088 1130.140610 1134.604398 1136.685917
27.880000 1107.053854 1131.549171 1134.389641 1132.651282 1137.031017 1138.887678
27.930000 1112.766058 1133.188832 1136.196445 1134.761085 1138.667201 1140.592731
27.980000 1115.414983 1134.870706 1138.102624 1136.691418 1140.384108 1142.264582
28.030000 1120.550940 1136.460211 1139.712652 1138.679358 1142.019057 1143.773136
28.080000 1131.060719 1137.976564 1141.246059 1140.610483 1143.711835 1145.323003
28.150000 1135.440462 1140.089242 1143.245540 1142.904997 1145.833518 1147.415886
28.200000 1137.323924 1141.820123 1144.780335 1144.509876 1147.351515 1148.926957
28.250000 1139.054029 1143.428264 1146.324345 1146.056472 1148.813025 1150.539389
28.300000 1140.585218 1145.053685 1147.863256 1147.544894 1150.376575 1152.042922
28.350000 1142.426991 1146.557864 1149.424630 1149.068570 1151.786959 1153.438150
28.400000 1143.953136 1148.140013 1150.975275 1150.613194 1153.237959 1154.973256
28.450000 1145.880448 1149.677432 1152.567645 1152.202421 1154.707336 1156.473939
28.500000 1147.745427 1151.480572 1154.187863 1153.885507 1156.272784 1158.383443
28.550000 1150.190874 1153.269858 1155.902859 1155.830699 1158.147100 1161.316241
28.600000 1153.021654 1155.674322 1158.037389 1158.313035 1160.780995 1165.286499
28.650000 1155.147103 1158.387146 1160.930397 1161.405694 1164.491954 1170.430144
28.700000 1157.221788 1161.318831 1164.138858 1164.772516 1169.080645 1174.700252
28.750000 1160.615932 1165.144443 1168.356957 1168.521530 1172.233694 1177.712026
28.800000 1163.288123 1169.443712 1172.621579 1172.536674 1175.959890 1180.412869
28.850000 1168.507614 1172.723470 1175.594269 1175.746409 1179.295591 1182.478158
28.900000 1172.175550 1175.182978 1178.363025 1178.412871 1181.847362 1184.463610
28.950000 1174.599813 1177.741626 1180.845267 1180.800005 1183.854580 1186.615134
29.000000 1177.419728 1180.817144 1183.117226 1183.165992 1186.011033 1188.352073
29.050000 1180.721336 1183.408950 1185.551170 1185.630119 1188.112136 1190.187532
29.100000 1184.475337 1186.503787 1188.419878 1188.414904 1190.198155 1192.873123
29.150000 1192.298483 1193.939852 1198.312271 1198.987570 1204.455099 1206.789962
29.200000 1196.166386 1205.165800 1208.776355 1207.861726 1210.541151 1212.585338
29.250000 1208.772707 1211.293611 1213.021239 1213.167684 1215.207426 1218.303899
29.300000 1211.738303 1214.168199 1216.508507 1216.517549 1218.884595 1221.281269
29.400000 1217.287707 1219.834105 1222.152853 1222.170762 1224.665324 1226.427112
29.450000 1221.365843 1223.496142 1226.326462 1226.061881 1228.458209 1230.421294
29.500000 1224.089520 1226.116783 1228.443845 1228.389073 1230.576828 1233.039576
29.550000 1226.818883 1228.427032 1230.678746 1230.660329 1232.752774 1234.804195
29.600000 1229.127035 1231.067209 1233.081606 1232.989959 1234.915475 1236.523861
29.650000 1231.164666 1233.465298 1235.465326 1235.198934 1236.875061 1238.122012
29.700000 1233.298657 1235.844188 1237.637549 1237.328070 1238.755002 1239.706835
29.750000 1235.757342 1238.266322 1239.661476 1239.361841 1240.554113 1241.237612
29.800000 1238.155981 1240.443554 1241.502870 1241.281908 1242.205119 1242.785672
29.850000 1241.313986 1242.373999 1243.021891 1242.954030 1243.582356 1244.194122
29.900000 1243.056541 1243.731357 1244.357649 1244.346096 1244.997548 1245.755932
29.950000 1244.271829 1245.101351 1246.008245 1245.970823 1246.795673 1247.586107
30.000000 1246.419663 1247.190863 1248.004360 1248.025940 1248.876613 1249.700025
30.050000 1248.164322 1249.059682 1249.922958 1249.946138 1250.844496 1251.910362
30.100000 1249.961648 1250.886879 1251.942484 1252.079052 1253.261633 1254.779590
30.150000 1252.008327 1252.920214 1254.211312 1254.497724 1256.207071 1258.264236
30.200000 1253.976849 1255.146037 1257.351710 1257.496359 1259.809538 1262.126079
30.250000 1256.369011 1258.493425 1261.620516 1261.848455 1264.435392 1270.146673
30.300000 1259.151641 1263.713361 1267.209818 1268.488321 1274.620117 1282.052885
30.350000 1261.778950 1268.170228 1278.312219 1276.518155 1284.450759 1285.769086
30.400000 1265.262977 1280.939023 1285.523677 1283.461244 1287.055712 1288.235274
30.450000 1270.035443 1285.948895 1287.539287 1286.741396 1288.760262 1289.950318
30.500000 1284.642312 1287.932344 1289.187604 1288.876278 1290.299638 1291.688601
30.550000 1287.680255 1289.385703 1290.589112 1290.534282 1291.840203 1293.251797
30.600000 1289.308414 1290.769722 1292.157315 1292.130889 1293.562113 1295.087487
30.650000 1290.821494 1292.231000 1293.752524 1293.841227 1295.551496 1297.091902
30.700000 1292.486568 1294.039445 1295.852900 1295.795554 1297.592571 1298.891679
30.750000 1294.423649 1296.164639 1297.931700 1297.870233 1299.617306 1300.863872
30.800000 1296.917612 1298.568004 1300.416684 1300.346253 1301.942550 1303.670471
30.850000 1300.382500 1302.382114 1304.413127 1305.396068 1308.701857 1315.933207
30.900000 1302.749761 1305.074615 1308.619538 1310.111553 1316.377837 1320.522919
30.950000 1305.727458 1308.351952 1316.741956 1315.266867 1320.869740 1323.493691
31.000000 1309.216460 1316.706102 1321.099258 1320.206790 1323.887572 1326.117816
31.050000 1317.595073 1321.818675 1324.604026 1324.344068 1326.912170 1329.670056
31.100000 1323.200868 1325.803333 1328.124134 1328.187468 1330.658125 1333.046001
31.150000 1326.021086 1328.288584 1330.707752 1330.715778 1333.261945 1335.306171
31.200000 1327.927901 1330.310966 1332.961381 1332.898703 1335.495553 1337.606271
31.250000 1329.626574 1332.175780 1334.997512 1334.823917 1337.469273 1339.301738
31.300000 1331.208489 1333.898740 1336.934362 1336.698047 1339.383077 1341.110733
31.350000 1333.291929 1335.835737 1338.818256 1338.585292 1341.038367 1342.916401
31.400000 1335.311699 1338.262757 1340.836504 1340.567731 1342.775052 1344.498743
31.450000 1338.529341 1340.922771 1342.812256 1342.949945 1345.072008 1346.828614
