depth(m) lower_95(kyr) lower_68(kyr) median(kyr) mean(kyr) upper_68(kyr) upper_95(kyr)
179.590000 1388.455836 1390.063418 1392.189014 1392.154669 1394.508489 1395.682537
179.690000 1388.895013 1390.603908 1392.667690 1392.622866 1394.893868 1396.200630
179.790000 1389.424488 1391.079805 1393.058211 1393.078706 1395.336792 1396.569526
179.890000 1389.880385 1391.630329 1393.472639 1393.547934 1395.860712 1396.954187
179.990000 1390.366627 1392.000287 1394.047282 1393.983720 1396.294886 1397.351667
180.090000 1390.792214 1392.379588 1394.445881 1394.403003 1396.681239 1397.660120
180.190000 1391.203227 1392.787319 1394.999756 1394.824121 1397.044092 1397.949238
180.290000 1391.723106 1393.277082 1395.513805 1395.232307 1397.384455 1398.259854
180.390000 1392.073845 1393.670855 1396.010342 1395.639719 1397.731000 1398.568028
180.490000 1392.492105 1394.105805 1396.505399 1396.037292 1398.131043 1398.888570
180.623333 1392.967279 1394.650395 1397.022627 1396.543911 1398.579116 1399.358663
180.756667 1393.453981 1395.120543 1397.605887 1397.057408 1399.017906 1399.764252
180.890000 1394.040859 1395.641124 1398.143335 1397.567758 1399.475912 1400.239822
180.990000 1394.562980 1396.023735 1398.502710 1397.957300 1399.864273 1400.516675
181.090000 1394.975660 1396.470695 1398.870591 1398.348010 1400.182102 1400.860971
181.190000 1395.534327 1396.975931 1399.247392 1398.735849 1400.538288 1401.168121
181.290000 1395.950450 1397.428429 1399.653199 1399.123987 1400.848132 1401.457120
181.390000 1396.365364 1397.842319 1400.018089 1399.509563 1401.162697 1401.793393
181.490000 1396.723810 1398.360016 1400.381019 1399.915746 1401.491147 1402.090237
181.590000 1397.274602 1398.831347 1400.733317 1400.322962 1401.843227 1402.434088
181.690000 1397.829238 1399.316797 1401.114099 1400.732743 1402.181156 1402.795034
181.790000 1398.269274 1399.819131 1401.515775 1401.155982 1402.510316 1403.163418
181.890000 1398.756724 1400.322527 1401.928383 1401.582772 1402.823315 1403.548679
181.990000 1399.266385 1400.865984 1402.354182 1402.013555 1403.157723 1403.940016
182.090000 1399.999667 1401.375174 1402.722312 1402.455985 1403.595674 1404.506633
182.190000 1400.408823 1401.890432 1403.120055 1402.892307 1404.002547 1404.997970
182.290000 1400.973504 1402.460646 1403.526856 1403.342083 1404.455988 1405.463051
182.390000 1401.485374 1403.028402 1404.037814 1403.852724 1404.986979 1406.094592
182.490000 1402.104546 1403.625441 1404.530272 1404.410171 1405.527230 1406.666834
182.590000 1402.752417 1404.140766 1405.022481 1404.943661 1406.068023 1407.238902
182.710000 1403.543290 1404.671465 1405.630882 1405.556740 1406.738188 1408.031814
182.830000 1404.174256 1405.256440 1406.234227 1406.184311 1407.360627 1408.700929
182.950000 1404.741422 1405.888178 1406.872042 1406.808011 1408.011156 1409.348639
183.070000 1405.366746 1406.407031 1407.505227 1407.424452 1408.616342 1409.938495
183.190000 1405.945054 1407.057691 1408.059443 1408.018204 1409.222640 1410.629861
183.325000 1406.556485 1407.625598 1408.637619 1408.611852 1409.857150 1411.362186
183.460000 1407.225799 1408.227792 1409.203908 1409.227577 1410.467899 1412.094819
183.595000 1407.930076 1408.835459 1409.754257 1409.827097 1411.000613 1412.713151
183.730000 1408.663780 1409.487711 1410.345203 1410.429084 1411.607968 1413.298247
183.790000 1408.902110 1409.726284 1410.637167 1410.701500 1411.899020 1413.505012
183.925000 1409.504126 1410.252782 1411.206049 1411.282862 1412.586227 1414.065298
184.060000 1409.967116 1410.776716 1411.760908 1411.846710 1413.185698 1414.683708
184.195000 1410.545310 1411.293122 1412.372161 1412.415722 1413.720315 1415.439037
184.330000 1411.060504 1411.835765 1412.968044 1413.011668 1414.304292 1416.185117
184.430000 1411.430775 1412.265564 1413.403935 1413.478925 1414.830513 1416.820291
184.530000 1411.774665 1412.729690 1413.929360 1413.975889 1415.346343 1417.352235
184.630000 1412.273953 1413.200729 1414.400010 1414.507390 1416.004258 1418.220010
184.750000 1412.760035 1413.775327 1415.187884 1415.282936 1416.944253 1419.176275
184.870000 1413.370138 1414.512321 1416.064790 1416.110704 1417.873606 1420.124152
184.990000 1413.804703 1415.153490 1416.869693 1416.923945 1418.841051 1420.984230
185.110000 1414.306208 1415.860493 1417.783032 1417.757003 1419.866930 1422.097946
185.230000 1414.936293 1416.723618 1418.646562 1418.640970 1420.837407 1423.094399
185.350000 1415.471291 1417.423251 1419.445085 1419.504291 1421.956448 1424.238041
185.470000 1416.094219 1418.224427 1420.350502 1420.370043 1422.905053 1425.052964
185.590000 1416.655584 1418.981148 1421.209606 1421.234599 1423.811943 1426.019482
185.710000 1417.809663 1419.856536 1422.073412 1422.078567 1424.726336 1426.732952
185.830000 1418.607518 1420.673078 1422.899132 1422.920906 1425.571037 1427.369182
185.950000 1419.248194 1421.500403 1423.764254 1423.704994 1426.338759 1427.887911
186.070000 1419.932317 1422.240139 1424.619254 1424.465253 1427.049284 1428.346415
186.190000 1420.661181 1422.983042 1425.494079 1425.241368 1427.645750 1428.791764
186.310000 1421.597722 1423.938759 1426.286513 1426.004821 1428.268138 1429.333964
186.430000 1422.355595 1424.878768 1427.169492 1426.797137 1428.870728 1429.756334
186.530000 1422.894259 1425.634367 1427.864242 1427.430584 1429.377471 1430.261558
186.630000 1423.535023 1426.317249 1428.545921 1428.055273 1429.850863 1430.661691
186.730000 1424.060568 1427.010971 1429.153304 1428.634771 1430.245733 1431.235963
186.830000 1424.722158 1427.731693 1429.672916 1429.223294 1430.741205 1431.694020
186.930000 1425.594282 1428.541929 1430.210428 1429.813251 1431.172762 1432.287803
187.030000 1426.116591 1429.274757 1430.703348 1430.357327 1431.663488 1432.807283
187.130000 1426.681450 1429.786554 1431.166830 1430.857899 1432.124406 1433.432785
187.230000 1427.454253 1430.327303 1431.602052 1431.324405 1432.644715 1433.902959
187.330000 1428.045363 1430.713578 1432.008302 1431.766922 1433.045123 1434.408394
187.466364 1428.679910 1431.209859 1432.509314 1432.298738 1433.603061 1434.953154
187.602727 1429.308934 1431.743511 1432.976345 1432.812786 1434.150441 1435.533739
187.739091 1429.805652 1432.132991 1433.419868 1433.303542 1434.678113 1436.161436
187.875455 1430.062525 1432.653739 1433.905666 1433.792162 1435.156378 1436.796342
188.011818 1430.636110 1433.066405 1434.366825 1434.277886 1435.701278 1437.285722
188.148182 1431.295502 1433.511520 1434.837720 1434.753881 1436.254692 1437.743488
188.284545 1431.678762 1433.949802 1435.291919 1435.228050 1436.821282 1438.288449
188.420909 1432.077024 1434.339147 1435.697275 1435.695107 1437.261601 1438.766444
188.557273 1432.501362 1434.781619 1436.155877 1436.175848 1437.820562 1439.261960
188.693636 1432.908497 1435.225116 1436.596648 1436.634901 1438.371797 1439.696060
188.830000 1433.284019 1435.648017 1437.050679 1437.088949 1438.876468 1440.169102
188.930000 1433.611298 1435.993576 1437.406605 1437.435668 1439.293848 1440.504300
189.030000 1433.904694 1436.286936 1437.721773 1437.782342 1439.691735 1440.814477
189.130000 1434.237323 1436.611211 1438.049664 1438.127293 1440.083683 1441.141638
189.258571 1434.597951 1437.070650 1438.509551 1438.557185 1440.461463 1441.536700
189.387143 1434.969049 1437.488786 1438.909479 1438.986868 1440.940254 1441.955018
189.515714 1435.346071 1437.893769 1439.327016 1439.410327 1441.388160 1442.342138
189.644286 1435.714845 1438.314347 1439.782018 1439.849498 1441.839102 1442.830787
189.772857 1436.044115 1438.746717 1440.192540 1440.281057 1442.274743 1443.212942
189.901429 1436.430022 1439.182510 1440.605995 1440.717389 1442.739774 1443.629719
190.030000 1436.905655 1439.631589 1441.038163 1441.159487 1443.183462 1444.074246
190.130000 1437.226732 1440.042049 1441.452248 1441.531178 1443.535389 1444.359035
190.230000 1437.590619 1440.420545 1441.801424 1441.902386 1443.883999 1444.668090
190.330000 1438.009110 1440.816814 1442.205446 1442.289440 1444.222806 1444.948244
190.430000 1438.366177 1441.261636 1442.573136 1442.669739 1444.583450 1445.261286
190.530000 1438.795070 1441.666454 1442.918114 1443.044352 1444.913137 1445.553834
190.630000 1439.227626 1442.090132 1443.327563 1443.434527 1445.236203 1445.951275
190.730000 1439.817069 1442.445450 1443.716225 1443.816889 1445.554616 1446.290677
190.830000 1440.320882 1442.834561 1444.114902 1444.191514 1445.877040 1446.623546
190.930000 1440.740075 1443.220095 1444.491895 1444.581150 1446.205447 1446.972742
191.030000 1441.566441 1443.671069 1444.935972 1444.981239 1446.521256 1447.273164
191.130000 1442.065069 1444.059311 1445.341166 1445.374664 1446.878762 1447.609740
191.230000 1442.545427 1444.515339 1445.737400 1445.774168 1447.213750 1447.911668
191.330000 1443.073584 1444.938462 1446.191017 1446.179204 1447.561483 1448.245413
191.430000 1443.709365 1445.379974 1446.680277 1446.602859 1447.921712 1448.676104
191.530000 1444.391696 1445.878408 1447.126545 1447.050869 1448.269223 1449.150591
191.630000 1444.810238 1446.337252 1447.575933 1447.490248 1448.666628 1449.535995
191.730000 1445.469829 1446.796914 1447.995861 1447.939417 1449.027732 1449.917962
191.830000 1446.119292 1447.332374 1448.484722 1448.417724 1449.468539 1450.303019
191.930000 1446.863789 1447.825160 1449.013090 1448.921009 1449.956753 1450.881527
192.030000 1447.467893 1448.384421 1449.497158 1449.470089 1450.538655 1451.464508
192.130000 1448.079407 1449.010288 1450.086646 1450.111035 1451.146062 1452.234758
192.240000 1449.122949 1450.218002 1451.388513 1451.448762 1452.744255 1453.921728
192.350000 1450.417810 1451.508083 1452.863208 1452.848414 1454.174451 1455.343841
192.460000 1451.865298 1453.074731 1454.291484 1454.238927 1455.387266 1456.471088
192.560000 1452.532921 1453.816768 1455.007089 1454.964877 1456.203288 1457.266058
192.660000 1453.121808 1454.311993 1455.596157 1455.584023 1456.821045 1457.976073
192.760000 1453.681453 1454.902241 1456.186831 1456.172756 1457.412372 1458.461484
192.880000 1454.203843 1455.487980 1456.912491 1456.834405 1458.166006 1459.211079
193.000000 1454.741038 1456.040435 1457.501681 1457.433018 1458.783760 1459.782530
193.120000 1455.217088 1456.609616 1458.084657 1458.012396 1459.385721 1460.325890
193.240000 1455.754991 1457.192887 1458.619980 1458.567803 1459.979489 1460.856189
193.360000 1456.255150 1457.787289 1459.184073 1459.125045 1460.515358 1461.345766
193.495455 1456.808827 1458.390528 1459.855999 1459.759960 1461.122701 1461.956796
193.630909 1457.475559 1459.014560 1460.507289 1460.407219 1461.746973 1462.742062
193.766364 1458.434493 1459.728419 1461.116868 1461.023854 1462.325722 1463.306002
193.901818 1459.118186 1460.348066 1461.713531 1461.652666 1462.871756 1464.053342
194.037273 1459.879372 1460.958762 1462.306146 1462.270660 1463.450426 1464.820277
194.172727 1460.455525 1461.652347 1462.943479 1462.898987 1464.035601 1465.504426
194.308182 1461.124358 1462.256760 1463.553355 1463.522374 1464.645645 1466.308457
194.443636 1461.742860 1462.933579 1464.124101 1464.151267 1465.312812 1466.786642
194.579091 1462.418825 1463.546466 1464.739516 1464.778787 1465.928523 1467.439693
194.714545 1463.054500 1464.234118 1465.420762 1465.427759 1466.594822 1468.077597
194.850000 1463.924842 1464.878184 1466.064506 1466.112250 1467.347814 1468.748781
194.945000 1464.442608 1465.480348 1466.562706 1466.645563 1467.830688 1469.276124
195.040000 1464.969782 1466.007064 1467.101068 1467.200918 1468.379025 1469.865086
195.150000 1465.496966 1466.612458 1467.771198 1467.851391 1469.126650 1470.594144
195.240000 1465.946786 1467.141586 1468.437180 1468.494583 1469.798035 1471.498291
195.368571 1466.567510 1467.790084 1469.213286 1469.327259 1470.813614 1472.835249
195.497143 1467.312741 1468.566779 1470.107243 1470.223038 1471.761813 1473.738399
195.625714 1467.953964 1469.376655 1471.037406 1471.099698 1472.753430 1474.778370
195.754286 1468.785526 1470.221736 1471.925948 1471.986793 1473.667448 1475.766609
195.882857 1469.665044 1471.051760 1472.853219 1472.870769 1474.724350 1476.514245
196.011429 1470.452322 1471.902508 1473.699707 1473.777330 1475.704719 1477.609192
196.140000 1471.305504 1472.745053 1474.556123 1474.669856 1476.682584 1478.516394
196.240000 1471.785832 1473.294527 1475.187853 1475.293559 1477.297630 1479.217511
196.340000 1472.256772 1473.933818 1475.803666 1475.887634 1477.829561 1479.929504
196.440000 1472.637221 1474.548570 1476.354767 1476.462922 1478.475940 1480.590435
196.540000 1473.098539 1475.018398 1476.950877 1477.006227 1479.131600 1481.192936
196.640000 1473.557923 1475.476710 1477.561520 1477.566714 1479.779135 1481.685119
196.740000 1473.944282 1475.973284 1478.141985 1478.108833 1480.348845 1482.347584
196.840000 1474.325036 1476.447630 1478.641382 1478.661932 1481.000357 1482.904170
196.940000 1474.772530 1476.897507 1479.202739 1479.209826 1481.646672 1483.482347
197.040000 1475.158736 1477.342006 1479.753141 1479.724154 1482.296913 1483.981652
197.140000 1475.537203 1477.776498 1480.283772 1480.251183 1482.956132 1484.465558
197.240000 1476.027983 1478.166028 1480.730344 1480.752227 1483.455386 1484.829423
197.340000 1476.530813 1478.662936 1481.161968 1481.256028 1483.932556 1485.281308
197.440000 1477.013192 1479.070346 1481.674640 1481.743225 1484.482848 1485.698483
197.540000 1477.564469 1479.581404 1482.204502 1482.241426 1485.027372 1486.122476
197.640000 1478.110143 1480.088007 1482.706448 1482.731502 1485.527069 1486.502106
197.740000 1478.534473 1480.539974 1483.220584 1483.228741 1485.955045 1486.946929
197.840000 1478.929757 1481.001321 1483.865207 1483.742776 1486.429371 1487.459873
197.940000 1479.329967 1481.627892 1484.520290 1484.273745 1486.853732 1487.871167
198.040000 1479.801026 1482.234587 1485.188815 1484.814333 1487.335685 1488.472691
198.140000 1480.405004 1482.917784 1485.816112 1485.374929 1487.834535 1488.870556
198.240000 1480.769433 1483.542940 1486.341187 1485.928583 1488.266682 1489.491090
198.340000 1481.337158 1484.068765 1486.932460 1486.499765 1488.798250 1489.920524
198.440000 1481.833363 1484.664881 1487.568131 1487.096926 1489.310125 1490.565974
198.540000 1482.740250 1485.309822 1488.166970 1487.730489 1489.844617 1491.115002
198.676364 1483.658048 1486.332547 1489.057105 1488.731966 1490.970346 1493.212774
198.812727 1484.558420 1487.232539 1489.938967 1489.779278 1492.215328 1494.711110
198.949091 1485.672653 1488.373960 1490.744038 1490.857742 1493.464516 1496.628408
199.085455 1486.661714 1489.330714 1491.712041 1491.965174 1494.932842 1497.831912
199.221818 1487.504391 1490.210533 1492.768141 1493.083229 1496.283749 1499.131614
199.358182 1488.712636 1491.214904 1493.830997 1494.214968 1497.684783 1500.392852
199.494545 1489.677123 1492.162863 1494.956158 1495.362767 1499.034483 1501.899691
199.630909 1490.673949 1493.016032 1495.942082 1496.498865 1500.471757 1503.282063
199.767273 1491.729256 1493.969515 1497.331901 1497.701373 1501.803523 1504.550866
199.903636 1492.937144 1494.997741 1498.776461 1498.989355 1503.099226 1506.124624
200.040000 1494.064697 1495.944734 1500.078014 1500.272218 1504.642529 1507.637453
200.178462 1494.997714 1497.220645 1501.306760 1501.530195 1506.039952 1509.022497
200.316923 1496.005072 1498.526225 1502.639319 1502.854043 1507.342940 1511.119336
200.455385 1496.952569 1499.837469 1504.128082 1504.220988 1508.677174 1512.412067
200.593846 1497.862744 1501.237544 1505.309715 1505.587312 1510.106091 1514.235444
200.732308 1498.845664 1502.422173 1506.804834 1506.974171 1511.694434 1515.347305
200.870769 1500.058806 1503.785006 1508.277349 1508.382886 1513.150818 1516.618916
201.009231 1501.219875 1504.810283 1509.628987 1509.716712 1514.654307 1518.060425
201.147692 1502.208553 1506.106766 1511.043509 1511.052370 1515.905723 1519.199588
201.286154 1503.283323 1507.169236 1512.613308 1512.489034 1517.484866 1520.826348
201.424615 1504.320246 1508.439519 1514.287808 1513.934631 1519.053609 1522.185390
201.563077 1506.037201 1509.677639 1516.076912 1515.318034 1520.496809 1523.161563
201.701538 1507.123291 1510.715010 1517.711314 1516.698037 1522.015517 1524.152765
201.840000 1508.265283 1511.808353 1519.139680 1518.046958 1523.368120 1525.090927
201.940000 1508.917623 1512.609962 1520.054600 1518.827227 1524.082650 1525.747568
202.040000 1509.673341 1513.563269 1520.980993 1519.602191 1524.641971 1526.264266
202.140000 1510.582512 1514.314637 1521.911894 1520.376623 1525.182312 1526.711261
202.240000 1511.401545 1515.338726 1522.828045 1521.151429 1525.685158 1527.369350
202.340000 1512.105326 1516.351213 1523.431168 1521.887155 1526.146299 1527.743162
202.440000 1512.899472 1517.306721 1524.111712 1522.597601 1526.624695 1528.061599
202.540000 1513.792133 1518.294703 1524.626165 1523.271785 1527.099098 1528.450728
202.640000 1514.987884 1519.259761 1525.311619 1523.951881 1527.461442 1528.795150
202.740000 1515.951675 1520.325057 1525.802216 1524.594005 1527.939632 1529.137612
202.840000 1516.873940 1521.588980 1526.346964 1525.250889 1528.361441 1529.535535
202.940000 1518.087154 1522.600899 1526.791074 1525.881080 1528.779512 1529.897202
203.040000 1519.060680 1523.657758 1527.306853 1526.509575 1529.209745 1530.270051
203.140000 1520.183917 1524.589053 1527.758836 1527.138777 1529.660920 1530.630636
203.240000 1521.748082 1525.489548 1528.225664 1527.752660 1530.065266 1530.992716
203.340000 1522.885272 1526.290014 1528.739932 1528.347368 1530.457421 1531.414062
203.440000 1523.622669 1527.030113 1529.202724 1528.921316 1530.948534 1531.830525
203.540000 1524.962320 1527.858550 1529.680797 1529.499162 1531.293513 1532.212663
203.640000 1526.419888 1528.505595 1530.221020 1530.075017 1531.729723 1532.603714
203.740000 1527.200194 1529.129521 1530.714333 1530.600754 1532.160945 1533.042928
203.840000 1528.148729 1529.784057 1531.241999 1531.159472 1532.565594 1533.723594
203.940000 1528.940266 1530.510727 1531.787184 1531.743439 1533.056695 1534.100652
204.040000 1529.797272 1531.226871 1532.432652 1532.401641 1533.613826 1534.769663
204.140000 1530.654311 1531.966799 1533.091328 1533.091742 1534.211565 1535.518852
204.240000 1531.532518 1532.618084 1533.726126 1533.756189 1534.891492 1536.178068
204.340000 1532.321069 1533.335716 1534.400091 1534.457146 1535.609960 1536.812102
204.440000 1532.934084 1534.001897 1535.128405 1535.161810 1536.347834 1537.458562
204.540000 1533.513429 1534.701119 1535.819278 1535.810243 1536.987186 1538.080746
204.650000 1534.141522 1535.256882 1536.460764 1536.422031 1537.602754 1538.608502
204.760000 1534.614651 1535.799924 1537.061684 1537.020149 1538.257043 1539.205405
204.840000 1535.021822 1536.222529 1537.496733 1537.430058 1538.659302 1539.524732
204.950000 1535.545904 1536.699572 1538.055983 1537.954689 1539.203961 1540.067796
205.060000 1536.074108 1537.174170 1538.568020 1538.469311 1539.734359 1540.451083
205.160000 1536.635828 1537.679497 1539.032938 1538.928924 1540.149885 1540.802047
205.260000 1537.080338 1538.195714 1539.504977 1539.385690 1540.524601 1541.279895
205.360000 1537.575445 1538.669100 1539.935708 1539.829221 1540.909949 1541.731953
205.460000 1537.971459 1539.142092 1540.401886 1540.291443 1541.336550 1542.212883
205.560000 1538.589424 1539.655074 1540.841442 1540.764122 1541.778957 1542.737362
205.660000 1539.021571 1540.149279 1541.287529 1541.218153 1542.241374 1543.174137
205.760000 1539.527974 1540.666936 1541.825261 1541.733532 1542.760771 1543.712258
205.860000 1540.047626 1541.174727 1542.287555 1542.242835 1543.275705 1544.334503
205.960000 1540.537906 1541.667080 1542.712546 1542.732311 1543.808189 1545.065178
206.080000 1541.073462 1542.154048 1543.213402 1543.287936 1544.446257 1545.786372
206.200000 1541.511927 1542.687849 1543.721846 1543.840213 1545.078238 1546.436630
206.320000 1541.928676 1543.185817 1544.236178 1544.403940 1545.778294 1547.165235
206.440000 1542.310486 1543.662551 1544.758885 1544.982059 1546.546010 1547.992007
