depth(m) lower_95(kyr) lower_68(kyr) median(kyr) mean(kyr) upper_68(kyr) upper_95(kyr)
56.200000 1695.928480 1703.118996 1707.499095 1706.278959 1710.595869 1712.988802
56.300000 1700.609723 1706.630698 1710.185270 1709.125390 1712.832902 1714.832514
56.390000 1703.612696 1710.017920 1712.950186 1711.965180 1715.195374 1717.342997
56.490000 1707.666368 1712.998708 1715.492139 1714.610021 1717.426582 1719.786282
56.590000 1711.987135 1715.390601 1717.653901 1716.894623 1719.502161 1722.118623
56.680000 1714.317278 1717.210427 1719.432169 1718.812995 1721.302345 1724.224228
56.780000 1716.242989 1719.167826 1721.351891 1720.873026 1723.465054 1726.830840
56.870000 1717.809919 1721.108730 1723.276610 1722.906434 1725.640760 1729.340826
56.970000 1720.336981 1723.414591 1725.590287 1725.399252 1728.233960 1731.959173
57.070000 1722.371324 1725.734409 1728.038856 1727.884196 1730.894652 1734.620859
57.160000 1724.412676 1727.917762 1730.256728 1730.239787 1733.497431 1736.728123
57.260000 1726.595488 1730.290147 1733.110865 1733.020458 1736.349859 1738.955541
57.350000 1728.984432 1732.540401 1735.807710 1735.498956 1738.732913 1741.013778
57.450000 1731.581305 1735.165320 1738.559118 1738.202213 1741.312881 1743.145862
57.550000 1734.429493 1738.436892 1741.513979 1741.041028 1743.696897 1745.481917
57.640000 1737.545279 1741.486609 1744.127260 1743.717328 1746.001467 1747.822213
57.740000 1740.867982 1744.383820 1746.530712 1746.254078 1748.191378 1750.031867
57.830000 1743.551440 1746.468099 1748.457039 1748.297941 1750.270308 1752.184027
57.930000 1745.750198 1748.703565 1750.564519 1750.544915 1752.511914 1754.739193
58.020000 1747.748557 1750.599038 1752.606891 1752.613244 1754.795871 1757.299492
58.120000 1749.792004 1752.632031 1754.811318 1754.916813 1757.433247 1760.513714
58.220000 1752.754976 1754.967802 1757.339020 1757.536772 1760.268875 1763.854698
58.310000 1755.378065 1757.397595 1760.014781 1760.266575 1763.279765 1766.815487
58.410000 1757.824388 1760.411798 1763.343852 1763.512237 1766.747526 1770.320899
58.500000 1759.993699 1762.834914 1766.259566 1766.228901 1769.506556 1772.481095
58.600000 1762.152386 1765.479063 1769.012352 1768.967320 1772.403012 1775.383405
58.700000 1764.673592 1768.008783 1771.851000 1771.620028 1775.021316 1777.968494
58.790000 1766.684716 1770.446498 1774.150122 1773.914076 1777.479228 1779.864659
58.890000 1769.599304 1773.150599 1776.875993 1776.518753 1779.777922 1782.171386
58.980000 1772.083237 1775.644306 1779.104602 1778.824846 1781.887439 1783.999953
59.080000 1775.122867 1778.979394 1781.723624 1781.454489 1784.091041 1785.952012
59.170000 1778.148166 1781.987242 1784.215969 1784.013064 1786.181276 1787.989817
59.270000 1782.369892 1784.880013 1786.808499 1786.726135 1788.592900 1790.402393
59.370000 1785.356820 1787.255587 1788.910807 1788.889299 1790.576131 1792.139049
59.460000 1787.160734 1788.998294 1790.496734 1790.525756 1792.147261 1793.676298
59.560000 1789.076865 1790.771408 1792.199683 1792.247026 1793.665485 1795.314805
59.650000 1790.735428 1792.346738 1793.630621 1793.738996 1795.167359 1796.664952
59.750000 1792.577240 1793.901178 1795.239442 1795.349417 1796.734054 1798.543816
59.850000 1794.223096 1795.541017 1796.861331 1797.007386 1798.393528 1800.419995
59.940000 1795.592654 1796.915907 1798.324668 1798.540689 1799.941750 1802.395833
60.040000 1797.445178 1798.634679 1800.161373 1800.517144 1802.099586 1805.711655
60.130000 1798.769858 1800.323972 1801.902090 1802.428821 1804.385445 1808.536125
60.230000 1800.579836 1802.076368 1803.975384 1804.677895 1807.170688 1812.366494
60.330000 1802.456979 1804.240456 1806.483320 1807.249076 1810.203458 1815.096104
60.420000 1804.035408 1806.195486 1808.935297 1809.664690 1812.988557 1817.640429
60.520000 1805.964561 1808.401207 1811.876824 1812.355848 1815.870836 1822.533444
60.610000 1807.648803 1810.264551 1814.177299 1814.770042 1818.590995 1827.577786
60.710000 1809.786552 1812.552772 1816.876857 1817.650224 1822.140101 1831.200181
60.800000 1811.586995 1814.671290 1819.552422 1820.375071 1825.282771 1835.365563
60.900000 1813.845628 1817.366605 1822.612135 1823.553978 1829.644043 1839.435225
61.000000 1816.569847 1819.841980 1825.907818 1826.841749 1833.723662 1844.982264
61.090000 1818.282486 1822.291358 1828.486270 1829.730266 1837.356124 1847.893608
61.190000 1820.694674 1825.355951 1831.827517 1833.013063 1840.907870 1851.291577
61.285000 1823.105054 1827.734963 1834.978307 1836.129817 1844.112641 1855.540988
61.380000 1825.182245 1830.365006 1838.356926 1839.162948 1847.670663 1859.704162
61.480000 1827.354535 1834.033170 1841.649002 1842.492337 1851.602436 1862.838365
61.570000 1830.064148 1836.933970 1844.485574 1845.404331 1854.709725 1865.170010
61.670000 1833.010096 1840.081683 1847.488044 1848.589685 1857.710998 1867.663185
61.760000 1835.817525 1842.990161 1850.365120 1851.468590 1861.412311 1869.692696
61.860000 1839.683983 1846.826775 1853.883649 1854.905025 1864.589405 1871.932735
61.950000 1842.980677 1850.758020 1857.606393 1858.325324 1866.679762 1873.728263
62.050000 1846.578014 1854.631741 1861.579129 1861.758182 1869.441468 1875.691574
62.150000 1849.658626 1858.597877 1865.602327 1865.255035 1872.112748 1877.406190
62.240000 1853.001731 1862.203607 1868.867301 1868.293600 1874.725207 1879.556191
62.340000 1856.281748 1866.115882 1871.914182 1871.407027 1877.212839 1881.732623
62.430000 1860.256999 1869.087756 1874.508402 1874.063239 1879.342194 1883.695577
62.530000 1864.851569 1872.160242 1877.146295 1876.840442 1881.943102 1885.711938
62.630000 1869.557434 1875.257633 1880.035153 1879.666621 1884.309213 1887.459989
62.720000 1872.716269 1878.045416 1882.435925 1882.224978 1886.546331 1889.247002
62.820000 1876.777139 1881.565627 1885.457139 1885.242490 1889.038114 1891.428500
62.910000 1880.310619 1884.389932 1888.468336 1887.958878 1891.212845 1893.259086
63.010000 1883.633125 1887.712712 1891.507936 1890.867403 1893.578995 1895.146969
63.110000 1886.500816 1891.024363 1894.086578 1893.544356 1895.811129 1896.986598
63.200000 1890.095936 1894.377966 1896.346906 1895.954230 1897.624556 1898.784919
63.300000 1894.961466 1897.359078 1898.653626 1898.531733 1899.646518 1900.858434
63.390000 1898.235128 1899.580675 1900.609647 1900.627919 1901.623401 1902.921933
63.490000 1900.258043 1901.500394 1902.485200 1902.556733 1903.544146 1904.813638
63.580000 1902.001231 1903.010091 1904.049183 1904.147218 1905.238739 1906.661394
63.680000 1903.588135 1904.620994 1905.771086 1905.887269 1907.061256 1908.633935
63.780000 1905.197663 1906.380168 1907.633875 1907.758900 1909.000818 1911.023114
63.870000 1906.511107 1908.033665 1909.313052 1909.476354 1910.829534 1913.080395
63.970000 1908.227577 1909.774777 1911.274524 1911.483749 1913.037486 1915.903788
64.060000 1910.032454 1911.530090 1913.192272 1913.545250 1915.426524 1918.718753
64.160000 1912.069232 1913.812695 1915.732697 1916.233975 1918.568671 1922.704119
64.260000 1914.239218 1916.076450 1918.247269 1918.995175 1921.806659 1927.121857
64.350000 1915.962558 1918.166146 1920.980156 1921.732502 1925.457775 1931.120897
64.450000 1918.203052 1920.905318 1924.309186 1925.185879 1929.706479 1935.974504
64.540000 1920.146622 1923.119473 1927.691018 1928.418974 1934.005558 1940.025841
64.680000 1923.311332 1926.733653 1933.145069 1934.168468 1942.179016 1951.933501
64.820000 1926.198100 1930.180628 1938.480919 1940.211564 1950.798339 1962.442930
64.960000 1929.417470 1933.725964 1945.749595 1946.615195 1959.349824 1971.868747
65.100000 1932.347498 1937.649189 1952.105149 1952.943391 1967.770346 1980.672395
65.240000 1935.309042 1940.980661 1960.294513 1959.375309 1976.567241 1988.535709
65.380000 1938.033168 1944.179683 1969.296870 1965.664961 1984.349548 1995.559705
65.520000 1940.833199 1947.574964 1977.108954 1971.821931 1991.510968 1999.857880
65.660000 1944.649476 1951.040521 1987.876161 1978.159313 1998.342721 2004.548270
65.800000 1948.741963 1954.746335 1997.111689 1984.434296 2004.196093 2009.351691
65.895000 1951.304027 1957.561421 2000.965534 1988.099127 2008.162870 2013.348151
65.990000 1955.108712 1960.953475 2005.286311 1991.800523 2011.954864 2016.739901
66.130000 1959.487291 1967.182919 2011.177901 1997.601463 2017.607792 2022.143593
66.270000 1964.694300 1973.120209 2016.686834 2003.004315 2022.444733 2026.473518
66.370000 1967.581459 1976.137336 2019.442926 2006.066595 2025.286737 2028.993826
66.470000 1970.925020 1978.560614 2022.336258 2009.093755 2027.855531 2031.729133
66.610000 1975.322769 1982.535235 2026.141696 2013.378123 2031.233345 2034.455222
66.750000 1981.369481 1986.524655 2030.290627 2017.920855 2034.544935 2037.429140
66.850000 1985.158051 1989.701064 2033.205817 2020.956482 2036.971004 2039.697382
66.940000 1988.710596 1992.884582 2036.082533 2024.065420 2039.295607 2042.043596
67.040000 1991.966653 1995.764464 2038.583898 2026.943388 2041.778317 2044.157221
67.140000 1994.746389 2000.922245 2040.952686 2029.953088 2043.923247 2046.078502
67.280000 1999.301745 2008.195953 2043.795163 2034.348872 2046.821858 2048.949716
67.420000 2007.086740 2015.774748 2047.127493 2039.151728 2049.824587 2051.655054
67.520000 2014.279786 2021.968524 2049.585587 2042.684849 2051.986303 2053.738324
67.610000 2018.955702 2027.508337 2051.624283 2045.517673 2054.016197 2055.534975
67.710000 2024.126129 2033.216980 2053.749783 2048.744571 2056.102192 2057.729903
67.810000 2030.960775 2038.957444 2056.060082 2051.964378 2058.254775 2059.988646
67.900000 2038.225539 2045.030527 2058.346405 2055.232575 2060.383456 2062.075458
68.000000 2043.733792 2053.805113 2060.624653 2058.653615 2062.515905 2063.948605
68.090000 2049.179344 2059.582739 2062.729772 2061.703304 2064.366488 2065.965391
68.190000 2061.870842 2064.114363 2065.621726 2065.606734 2067.102320 2069.090938
68.280000 2064.811447 2066.322317 2067.709641 2067.826858 2069.435168 2071.346986
68.370000 2066.719785 2068.120263 2069.616164 2069.755785 2071.427443 2073.556255
68.480000 2068.778306 2070.313035 2071.946187 2072.096710 2073.828583 2076.473271
68.570000 2070.580579 2072.108163 2073.885277 2074.098181 2075.966349 2079.001674
68.670000 2072.726540 2074.323958 2076.321141 2076.655687 2078.898500 2082.310997
68.760000 2074.709152 2076.684892 2078.933580 2079.386053 2082.248951 2086.665729
68.860000 2077.754019 2079.971558 2083.014104 2083.573686 2087.108975 2092.625253
68.970000 2080.711317 2083.765642 2087.770078 2088.069407 2092.049607 2098.247322
69.050000 2083.681888 2087.799037 2091.748444 2091.934375 2096.201556 2101.154998
69.140000 2087.213619 2091.269911 2095.272092 2095.508141 2100.102312 2104.385635
69.270000 2090.722916 2095.211121 2099.452974 2099.596522 2104.300649 2108.571517
69.340000 2093.253451 2097.533189 2101.692144 2101.805007 2106.273940 2110.613010
69.430000 2096.365248 2100.119577 2104.484353 2104.453506 2108.832322 2112.919875
69.525000 2099.410929 2103.294609 2107.426898 2107.321940 2111.375271 2114.879129
69.620000 2102.273522 2106.259226 2110.328848 2110.202963 2114.017726 2116.876022
69.720000 2106.248455 2110.185480 2113.633024 2113.455640 2116.584747 2119.514819
69.810000 2109.342325 2113.954873 2117.071952 2116.688231 2119.445241 2122.218649
69.910000 2113.337286 2117.078830 2120.005792 2119.654609 2122.185628 2124.608354
70.010000 2116.713429 2120.209471 2122.823380 2122.532586 2124.891357 2126.981982
70.100000 2119.138652 2122.875435 2125.304863 2125.216547 2127.611357 2129.804538
70.200000 2122.175325 2125.595565 2127.900646 2127.999984 2130.559478 2133.312291
70.340000 2126.454969 2129.244502 2131.699404 2131.823449 2134.607470 2137.323439
70.480000 2130.531206 2133.208780 2135.836527 2135.948036 2138.876607 2141.318273
70.580000 2134.008575 2136.755096 2139.633896 2139.664973 2142.659296 2145.231221
70.680000 2142.475724 2145.713170 2147.971460 2148.079168 2150.447303 2153.962454
70.770000 2148.122071 2150.139928 2152.040200 2152.384076 2154.771098 2157.787282
70.870000 2151.298107 2153.605649 2156.157363 2156.236990 2158.803732 2162.244703
70.965000 2154.557395 2157.128608 2160.149100 2160.229439 2163.243519 2166.548855
71.060000 2158.040844 2160.985993 2163.984734 2164.017056 2167.126428 2169.774591
71.150000 2161.726893 2164.498316 2167.504156 2167.364952 2170.260703 2172.208763
71.250000 2165.423249 2168.194419 2171.243026 2170.906241 2173.469787 2175.397887
71.350000 2169.471226 2172.106021 2174.575641 2174.430548 2176.585473 2178.603207
71.440000 2172.730772 2175.018838 2176.891396 2176.897567 2178.916646 2181.004923
71.540000 2175.503190 2177.449863 2179.327788 2179.321244 2181.187259 2183.127941
71.630000 2177.386185 2179.377652 2181.228890 2181.286331 2183.211707 2185.105563
71.730000 2179.567646 2181.482651 2183.308778 2183.391735 2185.336399 2187.591513
71.825000 2181.466290 2183.501330 2185.401928 2185.514129 2187.457654 2190.068821
71.920000 2183.702637 2185.627397 2187.555650 2187.712885 2189.710117 2192.405910
72.010000 2185.895520 2187.942321 2189.999045 2190.251362 2192.472110 2195.750847
72.110000 2189.150144 2191.341844 2194.084758 2194.307504 2197.192228 2200.846392
72.210000 2192.233921 2195.058371 2198.683399 2198.583416 2201.990515 2204.867950
72.300000 2195.296186 2199.138453 2202.956684 2202.685520 2205.863178 2209.560953
72.400000 2198.927071 2204.224770 2207.305960 2207.180967 2210.202893 2213.817479
72.490000 2203.563900 2207.416673 2210.306072 2210.356080 2213.598809 2217.502315
72.590000 2205.995414 2210.027915 2213.195665 2213.310722 2216.773077 2220.466233
72.680000 2208.335029 2212.203507 2215.619326 2215.724224 2219.390239 2223.179658
72.780000 2211.049804 2214.847264 2218.375658 2218.525932 2222.225029 2226.423437
72.880000 2213.447848 2217.534531 2221.244820 2221.324291 2225.157370 2228.877207
72.970000 2216.531243 2220.493640 2224.124977 2224.100909 2227.763281 2231.294433
73.070000 2219.442817 2223.425826 2226.971399 2227.022998 2230.673873 2233.818966
73.165000 2222.288532 2226.529721 2229.899530 2229.879095 2233.307074 2237.540157
73.260000 2225.458930 2229.530065 2232.766378 2232.866645 2236.066428 2240.877706
73.350000 2229.136507 2233.083481 2236.414541 2236.589782 2240.292380 2243.745863
73.450000 2231.965769 2236.199962 2240.116920 2240.167549 2244.415361 2247.297566
73.550000 2235.600836 2239.585600 2244.193740 2243.688857 2247.468709 2250.203185
73.640000 2238.232498 2243.023219 2247.259259 2246.728604 2250.115233 2252.888139
73.740000 2241.463561 2246.670820 2250.528079 2250.100525 2253.375605 2257.236175
73.880000 2246.809347 2251.197103 2254.806652 2254.789122 2258.498384 2262.210112
74.020000 2252.096981 2255.490451 2259.373836 2259.430956 2263.323433 2266.976044
74.130000 2255.449113 2258.772848 2263.123722 2262.986985 2266.951577 2270.690423
74.240000 2258.660906 2262.437652 2266.892959 2266.673370 2270.834436 2274.502894
74.340000 2261.603821 2266.243132 2270.076054 2270.153225 2273.979322 2278.880530
74.430000 2265.277415 2270.061229 2274.217697 2274.644748 2279.960809 2284.888883
74.530000 2268.385772 2272.520249 2277.262147 2278.099296 2284.060898 2289.411902
74.620000 2271.896935 2275.227641 2280.698354 2281.237795 2287.532178 2292.253655
74.720000 2274.381604 2278.273255 2285.190744 2284.902038 2291.030188 2296.615213
74.815000 2277.120335 2282.451475 2288.613551 2288.469388 2294.088153 2300.855118
74.910000 2280.030010 2287.005343 2291.565390 2291.973153 2297.386919 2304.115120
75.000000 2282.527338 2290.201644 2294.502954 2295.049213 2300.786550 2306.907731
75.100000 2286.318284 2292.764327 2297.843144 2298.194490 2304.400953 2310.056868
75.195000 2290.779075 2295.616317 2301.014290 2301.237038 2307.304166 2312.604396
75.290000 2294.432960 2298.937518 2303.999852 2304.309650 2309.896272 2315.003608
75.385000 2298.312091 2302.873006 2307.466080 2307.669828 2312.898337 2317.258524
75.480000 2302.711964 2306.593850 2310.844766 2311.078103 2315.989425 2320.011196
75.570000 2306.367162 2309.903706 2314.125500 2314.215310 2318.756155 2322.103438
75.670000 2309.252824 2313.334763 2317.614833 2317.445240 2321.780706 2325.136032
75.760000 2312.394200 2316.159202 2320.536863 2320.309787 2324.377992 2327.641872
75.860000 2315.857597 2319.758592 2323.762549 2323.455458 2327.192195 2330.225685
75.950000 2318.934257 2322.409050 2326.280316 2326.016476 2329.364510 2332.416508
76.050000 2321.749733 2325.515735 2328.847577 2328.607986 2331.762866 2334.416184
76.140000 2324.018196 2327.811771 2331.022117 2330.772945 2333.772315 2336.232431
76.235000 2326.486334 2330.287076 2333.143662 2332.925053 2335.643308 2338.270577
76.330000 2329.459473 2332.877225 2335.262030 2335.142151 2337.647711 2340.014724
76.430000 2332.900578 2335.446811 2337.733055 2337.659458 2339.998905 2341.963459
76.520000 2335.348214 2337.565295 2339.765858 2339.756802 2341.990950 2344.061530
76.615000 2337.317752 2339.734812 2342.030989 2341.936642 2344.169625 2346.205270
76.710000 2339.877821 2342.072618 2344.298364 2344.176036 2346.347456 2348.115265
76.810000 2342.497406 2345.022352 2346.888183 2346.898425 2348.916794 2350.672408
76.900000 2345.604627 2347.882378 2349.761779 2349.848502 2351.667499 2354.804292
77.000000 2350.286245 2352.070699 2354.314702 2354.747238 2357.703815 2361.305569
77.090000 2352.365488 2354.911257 2357.990327 2358.234388 2361.627636 2364.814692
77.180000 2354.664631 2357.815870 2361.534519 2361.397472 2364.833603 2367.585558
77.280000 2357.607811 2361.144807 2364.662832 2364.463984 2367.745337 2370.539137
77.370000 2360.061581 2364.026042 2367.142323 2366.987755 2370.042005 2372.444796
77.470000 2364.073941 2367.614916 2370.252343 2370.142531 2372.833067 2375.030600
77.560000 2367.561424 2370.959942 2373.315058 2373.240868 2375.460726 2378.306903
77.660000 2372.308684 2374.668620 2376.858243 2376.977315 2379.281888 2382.163228
77.750000 2375.164948 2377.226939 2379.828902 2379.880410 2382.430221 2385.387443
77.845000 2377.248668 2379.659736 2382.406119 2382.652464 2385.545769 2389.023862
77.940000 2379.918607 2382.137038 2385.076382 2385.292674 2388.357949 2391.930626
78.040000 2382.284491 2385.052586 2388.186400 2388.437470 2391.853648 2396.065242
78.130000 2384.768589 2387.339051 2391.087286 2391.230736 2394.888795 2399.738640
78.230000 2386.950313 2390.028895 2393.862353 2394.192518 2398.466606 2402.897168
78.300000 2388.829297 2392.185102 2396.087064 2396.312175 2400.504714 2404.741906
78.440000 2392.726081 2396.361036 2400.477298 2400.557007 2404.824901 2408.454737
78.510000 2394.697802 2398.636079 2402.925995 2402.775131 2406.917220 2410.590459
78.610000 2397.460863 2401.987678 2405.945575 2405.855513 2409.877836 2413.115341
78.700000 2400.597924 2404.613686 2408.827005 2408.639598 2412.639228 2415.735501
78.800000 2402.849663 2407.383566 2411.591425 2411.333473 2415.480779 2417.956465
78.895000 2405.174289 2409.583916 2413.950313 2413.738139 2417.863680 2420.091728
78.990000 2407.537056 2412.052505 2416.562645 2416.124515 2420.167285 2422.047821
79.080000 2410.474627 2414.671056 2419.031790 2418.524375 2422.201633 2424.027733
79.180000 2413.672203 2418.152819 2421.771184 2421.282024 2424.433615 2426.280945
79.270000 2417.102237 2421.282381 2424.370101 2423.902104 2426.532522 2428.093368
79.370000 2421.019848 2424.869363 2427.237386 2426.882138 2428.934136 2430.587850
79.460000 2427.169075 2429.133166 2430.666205 2430.709797 2432.297459 2434.416913
79.560000 2430.369326 2431.744900 2433.350385 2433.533937 2435.209785 2438.028161
79.650000 2432.375677 2433.810103 2435.505142 2435.744165 2437.819026 2440.434935
79.750000 2434.489952 2435.911764 2437.821829 2438.080181 2440.393954 2442.706265
79.840000 2436.061922 2437.870235 2439.947487 2440.154613 2442.408785 2445.451964
79.940000 2438.585983 2440.179483 2442.370131 2442.597527 2445.116130 2447.841568
80.030000 2440.670121 2442.718298 2445.046523 2445.285549 2448.046384 2451.289787
80.175000 2444.380405 2446.792795 2449.953358 2450.119096 2453.279128 2457.290821
