depth(m) lower_95(kyr) lower_68(kyr) median(kyr) mean(kyr) upper_68(kyr) upper_95(kyr)
82.180000 693.019076 693.941600 694.721164 694.677147 695.390258 696.098950
82.190000 693.152341 694.051201 694.802758 694.767075 695.487552 696.189971
82.210000 693.384017 694.276267 694.977686 694.949759 695.624895 696.367419
82.230000 693.615784 694.447081 695.155004 695.128930 695.786060 696.504344
82.250000 693.910814 694.653099 695.330085 695.311773 695.924889 696.675139
82.270000 694.087811 694.847479 695.480631 695.484860 696.081304 696.828020
82.290000 694.261532 695.053253 695.682138 695.662891 696.272192 697.032644
82.300000 694.364140 695.145358 695.763446 695.749413 696.360201 697.111387
82.320000 694.554961 695.338021 695.942398 695.922464 696.508363 697.254307
82.340000 694.781137 695.492812 696.114494 696.092026 696.666627 697.406631
82.360000 694.927841 695.686193 696.283602 696.262570 696.826424 697.583018
82.380000 695.095425 695.854412 696.443270 696.428696 696.994875 697.732279
82.420000 695.507415 696.153449 696.759302 696.753484 697.323335 698.048694
82.440000 695.735055 696.316266 696.917440 696.926173 697.494146 698.188610
82.470000 696.065448 696.569061 697.162466 697.174530 697.730925 698.428665
82.490000 696.304813 696.765882 697.342924 697.351883 697.898361 698.627269
82.510000 696.503683 696.945822 697.522890 697.534328 698.072247 698.792243
82.530000 696.713399 697.145424 697.722240 697.725474 698.259666 698.980888
82.550000 696.920240 697.315329 697.902389 697.906943 698.459191 699.100086
82.570000 697.087168 697.528007 698.076693 698.097123 698.660237 699.244131
82.590000 697.329674 697.744460 698.253548 698.291945 698.853352 699.421584
82.610000 697.500717 697.992152 698.433855 698.473317 699.057065 699.562405
82.630000 697.699027 698.183438 698.601785 698.655708 699.256721 699.695267
82.650000 697.897770 698.371209 698.792154 698.842489 699.419908 699.861315
82.670000 698.093762 698.557014 698.959075 699.024537 699.588932 700.019024
82.700000 698.390863 698.832111 699.229549 699.299112 699.848962 700.233352
82.720000 698.650827 699.017378 699.427754 699.489996 700.040114 700.459279
82.740000 698.842846 699.207450 699.645139 699.679122 700.203185 700.674920
82.760000 699.053141 699.388431 699.842880 699.878116 700.396010 700.851539
82.780000 699.218764 699.572984 700.058539 700.093177 700.638377 701.088354
82.800000 699.430040 699.782069 700.305388 700.321613 700.876691 701.350304
82.840000 699.814296 700.287194 700.852295 700.897643 701.508750 702.247513
82.860000 700.027958 700.558212 701.135906 701.192991 701.822048 702.613418
82.880000 700.264050 700.834196 701.429654 701.481753 702.126031 702.955068
82.900000 700.503254 701.102103 701.733430 701.788573 702.476960 703.292729
82.930000 700.991383 701.581166 702.313670 702.354567 703.117577 703.970461
82.970000 701.510720 702.342678 703.331215 703.329843 704.361802 705.154430
82.990000 701.773442 702.670021 703.655517 703.662326 704.685555 705.450577
83.010000 702.138011 703.028586 703.973428 703.988549 704.968067 705.724700
83.030000 702.429909 703.308729 704.323402 704.302171 705.303565 706.011845
83.050000 702.706455 703.626358 704.630903 704.599341 705.596525 706.263997
83.070000 702.919336 703.946694 704.922805 704.894117 705.830882 706.538314
83.090000 703.228983 704.269189 705.252063 705.200126 706.104163 706.842305
83.110000 703.480988 704.630296 705.596896 705.499587 706.394762 707.000644
83.130000 703.820611 704.973003 705.900752 705.800920 706.628280 707.161136
83.160000 704.409026 705.607340 706.403716 706.309060 706.999011 707.473240
83.180000 704.815884 705.942434 706.688028 706.583140 707.213819 707.667330
83.200000 705.182403 706.290250 706.922943 706.855695 707.435733 707.891542
83.220000 705.563466 706.589413 707.215087 707.126968 707.651071 708.091273
83.240000 706.031659 706.937072 707.468106 707.387536 707.855912 708.366770
83.250000 706.185806 707.041680 707.565822 707.501815 707.960970 708.485151
83.260000 706.276014 707.178992 707.679940 707.616461 708.067963 708.574754
83.280000 706.590852 707.438195 707.915364 707.868412 708.298213 708.852346
83.300000 706.973155 707.679453 708.149235 708.114540 708.528917 709.087913
83.320000 707.314983 707.904305 708.368396 708.352299 708.769364 709.335902
83.340000 707.664054 708.179927 708.598690 708.601858 709.042077 709.618765
83.360000 707.912778 708.430442 708.825466 708.843790 709.305210 709.869211
83.380000 708.115787 708.675009 709.052013 709.090012 709.550201 710.089778
83.390000 708.206097 708.796593 709.161006 709.202417 709.675167 710.221358
83.400000 708.319786 708.892765 709.286871 709.314668 709.809293 710.308904
83.410000 708.449410 708.989746 709.422508 709.430501 709.934671 710.389819
83.420000 708.529575 709.100925 709.538354 709.548805 710.089510 710.474819
83.440000 708.731093 709.280867 709.870576 709.839944 710.395127 710.672659
83.450000 708.864795 709.377265 710.023306 709.964153 710.520975 710.782882
83.460000 708.960268 709.474114 710.163781 710.082779 710.653960 710.874712
83.470000 709.068245 709.576964 710.309467 710.200820 710.756382 710.987413
83.480000 709.163628 709.678307 710.441532 710.318663 710.872508 711.074909
83.490000 709.274223 709.772559 710.563341 710.434195 710.974500 711.177902
83.500000 709.382901 709.873376 710.701268 710.552194 711.078830 711.270806
83.510000 709.509350 710.008466 710.841633 710.673371 711.191216 711.367164
83.520000 709.601739 710.131116 710.964462 710.790523 711.283358 711.459944
83.530000 709.743573 710.262180 711.073059 710.907357 711.384038 711.543359
83.540000 709.871171 710.419691 711.195596 711.027802 711.480890 711.674499
83.550000 709.955094 710.567561 711.312564 711.141673 711.567300 711.766844
83.560000 710.048205 710.716172 711.420794 711.252652 711.657327 711.845754
83.570000 710.177723 710.833744 711.532873 711.363208 711.746219 711.969941
83.580000 710.335122 710.990897 711.630308 711.478223 711.837611 712.058002
83.590000 710.472604 711.139278 711.730870 711.597720 711.928716 712.181488
83.600000 710.661126 711.309576 711.825012 711.711424 712.020514 712.288384
83.610000 710.805046 711.466689 711.920180 711.826298 712.117482 712.453918
83.620000 710.954992 711.584934 712.014209 711.935931 712.223824 712.608609
83.630000 711.124126 711.726768 712.106563 712.052610 712.350496 712.736323
83.640000 711.307843 711.865908 712.198443 712.168731 712.472455 712.851518
83.650000 711.443764 712.001916 712.310533 712.293857 712.591372 712.986997
83.660000 711.569594 712.142185 712.421174 712.418320 712.725664 713.141125
83.670000 711.668524 712.255010 712.540614 712.537460 712.868677 713.245106
83.680000 711.790505 712.365838 712.670215 712.667286 713.013117 713.399630
83.700000 712.188282 712.626888 712.954461 712.955534 713.309733 713.704155
83.720000 712.546593 712.878888 713.236993 713.247925 713.593004 714.035647
83.740000 712.865423 713.216595 713.586603 713.583511 713.949468 714.334261
83.760000 713.140236 713.500154 713.872517 713.876647 714.262848 714.602302
83.780000 713.396726 713.774849 714.133616 714.136186 714.501907 714.836142
83.800000 713.713856 714.046486 714.408914 714.406735 714.759341 715.063049
83.810000 713.826545 714.180579 714.540192 714.532089 714.891821 715.174391
83.830000 714.136046 714.498829 714.840571 714.824895 715.172220 715.412455
83.850000 714.404984 714.758703 715.076614 715.070340 715.387896 715.655489
83.880000 714.879888 715.153462 715.444634 715.436890 715.686821 716.038393
83.890000 714.960247 715.264751 715.542517 715.540490 715.799484 716.155644
83.910000 715.180548 715.475704 715.717668 715.730639 715.980289 716.364252
83.930000 715.345240 715.649682 715.882970 715.896349 716.160451 716.507212
83.940000 715.423539 715.728455 715.958717 715.977895 716.248664 716.586856
83.960000 715.607539 715.879022 716.107815 716.132685 716.416479 716.743366
83.980000 715.776489 716.010017 716.238449 716.279552 716.571398 716.926019
83.990000 715.851831 716.090845 716.316264 716.357016 716.659904 717.020665
84.010000 715.996924 716.229216 716.462110 716.511930 716.834784 717.186103
84.020000 716.062373 716.300136 716.536454 716.592107 716.916305 717.273394
84.040000 716.209610 716.435336 716.692512 716.751333 717.097942 717.511370
84.060000 716.357425 716.589706 716.851634 716.914122 717.284465 717.666868
84.070000 716.440975 716.666326 716.941786 717.001075 717.359256 717.788259
84.110000 716.695723 716.947239 717.292598 717.342424 717.742179 718.273852
84.140000 716.949249 717.171313 717.572566 717.617758 718.067500 718.596625
84.160000 717.084169 717.338739 717.758671 717.801855 718.267912 718.806820
84.170000 717.159060 717.422965 717.866018 717.896849 718.372741 718.916362
84.190000 717.330900 717.618402 718.067569 718.093063 718.578811 719.068710
84.200000 717.410898 717.719014 718.157894 718.190792 718.678155 719.169027
84.210000 717.516566 717.821161 718.256631 718.288762 718.777546 719.255292
84.220000 717.596975 717.917100 718.352405 718.387397 718.858926 719.335081
84.240000 717.740245 718.109012 718.556174 718.575909 719.044969 719.525139
84.250000 717.805770 718.214834 718.655513 718.671605 719.135453 719.601541
84.270000 717.987649 718.402430 718.836398 718.861648 719.331032 719.773513
84.290000 718.145101 718.604896 719.052452 719.047007 719.517999 719.904818
84.300000 718.232643 718.702774 719.153502 719.141418 719.599687 719.984974
84.320000 718.364815 718.894308 719.337037 719.325103 719.786600 720.207070
84.330000 718.448759 718.995694 719.424092 719.414984 719.884932 720.291670
84.350000 718.620409 719.188996 719.613490 719.600562 720.046342 720.450908
84.380000 718.858399 719.442344 719.921442 719.873536 720.284641 720.689246
84.400000 719.048781 719.613996 720.095715 720.056505 720.473227 720.846011
84.420000 719.215723 719.810631 720.285513 720.240085 720.661188 721.084069
84.430000 719.306231 719.899445 720.369128 720.332498 720.755407 721.180632
84.450000 719.502514 720.037622 720.537132 720.501914 720.933498 721.370582
84.480000 719.762612 720.282665 720.770398 720.746153 721.192270 721.658290
84.550000 720.382792 720.851731 721.299448 721.314878 721.788676 722.317909
84.590000 720.667857 721.170622 721.626499 721.650664 722.145143 722.629985
84.630000 721.097104 721.539330 722.000957 722.026249 722.574688 723.037236
84.660000 721.408058 721.814359 722.295479 722.315740 722.847654 723.340750
84.740000 722.069063 722.506171 723.017755 723.024207 723.526322 724.056409
84.760000 722.282818 722.721315 723.220472 723.227648 723.721048 724.264814
84.790000 722.646843 723.088555 723.561691 723.550512 723.973371 724.542345
84.810000 722.876485 723.307945 723.754140 723.748359 724.145238 724.690885
84.830000 723.087256 723.552802 723.945349 723.949526 724.326115 724.830645
84.860000 723.396232 723.862757 724.228956 724.229498 724.577245 725.074948
84.880000 723.645879 724.089995 724.404399 724.414014 724.742624 725.220263
84.900000 723.892854 724.275892 724.571000 724.586480 724.922134 725.361352
84.910000 723.991292 724.359238 724.651797 724.670411 724.997137 725.433302
84.930000 724.187799 724.532792 724.797382 724.824187 725.140034 725.552208
84.950000 724.374011 724.699911 724.937898 724.971281 725.298356 725.676027
84.970000 724.523106 724.867438 725.074593 725.118798 725.437083 725.817380
84.980000 724.572081 724.943716 725.146841 725.190849 725.520610 725.888985
85.000000 724.732234 725.076354 725.280192 725.322420 725.656471 725.991977
85.040000 725.051506 725.311779 725.509492 725.559853 725.887288 726.202793
85.070000 725.270582 725.496116 725.696118 725.745446 726.068747 726.378412
85.090000 725.439268 725.624412 725.819639 725.873450 726.193808 726.494529
85.110000 725.587479 725.756643 725.952725 726.007632 726.329161 726.617048
85.120000 725.661497 725.831511 726.016766 726.078697 726.394627 726.688444
85.140000 725.796201 725.976308 726.153242 726.212882 726.523289 726.817802
85.160000 725.920953 726.107099 726.283337 726.345248 726.652646 726.951268
85.180000 726.062814 726.236904 726.418839 726.480147 726.774679 727.094907
85.190000 726.121224 726.313441 726.483065 726.551776 726.845008 727.210315
85.210000 726.252495 726.436689 726.617483 726.690178 726.990584 727.381860
85.230000 726.388067 726.564460 726.746515 726.830539 727.142039 727.568413
85.240000 726.455797 726.629371 726.809976 726.903422 727.219624 727.691398
85.260000 726.579707 726.754156 726.954450 727.040511 727.358542 727.860643
85.280000 726.698235 726.884269 727.084376 727.182127 727.503173 728.027366
85.300000 726.843773 727.009298 727.227847 727.323309 727.637433 728.199199
85.310000 726.915910 727.083964 727.304200 727.398088 727.735775 728.289614
85.330000 727.051738 727.218294 727.457304 727.542446 727.896815 728.433575
85.350000 727.187796 727.351800 727.601088 727.680438 728.049496 728.542972
85.380000 727.370426 727.532248 727.809880 727.884950 728.294870 728.759045
85.400000 727.476198 727.662747 727.951287 728.022303 728.441950 728.889741
85.420000 727.612234 727.782579 728.103669 728.164633 728.590268 729.033880
85.440000 727.740051 727.909661 728.255795 728.313659 728.744305 729.195089
85.450000 727.806086 727.988058 728.339660 728.394220 728.825363 729.265316
85.470000 727.946632 728.145737 728.487311 728.554267 728.997451 729.417484
85.490000 728.087154 728.298571 728.661517 728.714964 729.171126 729.565887
85.510000 728.228578 728.443030 728.834745 728.881808 729.331650 729.715434
85.520000 728.300908 728.542226 728.925307 728.968565 729.400721 729.784096
85.540000 728.438231 728.737327 729.089034 729.138270 729.573302 729.965942
85.560000 728.578038 728.917344 729.280456 729.312715 729.779509 730.118600
85.580000 728.742881 729.081182 729.460267 729.492193 729.968281 730.299691
85.590000 728.822335 729.180322 729.548908 729.581137 730.051987 730.371490
85.610000 728.941844 729.334389 729.719611 729.748117 730.218144 730.519057
85.630000 729.095213 729.491532 729.891937 729.913049 730.388562 730.645290
85.650000 729.258208 729.645716 730.087330 730.081748 730.538392 730.813828
85.670000 729.430614 729.808625 730.261653 730.249569 730.698253 730.940345
85.690000 729.625666 729.985790 730.462045 730.419562 730.840267 731.077658
85.710000 729.761612 730.155436 730.618764 730.585116 730.991904 731.204145
85.730000 729.887002 730.319323 730.803519 730.751960 731.137353 731.402324
85.750000 730.015709 730.465112 730.981750 730.914477 731.291111 731.566712
85.770000 730.136374 730.614817 731.144922 731.065661 731.436684 731.714328
85.790000 730.266898 730.782045 731.300352 731.216980 731.568911 731.873761
85.810000 730.407038 730.953565 731.460338 731.373248 731.710494 732.038288
85.830000 730.536909 731.114290 731.596408 731.518502 731.841419 732.226163
85.850000 730.675223 731.306868 731.726052 731.664630 731.971274 732.437102
85.870000 730.831470 731.465236 731.850399 731.807303 732.109110 732.597609
85.930000 731.260266 731.889510 732.205535 732.189202 732.474065 733.047844
85.970000 731.516819 732.127851 732.446526 732.454783 732.748252 733.512963
86.010000 731.834403 732.401684 732.686043 732.724114 733.040604 733.916201
86.030000 731.970231 732.543108 732.814780 732.865264 733.198420 734.129620
86.050000 732.147970 732.678710 732.942451 733.017774 733.360714 734.381627
86.070000 732.354714 732.826277 733.083889 733.176488 733.555036 734.558227
86.090000 732.523614 732.953788 733.227436 733.335640 733.759497 734.786702
86.110000 732.689800 733.087502 733.386818 733.505770 733.946542 734.984144
86.130000 732.840109 733.230861 733.556100 733.673103 734.129768 735.210205
86.150000 733.064444 733.366620 733.716870 733.836605 734.318373 735.395448
86.170000 733.210331 733.494747 733.872620 733.991384 734.485307 735.578306
86.190000 733.388486 733.624483 734.052062 734.150854 734.667638 735.690691
86.210000 733.514055 733.751024 734.213061 734.307888 734.836870 735.853670
86.230000 733.629641 733.874605 734.393693 734.462840 735.039656 736.051063
86.250000 733.768454 734.002753 734.550213 734.623636 735.207262 736.209200
86.270000 733.894991 734.120001 734.733311 734.781783 735.357102 736.342081
86.290000 734.011119 734.265520 734.926754 734.938885 735.516218 736.497749
86.310000 734.144539 734.393185 735.076235 735.096058 735.670563 736.688275
86.350000 734.386953 734.636647 735.404989 735.397771 735.992235 736.932524
86.370000 734.495808 734.766911 735.584122 735.556295 736.162725 737.084922
86.390000 734.627845 734.885487 735.743008 735.710458 736.334091 737.222257
86.410000 734.722178 735.022429 735.949487 735.877527 736.523733 737.351783
86.430000 734.847859 735.152423 736.131497 736.043904 736.712297 737.515671
86.450000 734.999026 735.288060 736.289277 736.204750 736.927086 737.694546
86.470000 735.119933 735.429297 736.457286 736.369405 737.088830 737.847280
86.490000 735.243311 735.570546 736.629860 736.535882 737.255512 737.975176
86.510000 735.369447 735.755809 736.786832 736.707876 737.456503 738.144029
86.530000 735.489697 735.930929 736.955655 736.875152 737.631480 738.266069
86.550000 735.598517 736.110475 737.137901 737.046760 737.816706 738.368217
86.570000 735.751297 736.308016 737.293464 737.220069 737.998591 738.499869
86.610000 736.031573 736.697564 737.647741 737.558514 738.320878 738.761692
86.630000 736.159805 736.867915 737.819023 737.732878 738.498367 738.919710
86.650000 736.302242 737.055268 737.999855 737.904085 738.652233 739.048505
86.710000 736.770673 737.663304 738.520893 738.399165 739.075905 739.392240
86.730000 736.963185 737.815495 738.701249 738.576975 739.245578 739.516388
86.750000 737.093738 738.044265 738.899577 738.753128 739.411038 739.676503
86.770000 737.345903 738.241893 739.057105 738.919929 739.560129 739.797772
86.790000 737.489871 738.434658 739.238632 739.085789 739.689116 739.959812
86.830000 737.887142 738.796058 739.549328 739.397603 739.929752 740.158458
86.850000 738.098268 738.976989 739.719861 739.560999 740.070414 740.289440
86.870000 738.345181 739.188363 739.856357 739.713331 740.192626 740.430518
86.910000 738.700415 739.498969 740.139988 739.999185 740.434330 740.664298
86.930000 738.890475 739.632992 740.284572 740.148808 740.573132 740.802706
86.950000 739.089612 739.833255 740.416980 740.297885 740.712607 740.928369
86.990000 739.447053 740.136992 740.675792 740.574232 740.951271 741.162799
87.010000 739.648003 740.325894 740.820720 740.724652 741.086599 741.291864
87.030000 739.840604 740.488471 740.971033 740.872354 741.226941 741.429239
87.050000 739.986685 740.657831 741.107626 741.017522 741.362263 741.571073
87.070000 740.127740 740.815862 741.253836 741.165290 741.508027 741.733697
87.090000 740.274309 740.952328 741.383713 741.310440 741.636608 741.875978
87.110000 740.431159 741.140393 741.533505 741.464495 741.780823 742.029264
87.130000 740.618978 741.306075 741.670499 741.612557 741.931487 742.155235
87.170000 741.020536 741.607685 741.949322 741.910182 742.220335 742.494306
87.190000 741.203464 741.771372 742.091595 742.060532 742.362732 742.673556
87.230000 741.615472 742.055718 742.351915 742.346563 742.648372 742.978806
87.270000 742.008987 742.357177 742.638702 742.639952 742.933389 743.272509
87.290000 742.158046 742.505264 742.802145 742.800169 743.097695 743.427280
87.310000 742.334391 742.661683 742.971394 742.968616 743.265162 743.611320
87.330000 742.510633 742.829830 743.150122 743.139812 743.436906 743.775392
87.350000 742.673644 743.002869 743.316815 743.311173 743.625003 743.968231
87.370000 742.850830 743.147365 743.473805 743.479072 743.799007 744.158862
87.390000 743.004406 743.325063 743.650021 743.661517 744.003297 744.362260
87.410000 743.196114 743.500887 743.838199 743.853073 744.207372 744.537092
87.430000 743.401229 743.726979 744.070843 744.081760 744.446400 744.783283
87.460000 743.782201 744.128959 744.518633 744.514069 744.900114 745.256388
87.480000 743.994244 744.347326 744.746745 744.737393 745.133408 745.454723
87.520000 744.390847 744.761942 745.117959 745.113816 745.466172 745.741420
87.540000 744.593408 744.952920 745.315343 745.302587 745.659237 745.884918
