depth(m) lower_95(kyr) lower_68(kyr) median(kyr) mean(kyr) upper_68(kyr) upper_95(kyr)
162.300000 2020.241768 2023.324831 2026.298263 2026.227256 2029.245167 2031.733956
162.400000 2021.510516 2024.510705 2027.446596 2027.397173 2030.330749 2032.751891
162.500000 2023.164480 2025.942687 2028.601422 2028.592837 2031.387227 2033.780124
162.600000 2024.265462 2027.239530 2029.912118 2029.798458 2032.481335 2034.580315
162.700000 2026.053067 2028.476909 2031.053790 2031.022212 2033.478695 2035.725951
162.800000 2027.324523 2029.806405 2032.467254 2032.397990 2034.795001 2037.086488
162.900000 2028.720157 2031.368450 2033.936682 2033.773114 2036.075656 2038.307131
163.000000 2030.210789 2032.943146 2035.280978 2035.250735 2037.464743 2039.994191
163.100000 2032.192853 2034.560530 2036.773699 2036.746755 2038.915721 2041.318069
163.200000 2033.840082 2035.770514 2037.995617 2038.040207 2040.237801 2042.938053
163.300000 2035.150555 2037.026671 2039.194606 2039.279552 2041.409014 2044.047049
163.400000 2036.149611 2038.055906 2040.275529 2040.442768 2042.682970 2045.196479
163.500000 2037.254781 2039.147039 2041.546539 2041.604541 2043.954875 2046.374048
163.600000 2038.295412 2040.265581 2042.638497 2042.746189 2045.015364 2047.661895
163.700000 2039.345643 2041.551680 2043.707865 2043.879043 2046.191878 2049.443376
163.800000 2040.440764 2042.690693 2044.856628 2045.062095 2047.346127 2051.280678
163.900000 2041.365010 2043.828624 2046.161471 2046.348598 2048.712150 2053.115689
164.000000 2042.419045 2045.034088 2047.282905 2047.625573 2050.169138 2055.132491
164.100000 2043.242567 2046.276831 2048.614165 2048.968368 2051.873387 2056.291111
164.200000 2044.703910 2047.482259 2049.973424 2050.414843 2053.615418 2057.651053
164.300000 2045.760291 2048.752877 2051.540025 2051.879517 2055.376743 2058.987478
164.400000 2047.303795 2050.105178 2053.182904 2053.403635 2056.984530 2060.233693
164.500000 2048.883588 2051.591067 2054.885025 2054.968360 2058.430203 2061.156550
164.600000 2050.750412 2053.688608 2056.487916 2056.584597 2059.599068 2061.936972
164.700000 2052.699201 2055.669606 2058.541008 2058.456767 2061.335146 2063.267649
164.800000 2054.740260 2057.845358 2060.435545 2060.276765 2062.758490 2064.564470
164.900000 2057.364597 2060.159282 2062.731276 2062.486594 2064.633407 2066.617107
165.000000 2060.430021 2062.808729 2064.777391 2064.653270 2066.483440 2068.300339
165.100000 2062.509992 2064.714875 2066.355116 2066.334162 2068.189161 2069.971304
165.200000 2064.685956 2066.205528 2067.875885 2067.898659 2069.553521 2071.473228
165.300000 2065.794822 2067.335376 2069.152694 2069.168978 2070.826870 2072.756023
165.400000 2066.843657 2068.331235 2070.291811 2070.271962 2072.008447 2074.087780
165.500000 2067.807997 2069.394526 2071.342151 2071.362575 2073.213548 2075.451823
165.600000 2068.666496 2070.401921 2072.443177 2072.470627 2074.469561 2076.815292
165.700000 2069.526806 2071.450857 2073.508554 2073.577727 2075.570208 2078.149124
165.800000 2070.552696 2072.461199 2074.580423 2074.704012 2076.817049 2079.722572
165.900000 2071.524178 2073.647547 2075.731401 2075.883900 2078.085243 2081.248995
166.000000 2072.798276 2074.765370 2076.923380 2077.141768 2079.474561 2082.612176
166.100000 2073.910287 2075.844498 2078.191630 2078.428370 2081.079949 2084.098812
166.200000 2074.987597 2077.054783 2079.720282 2079.873345 2082.677373 2085.719812
166.300000 2076.101922 2078.288383 2081.059825 2081.255856 2084.374103 2087.088805
166.400000 2077.266634 2079.523551 2082.495461 2082.685098 2085.908217 2088.509404
166.500000 2078.439591 2080.695687 2083.983354 2084.075285 2087.350115 2090.149277
166.600000 2079.381569 2081.941773 2085.531023 2085.458792 2088.863071 2091.262219
166.700000 2080.406692 2082.976458 2087.040428 2086.791886 2090.296600 2092.835485
166.800000 2081.295814 2084.120065 2088.339391 2088.043132 2091.587183 2094.532960
166.900000 2082.371547 2085.296435 2089.462445 2089.194221 2092.862179 2095.396897
167.000000 2083.270265 2086.322329 2090.564217 2090.304117 2094.018646 2096.863394
167.100000 2084.130177 2087.183004 2091.757987 2091.371645 2095.129684 2097.893824
167.200000 2085.005958 2088.157183 2092.779471 2092.412446 2096.218397 2099.029403
167.300000 2085.986339 2089.232070 2093.967838 2093.484004 2097.316034 2100.113572
167.400000 2086.801384 2090.263216 2095.032225 2094.537783 2098.438448 2101.042790
167.500000 2087.740931 2091.659623 2096.191404 2095.683221 2099.475709 2102.172591
167.600000 2088.799323 2092.657423 2097.369009 2096.837165 2100.417271 2103.346659
167.700000 2090.045581 2093.802473 2098.513342 2097.986344 2101.530200 2104.337428
167.800000 2091.357855 2095.225067 2099.660614 2099.165331 2102.695180 2105.236471
167.900000 2092.530296 2096.448618 2100.887978 2100.354665 2103.805304 2106.538175
168.000000 2093.563790 2097.826773 2102.080786 2101.563139 2104.956990 2107.577764
168.100000 2094.815865 2099.361821 2103.360972 2102.832102 2105.994513 2108.531216
168.200000 2096.492442 2100.733779 2104.668301 2104.097774 2107.032713 2109.807399
168.300000 2098.001025 2102.242626 2105.847996 2105.387955 2108.181852 2110.948730
168.400000 2099.228935 2103.813289 2106.990593 2106.633104 2109.224109 2112.184646
168.500000 2101.192282 2105.162702 2108.212664 2107.887753 2110.300329 2113.094807
168.600000 2102.945647 2106.777202 2109.323306 2109.110051 2111.461517 2113.980693
168.700000 2104.102636 2108.257259 2110.597410 2110.414275 2112.760082 2115.127284
168.800000 2105.530020 2109.726009 2111.910722 2111.744414 2113.925540 2116.476465
168.900000 2107.482665 2110.940659 2113.169398 2113.036247 2115.237660 2117.509954
169.000000 2109.212497 2112.473705 2114.676291 2114.576387 2116.822004 2118.848596
169.100000 2110.674483 2113.975924 2116.162937 2116.000875 2118.187738 2120.199779
169.200000 2112.472162 2115.253262 2117.551331 2117.348897 2119.398453 2121.608625
169.300000 2114.604233 2116.563493 2118.716045 2118.596889 2120.582115 2122.403448
169.400000 2115.725424 2117.804219 2119.824827 2119.799046 2121.796162 2123.619288
169.500000 2116.843638 2119.045056 2121.036589 2120.971880 2122.943473 2124.900309
169.600000 2118.220813 2120.272876 2122.238495 2122.200481 2124.220931 2126.468332
169.700000 2119.315035 2121.519791 2123.432592 2123.436075 2125.331119 2127.740756
169.800000 2121.003999 2122.979380 2124.885978 2124.874632 2126.704540 2129.348685
169.900000 2122.222289 2124.436029 2126.601264 2126.605670 2128.729361 2131.648686
170.000000 2123.775483 2126.077690 2128.173471 2128.293466 2130.616105 2133.581779
170.100000 2125.074109 2127.502031 2129.730833 2129.851323 2132.286408 2135.371776
170.200000 2126.395235 2128.741909 2131.181446 2131.334794 2134.069814 2137.308667
170.344444 2128.028275 2130.563666 2133.466372 2133.530987 2136.463812 2140.003036
170.488889 2129.306578 2132.435011 2135.656195 2135.697018 2138.904384 2142.548067
170.633333 2131.446061 2134.452511 2137.779599 2137.862552 2141.280752 2144.650830
170.777778 2133.424428 2136.664936 2139.972763 2139.989904 2143.531928 2146.662507
170.922222 2135.929753 2138.784283 2142.192663 2142.142245 2145.451507 2148.289748
171.066667 2137.968582 2141.209052 2144.266419 2144.292292 2147.282020 2150.034622
171.211111 2140.659198 2143.638977 2146.306011 2146.288018 2149.140700 2151.826971
171.355556 2143.128374 2145.882810 2148.146436 2148.228486 2150.695474 2153.324716
171.500000 2145.894650 2147.962110 2150.026219 2150.111685 2152.342358 2154.855272
171.600000 2147.035532 2149.056835 2151.109748 2151.172844 2153.338998 2155.735677
171.700000 2148.135629 2150.037734 2152.044379 2152.168297 2154.314686 2156.527104
171.800000 2149.016405 2151.021194 2153.021485 2153.158522 2155.396802 2157.358898
171.900000 2150.038407 2151.892747 2154.057367 2154.141427 2156.269183 2158.288958
172.000000 2150.869063 2152.907873 2155.098504 2155.110420 2157.203505 2159.107171
172.100000 2151.680520 2153.908679 2156.048600 2156.035765 2158.248902 2160.172995
172.200000 2152.754043 2154.888152 2157.054936 2156.985752 2159.245390 2161.126755
172.300000 2153.629433 2155.819007 2157.969885 2157.939729 2160.147224 2162.074546
172.400000 2154.586206 2156.814231 2158.819670 2158.854189 2161.066484 2162.967472
172.500000 2155.565051 2157.791283 2159.761802 2159.829742 2161.976864 2164.061076
172.600000 2156.586388 2158.744175 2160.671046 2160.800225 2162.910798 2165.040095
172.700000 2157.562722 2159.769912 2161.600244 2161.762288 2163.878732 2165.966311
172.800000 2158.839187 2160.727531 2162.574386 2162.741812 2164.834451 2166.944523
172.900000 2160.036778 2161.713812 2163.628233 2163.795224 2166.048693 2167.883089
173.000000 2160.985275 2162.663594 2164.764601 2164.830022 2166.999606 2169.075750
173.100000 2162.020391 2163.612855 2165.663275 2165.774182 2167.989426 2170.039330
173.200000 2163.023428 2164.604688 2166.610889 2166.737693 2168.931973 2171.030892
173.300000 2163.881499 2165.497583 2167.674307 2167.738242 2170.049171 2171.806408
173.400000 2164.795742 2166.498132 2168.733326 2168.750438 2171.018357 2172.745468
173.500000 2165.666164 2167.621879 2169.785763 2169.755381 2171.943214 2173.669520
173.600000 2166.755893 2168.571233 2170.878571 2170.781880 2172.825201 2174.481593
173.700000 2167.967580 2169.837843 2171.999230 2171.882828 2173.860098 2175.421807
173.800000 2169.020084 2171.147563 2173.141118 2173.072565 2175.038735 2176.637801
173.900000 2170.180948 2172.320797 2174.354070 2174.281257 2176.240203 2177.930174
174.000000 2171.300801 2173.567647 2175.461420 2175.391714 2177.275508 2179.060332
174.100000 2172.693897 2174.675948 2176.529425 2176.446995 2178.252956 2179.940787
174.200000 2173.688330 2175.642051 2177.365762 2177.355737 2179.137197 2180.846075
174.300000 2174.813809 2176.548688 2178.337435 2178.260999 2180.068594 2181.717914
174.400000 2175.632410 2177.358019 2179.147209 2179.122026 2180.892112 2182.513768
174.500000 2176.639669 2178.166535 2179.969112 2179.947361 2181.752437 2183.428426
174.600000 2177.428071 2178.915651 2180.738923 2180.742925 2182.588507 2184.294410
174.700000 2178.100091 2179.649405 2181.555362 2181.542679 2183.328058 2185.194985
174.800000 2178.866399 2180.409643 2182.305194 2182.327459 2184.172715 2186.027300
174.900000 2179.756322 2181.139322 2183.049246 2183.105524 2185.008443 2186.870852
175.000000 2180.444085 2181.904505 2183.847428 2183.883239 2185.865369 2187.668464
175.100000 2181.097154 2182.681712 2184.661773 2184.689956 2186.605977 2188.506474
175.200000 2181.965462 2183.548914 2185.438205 2185.516918 2187.544826 2189.397194
175.300000 2182.762814 2184.365380 2186.192623 2186.317077 2188.325793 2190.221207
175.400000 2183.547219 2185.179651 2187.055783 2187.154019 2189.210123 2191.100277
175.500000 2184.429504 2186.041953 2187.910518 2188.007827 2190.075031 2191.940169
175.600000 2185.192947 2186.968437 2188.825720 2188.917404 2190.939444 2192.835946
175.700000 2186.185338 2187.800758 2189.680689 2189.787870 2191.738642 2193.828622
175.800000 2187.006185 2188.634106 2190.664410 2190.713662 2192.775208 2194.775375
175.900000 2188.094799 2189.438988 2191.584264 2191.618698 2193.712308 2195.635626
176.000000 2188.974546 2190.255730 2192.530220 2192.535781 2194.741253 2196.481675
176.100000 2189.684626 2191.115344 2193.444537 2193.439672 2195.628427 2197.359985
176.200000 2190.404195 2192.047345 2194.335808 2194.352037 2196.584608 2198.548311
176.300000 2191.241686 2192.905764 2195.265164 2195.257696 2197.521749 2199.365062
176.400000 2192.152636 2193.892922 2196.168334 2196.201212 2198.510803 2200.313386
176.500000 2193.012300 2194.825004 2197.138851 2197.112614 2199.397490 2201.147548
176.600000 2193.846599 2195.739263 2198.159896 2198.035033 2200.293157 2202.224085
176.700000 2194.918546 2196.678586 2199.081121 2198.952621 2201.134648 2203.130980
176.800000 2195.825224 2197.648416 2200.019825 2199.855728 2202.019171 2204.028901
176.900000 2196.556443 2198.542729 2200.903284 2200.805168 2202.907338 2205.076912
177.000000 2197.480821 2199.549229 2201.856499 2201.760188 2203.765103 2206.028628
177.100000 2198.313104 2200.559404 2202.826846 2202.773109 2204.711326 2207.190635
177.200000 2199.413794 2201.549652 2203.775457 2203.775864 2205.692998 2208.419996
177.300000 2200.472292 2202.633029 2204.768874 2204.801015 2206.822700 2209.730182
177.400000 2201.359675 2203.708805 2205.688547 2205.810771 2207.964249 2210.622093
177.500000 2202.522900 2204.782443 2206.687060 2206.921465 2209.192932 2212.134987
177.600000 2203.583191 2205.822295 2207.794358 2208.067527 2210.401531 2213.225633
177.700000 2204.667512 2206.788744 2208.924782 2209.207014 2211.860993 2214.840696
177.800000 2205.953581 2207.698819 2209.986033 2210.337054 2213.152808 2216.224378
177.900000 2206.843478 2208.635279 2211.118413 2211.490677 2214.460380 2218.145997
178.000000 2207.635398 2209.519757 2212.353315 2212.653664 2215.758544 2219.538631
178.100000 2208.577548 2210.514603 2213.725891 2213.812271 2217.064816 2220.503599
178.200000 2209.418935 2211.421673 2214.784984 2214.955007 2218.390418 2221.681209
178.300000 2210.283611 2212.449838 2215.952754 2216.088151 2219.542080 2222.765123
178.400000 2211.033883 2213.301878 2217.149309 2217.207664 2220.813622 2224.035052
178.500000 2211.897832 2214.389467 2218.335934 2218.289966 2221.990586 2225.230456
178.600000 2212.616766 2215.528066 2219.607552 2219.389473 2223.017111 2226.296401
178.700000 2213.397790 2216.570752 2220.801196 2220.456746 2223.905461 2227.293161
178.800000 2214.314358 2217.608086 2221.881306 2221.505632 2224.925095 2228.162190
178.900000 2215.003599 2218.815738 2222.921218 2222.518301 2225.829440 2229.262292
179.000000 2215.880836 2219.839763 2223.932386 2223.499800 2226.751935 2229.852788
179.100000 2216.729464 2220.712274 2225.020078 2224.550275 2227.727971 2230.696240
179.175000 2217.377473 2221.503273 2225.826046 2225.253029 2228.466373 2231.412960
179.250000 2217.988587 2222.335608 2226.439638 2225.927478 2229.199281 2232.025103
179.394737 2218.983382 2223.669837 2227.646958 2227.172573 2230.471467 2233.160968
179.539474 2220.489926 2224.919119 2228.905780 2228.432948 2231.704738 2234.501122
179.684211 2221.798642 2226.235030 2230.054085 2229.676253 2233.001780 2235.872981
179.828947 2223.060040 2227.543223 2231.281002 2230.914922 2234.120299 2236.989931
179.973684 2224.214743 2228.796453 2232.485227 2232.124942 2235.360217 2238.089154
180.118421 2225.612543 2230.134136 2233.542253 2233.322801 2236.496015 2239.086919
180.263158 2226.965411 2231.590852 2234.784053 2234.573965 2237.693404 2240.185223
180.407895 2228.187455 2232.845660 2236.042828 2235.818803 2238.865761 2241.366903
180.552632 2229.656190 2234.183107 2237.238194 2237.044777 2239.937406 2242.465030
180.697368 2230.598799 2235.514639 2238.461417 2238.217952 2241.100386 2243.670161
180.842105 2232.319865 2236.667373 2239.545666 2239.383075 2242.255415 2244.919627
180.986842 2233.567138 2237.793423 2240.832855 2240.637260 2243.410457 2246.083961
181.131579 2234.695846 2239.006045 2242.120750 2241.834076 2244.594552 2247.518728
181.276316 2235.731559 2240.335139 2243.254038 2243.041785 2245.781456 2248.827778
181.421053 2237.096564 2241.576186 2244.518886 2244.285715 2247.025693 2249.912083
181.565789 2238.677170 2242.839608 2245.796488 2245.547720 2248.366157 2251.334350
181.710526 2240.615173 2244.229904 2247.041149 2246.826746 2249.577141 2252.634977
181.855263 2242.018060 2245.639231 2248.127731 2248.103303 2250.716628 2253.989822
182.000000 2243.525053 2247.110407 2249.331194 2249.421048 2252.038579 2255.231578
182.100000 2244.538069 2247.976930 2250.228500 2250.398720 2252.980034 2256.357767
182.200000 2246.089864 2248.956530 2251.160370 2251.449196 2254.019426 2257.553001
182.300000 2247.696836 2250.296234 2252.541024 2252.722281 2255.321074 2258.647531
182.400000 2249.200238 2251.578236 2253.843361 2254.003841 2256.540287 2259.616347
182.500000 2250.361247 2252.742474 2254.914965 2255.114221 2257.708509 2260.813672
182.600000 2251.388811 2253.680567 2256.104959 2256.205679 2258.787415 2261.805863
182.733333 2252.434344 2255.003085 2257.485125 2257.548472 2260.176429 2262.960239
182.866667 2253.630074 2256.359827 2258.821588 2258.868637 2261.444106 2264.117439
183.000000 2254.788813 2257.543913 2260.218631 2260.203557 2262.893619 2265.485100
183.100000 2255.773688 2258.501532 2261.377078 2261.269087 2263.801805 2266.581903
183.200000 2256.983626 2259.532521 2262.485016 2262.286768 2264.819453 2267.293468
183.300000 2257.953143 2260.598116 2263.554009 2263.366934 2265.967297 2268.225185
183.400000 2258.990569 2261.850520 2264.546276 2264.441070 2267.066163 2269.129929
183.500000 2260.291196 2263.095393 2265.727740 2265.617476 2268.166005 2270.017270
183.600000 2261.674082 2264.557719 2266.951235 2266.884190 2269.300513 2271.337815
183.700000 2262.835703 2265.691088 2268.255150 2268.100223 2270.461529 2272.272114
183.800000 2264.565997 2267.102247 2269.509005 2269.383580 2271.583847 2273.577543
183.900000 2266.146907 2268.618050 2270.792362 2270.708067 2272.789798 2274.702593
184.000000 2267.554073 2270.166607 2272.276772 2272.166381 2274.225468 2276.200138
184.100000 2269.172618 2271.603388 2273.648333 2273.595256 2275.589512 2277.620063
184.200000 2270.645803 2273.099364 2275.039323 2274.985732 2276.923022 2278.719924
184.300000 2272.105544 2274.547086 2276.326451 2276.334044 2278.197546 2279.856743
184.400000 2273.783731 2275.639108 2277.484070 2277.452051 2279.282505 2280.829010
184.500000 2274.935667 2276.772504 2278.570580 2278.556530 2280.366292 2281.857664
184.600000 2275.876480 2277.812787 2279.645849 2279.542222 2281.375054 2282.895321
184.700000 2276.825807 2278.654106 2280.622908 2280.484683 2282.221832 2283.656860
184.800000 2277.846945 2279.552014 2281.513265 2281.359824 2283.057699 2284.429916
184.900000 2278.660009 2280.430746 2282.355152 2282.213465 2283.885119 2285.134860
185.000000 2279.714834 2281.412380 2283.199816 2283.098793 2284.760683 2286.020696
185.100000 2280.496696 2282.265759 2284.054562 2283.916915 2285.528549 2286.755275
185.200000 2281.264939 2283.158836 2284.894355 2284.762579 2286.332734 2287.546534
185.300000 2282.284730 2284.072634 2285.724183 2285.613544 2287.087974 2288.281431
185.400000 2283.360966 2285.031650 2286.570680 2286.478667 2287.867538 2289.240378
185.500000 2284.198649 2286.051795 2287.448446 2287.387200 2288.778347 2290.161033
185.600000 2285.347021 2287.033384 2288.358493 2288.350183 2289.743216 2291.158976
185.700000 2286.327096 2288.059323 2289.323341 2289.373004 2290.775793 2292.258077
185.800000 2287.612433 2289.106574 2290.443471 2290.458310 2291.893771 2293.499869
185.900000 2288.547234 2290.087803 2291.528225 2291.537536 2293.034443 2294.603971
186.000000 2289.737239 2291.013212 2292.565115 2292.574816 2294.097592 2295.523168
186.100000 2290.601796 2291.789542 2293.534785 2293.474785 2295.106058 2296.369054
186.200000 2291.486463 2292.629996 2294.459196 2294.361283 2296.027132 2297.125444
186.300000 2292.242644 2293.411910 2295.315554 2295.213413 2296.881923 2298.033068
186.400000 2293.035039 2294.165636 2296.122980 2296.030082 2297.739939 2298.905509
186.500000 2293.738921 2294.989541 2296.915750 2296.835736 2298.493587 2299.883099
186.600000 2294.332855 2295.877633 2297.762243 2297.658088 2299.316861 2300.720039
186.700000 2295.006950 2296.679207 2298.601058 2298.454794 2300.113203 2301.465323
186.800000 2295.817048 2297.483717 2299.423209 2299.275823 2300.948361 2302.294316
186.900000 2296.568047 2298.347218 2300.198584 2300.090867 2301.773236 2303.182527
187.000000 2297.251734 2299.186834 2301.037223 2300.912014 2302.587565 2304.004240
187.100000 2298.157445 2300.072959 2301.867152 2301.784385 2303.395051 2305.206501
187.200000 2298.970816 2300.948143 2302.726569 2302.704594 2304.437331 2306.321691
187.300000 2299.955419 2301.878906 2303.624081 2303.672076 2305.386588 2307.331830
187.400000 2300.974293 2302.793787 2304.669926 2304.699928 2306.484530 2308.762381
