depth(m) lower_95(kyr) lower_68(kyr) median(kyr) mean(kyr) upper_68(kyr) upper_95(kyr)
549.800000 1737.113731 1739.277796 1741.176309 1740.956290 1742.568129 1743.706809
549.925000 1737.666721 1739.907838 1741.665644 1741.472338 1742.984181 1744.128537
550.050000 1738.194902 1740.530031 1742.246463 1741.993525 1743.410699 1744.561680
550.175000 1738.787959 1741.076425 1742.729900 1742.506598 1743.850752 1745.128995
550.300000 1739.531590 1741.694728 1743.222276 1743.034435 1744.272134 1745.673669
550.435000 1740.366041 1742.344896 1743.777449 1743.643170 1744.779652 1746.182559
550.570000 1740.821443 1743.112633 1744.315305 1744.240102 1745.352830 1746.941926
550.685000 1741.647008 1743.688405 1744.762746 1744.708220 1745.804005 1747.545044
550.800000 1742.287752 1744.125596 1745.208652 1745.180077 1746.215759 1748.101546
550.920000 1742.773696 1744.692681 1745.651309 1745.694251 1746.725447 1748.637615
551.040000 1743.829461 1745.231621 1746.155617 1746.209132 1747.229193 1749.223516
551.170000 1744.423341 1745.783076 1746.658967 1746.766266 1747.803114 1749.792713
551.300000 1745.053455 1746.283298 1747.201671 1747.340527 1748.419765 1750.351011
551.425000 1745.621191 1746.753037 1747.722534 1747.876669 1748.998152 1750.807768
551.550000 1746.154162 1747.276296 1748.310253 1748.436942 1749.687457 1751.355369
551.675000 1746.762657 1747.736520 1748.834794 1749.008712 1750.392071 1752.017544
551.800000 1747.260232 1748.236222 1749.381933 1749.581173 1751.047498 1752.591109
551.925000 1747.718727 1748.813727 1749.941085 1750.144909 1751.597603 1753.309987
552.050000 1748.125258 1749.316929 1750.537536 1750.708388 1752.132368 1754.054385
552.175000 1748.701104 1749.892419 1751.189235 1751.302933 1752.744907 1754.630998
552.300000 1749.355099 1750.490392 1751.843010 1751.920056 1753.337813 1755.217355
552.425000 1749.912979 1751.077449 1752.442761 1752.578767 1753.970702 1756.334807
552.550000 1750.445062 1751.706478 1753.082089 1753.259394 1754.855492 1757.002206
552.675000 1751.032338 1752.345403 1753.699793 1753.945127 1755.642265 1757.848352
552.800000 1751.628411 1753.028405 1754.412977 1754.653299 1756.355296 1758.529604
552.925000 1752.414270 1753.698993 1755.094590 1755.335140 1757.160439 1759.221241
553.050000 1753.061994 1754.263172 1755.773016 1756.030719 1757.933180 1759.875640
553.175000 1753.631674 1754.807382 1756.382198 1756.654043 1758.580530 1760.780928
553.300000 1754.191544 1755.435463 1757.075633 1757.314442 1759.240672 1761.482706
553.425000 1754.914423 1756.059364 1757.645314 1757.907147 1759.812318 1762.120493
553.550000 1755.461200 1756.538954 1758.270117 1758.467313 1760.441058 1762.695038
553.675000 1755.969050 1757.137576 1758.787292 1759.038308 1760.991976 1763.359373
553.800000 1756.404383 1757.645341 1759.347026 1759.592422 1761.504308 1764.063629
553.925000 1756.868996 1758.105285 1759.859677 1760.111980 1762.024874 1764.324107
554.050000 1757.340061 1758.610266 1760.489150 1760.635301 1762.600529 1764.867403
554.175000 1757.918219 1759.098672 1761.068126 1761.131344 1763.067178 1765.305424
554.300000 1758.272598 1759.542486 1761.539741 1761.601792 1763.580251 1765.695330
554.425000 1758.794433 1760.050652 1762.041208 1762.085379 1764.028784 1766.107030
554.550000 1759.176240 1760.493001 1762.521240 1762.563904 1764.515395 1766.486506
554.688889 1759.544794 1760.999932 1763.005252 1763.080060 1765.063672 1767.054170
554.827778 1760.032732 1761.577173 1763.514378 1763.574724 1765.586697 1767.569706
554.966667 1760.528848 1762.173999 1763.967717 1764.058091 1766.112501 1768.004781
555.105556 1760.930577 1762.723337 1764.470500 1764.551125 1766.597247 1768.564030
555.244444 1761.382528 1763.181490 1764.885436 1765.027700 1767.012429 1769.025882
555.383333 1761.862560 1763.670153 1765.389532 1765.518434 1767.512037 1769.471836
555.522222 1762.258156 1764.158778 1765.824286 1765.991749 1767.955649 1769.796138
555.661111 1762.687535 1764.660272 1766.318112 1766.458568 1768.457265 1770.222314
555.800000 1763.178717 1765.162487 1766.781856 1766.936749 1768.902680 1770.559769
555.925000 1763.544357 1765.598150 1767.207385 1767.377259 1769.296118 1770.892964
556.050000 1764.074736 1766.105643 1767.663401 1767.817959 1769.709709 1771.239252
556.175000 1764.420732 1766.542818 1768.102026 1768.250642 1770.106626 1771.618166
556.300000 1764.850665 1767.004662 1768.522879 1768.679105 1770.556634 1771.922784
556.425000 1765.261216 1767.424257 1768.937936 1769.099081 1771.029897 1772.306616
556.550000 1765.645159 1767.802519 1769.412229 1769.532660 1771.478747 1772.763826
556.675000 1766.024893 1768.240725 1769.861282 1769.964090 1771.875913 1773.293414
556.800000 1766.580930 1768.642611 1770.297268 1770.387763 1772.320273 1773.657877
556.925000 1766.883118 1769.046905 1770.708437 1770.810538 1772.764072 1774.110899
557.050000 1767.261638 1769.409971 1771.159891 1771.220672 1773.122082 1774.475854
557.190000 1767.678165 1769.834623 1771.780541 1771.689605 1773.591066 1775.083158
557.330000 1768.074025 1770.229280 1772.318072 1772.144858 1774.048326 1775.547420
557.440000 1768.595044 1770.529320 1772.761901 1772.502633 1774.447559 1775.882135
557.550000 1768.878765 1770.830321 1773.125663 1772.848660 1774.824343 1776.159175
557.680000 1769.309460 1771.225035 1773.645976 1773.259069 1775.242950 1776.450230
557.810000 1769.643743 1771.553612 1774.060383 1773.656148 1775.617244 1776.885826
557.954545 1770.183009 1771.964575 1774.517233 1774.085887 1776.016798 1777.205503
558.099091 1770.719211 1772.351380 1774.936431 1774.520719 1776.453918 1777.504367
558.243636 1771.153268 1772.750060 1775.348729 1774.930748 1776.858459 1777.829026
558.388182 1771.688788 1773.115898 1775.800231 1775.345879 1777.296427 1778.186143
558.532727 1772.268977 1773.535537 1776.223598 1775.759869 1777.710210 1778.529252
558.677273 1772.596519 1773.974742 1776.706638 1776.171991 1778.099121 1778.876357
558.821818 1773.040614 1774.365918 1777.156961 1776.603699 1778.513792 1779.172259
558.966364 1773.505270 1774.807178 1777.613018 1777.022602 1778.872371 1779.562298
559.110909 1773.990436 1775.187847 1777.988838 1777.419311 1779.240903 1779.880529
559.255455 1774.442069 1775.579183 1778.448570 1777.827870 1779.615464 1780.206573
559.400000 1774.753640 1776.024664 1778.914562 1778.242582 1779.981220 1780.488976
559.525000 1775.142724 1776.445512 1779.305640 1778.604163 1780.316912 1780.786509
559.650000 1775.482602 1776.790649 1779.722880 1778.975046 1780.615976 1781.094537
559.775000 1775.904115 1777.216241 1780.138115 1779.349864 1780.939672 1781.395688
559.900000 1776.329085 1777.650187 1780.518301 1779.729554 1781.243271 1781.661032
560.025000 1776.762650 1777.997105 1780.898510 1780.106541 1781.555700 1781.974203
560.150000 1777.232576 1778.426285 1781.278320 1780.498526 1781.879787 1782.279681
560.275000 1777.655572 1778.940420 1781.620745 1780.896004 1782.190885 1782.568202
560.400000 1778.164952 1779.414569 1781.996031 1781.299027 1782.509331 1782.896262
560.525000 1778.554592 1779.868156 1782.359068 1781.689200 1782.831271 1783.206995
560.650000 1778.948274 1780.366697 1782.692189 1782.089464 1783.167237 1783.575392
560.775000 1779.336349 1780.919456 1783.033805 1782.477931 1783.497889 1783.930150
560.900000 1779.741895 1781.362291 1783.375970 1782.861806 1783.844209 1784.298030
561.025000 1780.121041 1781.808473 1783.725270 1783.243366 1784.184941 1784.662066
561.150000 1780.574565 1782.266874 1784.042248 1783.607372 1784.495868 1784.990924
561.275000 1781.152519 1782.736978 1784.368238 1783.984837 1784.838275 1785.346951
561.400000 1781.583931 1783.301458 1784.702741 1784.356426 1785.182797 1785.743555
561.525000 1781.996125 1783.727552 1785.051657 1784.726636 1785.525048 1786.097246
561.650000 1782.437059 1784.096908 1785.375807 1785.087296 1785.835191 1786.544383
561.775000 1782.769508 1784.491311 1785.684413 1785.445158 1786.159293 1786.943039
561.900000 1783.140242 1784.879311 1786.011041 1785.795966 1786.507028 1787.366626
562.025000 1783.557285 1785.242890 1786.313235 1786.139232 1786.819548 1787.843283
562.150000 1784.139251 1785.634663 1786.638105 1786.485131 1787.163954 1788.208632
562.275000 1784.614740 1785.962082 1786.960047 1786.821787 1787.480580 1788.455609
562.400000 1785.050686 1786.333601 1787.284275 1787.169725 1787.816645 1788.885215
562.525000 1785.478946 1786.635796 1787.606932 1787.497662 1788.151810 1789.194829
562.650000 1785.911246 1786.978346 1787.894767 1787.828526 1788.494682 1789.573655
562.775000 1786.311352 1787.301273 1788.230607 1788.158458 1788.790090 1789.925634
562.900000 1786.734038 1787.635620 1788.545294 1788.484750 1789.100418 1790.322649
563.025000 1787.143999 1787.986317 1788.870476 1788.810027 1789.403950 1790.647714
563.150000 1787.504144 1788.335434 1789.190325 1789.132337 1789.735214 1791.034705
563.275000 1787.933533 1788.680300 1789.514429 1789.464553 1790.082569 1791.386325
563.400000 1788.268316 1789.010228 1789.809897 1789.791490 1790.385483 1791.704806
563.500000 1788.564933 1789.277229 1790.084328 1790.057452 1790.635712 1791.952516
563.600000 1788.853910 1789.531531 1790.351808 1790.324263 1790.909363 1792.241844
563.700000 1789.160383 1789.781123 1790.610436 1790.586747 1791.179757 1792.503992
563.800000 1789.458852 1790.061677 1790.867278 1790.853224 1791.430839 1792.809320
563.900000 1789.698105 1790.356977 1791.130813 1791.120945 1791.678525 1793.102097
564.025000 1790.059479 1790.664446 1791.460687 1791.459284 1792.014884 1793.416892
564.150000 1790.372760 1791.043891 1791.805596 1791.790205 1792.372444 1793.705700
564.275000 1790.727789 1791.354615 1792.109364 1792.109412 1792.690407 1794.070278
564.400000 1791.053967 1791.692065 1792.434223 1792.435074 1792.988968 1794.376885
564.525000 1791.374451 1791.989327 1792.757389 1792.759598 1793.319383 1794.673681
564.650000 1791.702464 1792.329102 1793.096086 1793.091996 1793.634422 1795.016448
564.775000 1792.059224 1792.667234 1793.431604 1793.417987 1793.977642 1795.370582
564.900000 1792.320997 1792.954499 1793.763601 1793.746312 1794.302295 1795.720317
565.025000 1792.623774 1793.268869 1794.082073 1794.070826 1794.668171 1795.986408
565.150000 1792.920315 1793.613765 1794.431815 1794.403405 1794.969830 1796.307155
565.275000 1793.234749 1793.903679 1794.742275 1794.730800 1795.312568 1796.649832
565.400000 1793.552478 1794.198686 1795.080404 1795.058462 1795.679381 1796.949460
565.525000 1793.783633 1794.509302 1795.400730 1795.394616 1796.067146 1797.353430
565.650000 1794.150216 1794.805550 1795.726410 1795.720406 1796.453218 1797.631520
565.775000 1794.436011 1795.122437 1796.061756 1796.063084 1796.816885 1797.948446
565.900000 1794.740546 1795.458383 1796.419987 1796.411039 1797.174565 1798.431878
566.025000 1795.052402 1795.824167 1796.764938 1796.766751 1797.581432 1798.910999
566.150000 1795.326958 1796.159341 1797.125016 1797.127916 1797.941773 1799.339167
566.275000 1795.683795 1796.504261 1797.481669 1797.494087 1798.379827 1799.950231
566.400000 1795.959152 1796.837227 1797.852924 1797.868026 1798.791882 1800.628523
566.515000 1796.277041 1797.180962 1798.234821 1798.237540 1799.170167 1801.157924
566.630000 1796.630599 1797.443797 1798.608613 1798.607796 1799.553920 1801.742769
566.650000 1796.703196 1797.503435 1798.692878 1798.681233 1799.615218 1801.868345
566.775000 1797.105520 1797.978925 1799.155859 1799.208208 1800.156281 1802.612127
566.900000 1797.470782 1798.438861 1799.649067 1799.794577 1800.891643 1803.547765
567.025000 1797.855999 1798.883183 1800.190970 1800.428430 1801.777702 1805.313291
567.150000 1798.249824 1799.371469 1800.713227 1801.078963 1802.758205 1806.721873
567.294615 1798.755193 1799.952880 1801.410920 1801.983998 1804.190023 1808.696870
567.439231 1799.168449 1800.455052 1802.097987 1802.922770 1805.497156 1811.484200
567.583846 1799.558414 1800.941391 1802.855428 1803.906852 1807.115938 1813.913842
567.728462 1799.909354 1801.409952 1803.508965 1804.869708 1808.763398 1816.978590
567.873077 1800.261723 1801.897823 1804.074358 1805.812758 1810.195671 1819.500310
568.017692 1800.670949 1802.322687 1804.758824 1806.773819 1811.738485 1821.921441
568.162308 1801.131264 1802.844118 1805.338815 1807.708211 1813.051226 1824.524598
568.306923 1801.506668 1803.277970 1805.887196 1808.676765 1814.738602 1826.973402
568.451538 1801.930465 1803.746555 1806.381665 1809.677481 1816.241512 1829.809029
568.596154 1802.183360 1804.274276 1806.935255 1810.645036 1817.756142 1832.359408
568.740769 1802.553444 1804.728863 1807.432039 1811.585390 1819.232220 1835.055963
568.885385 1803.007644 1805.223375 1807.974280 1812.510304 1820.823369 1837.856225
569.030000 1803.439432 1805.730741 1808.623150 1813.476557 1822.303286 1840.198287
569.140000 1803.764733 1806.096431 1809.044004 1814.071942 1823.300221 1841.138486
569.250000 1804.130770 1806.504592 1809.616200 1814.682355 1824.046984 1841.940522
569.375000 1804.547689 1807.025463 1809.991177 1815.401873 1825.098102 1843.669065
569.500000 1804.929951 1807.584619 1810.548659 1816.067760 1825.793541 1845.036497
569.625000 1805.468911 1808.085840 1810.978569 1816.681524 1826.355482 1846.069581
569.750000 1806.035565 1808.668858 1811.520997 1817.315125 1827.154091 1847.084705
569.875000 1806.659964 1809.282772 1812.067282 1817.954270 1828.205193 1848.188025
570.000000 1807.421396 1809.855544 1812.782303 1818.567781 1828.732760 1848.570445
570.125000 1808.064047 1810.444204 1813.388831 1819.170402 1829.300964 1849.394429
570.250000 1808.856267 1811.011233 1814.112158 1819.790486 1829.872649 1850.027617
570.375000 1809.489515 1811.592353 1814.683469 1820.405188 1830.492229 1850.453874
570.500000 1810.051551 1812.197371 1815.205749 1820.999916 1831.063524 1851.149881
570.625000 1810.562860 1812.870209 1815.890581 1821.598861 1831.683338 1852.058981
570.750000 1811.119136 1813.437057 1816.483550 1822.175740 1832.469395 1852.793872
570.875000 1812.119280 1813.977964 1817.131807 1822.789545 1833.003702 1853.391798
571.000000 1812.700102 1814.672128 1817.807154 1823.394044 1833.602185 1853.930152
571.125000 1813.266018 1815.346041 1818.390889 1824.012655 1834.083783 1854.568847
571.250000 1813.808105 1815.951724 1819.064674 1824.603527 1834.632699 1854.971668
571.375000 1814.600783 1816.657441 1819.617528 1825.191410 1835.124234 1855.515394
571.500000 1815.214277 1817.252744 1820.299757 1825.790840 1835.550785 1856.118884
571.600000 1815.413198 1817.701692 1820.776997 1826.227136 1835.872067 1856.438091
571.700000 1815.828629 1818.085762 1821.140861 1826.675813 1836.276222 1856.841831
571.800000 1816.835784 1818.499390 1821.516865 1827.101357 1836.607298 1857.301941
571.900000 1817.217132 1818.867293 1822.035444 1827.528729 1836.940906 1857.645738
572.000000 1817.840269 1819.265212 1822.521390 1827.952987 1837.271037 1858.107518
572.125000 1818.282544 1819.715754 1823.051059 1828.472892 1837.689920 1858.556785
572.250000 1818.726822 1820.200102 1823.649145 1828.994911 1838.059906 1858.987212
572.375000 1819.251213 1820.615000 1824.071310 1829.510922 1838.461108 1859.434444
572.500000 1819.710898 1821.105515 1824.630813 1830.049160 1838.887124 1860.102992
572.625000 1820.243321 1821.702010 1825.211887 1830.582458 1839.263978 1860.471148
572.750000 1820.682104 1822.196424 1825.736447 1831.108910 1839.634325 1860.885447
572.875000 1821.055361 1822.798833 1826.308195 1831.634519 1840.009288 1861.586612
573.000000 1821.560460 1823.379305 1826.804985 1832.166458 1840.420337 1862.125231
573.110000 1821.990403 1823.924801 1827.337363 1832.669292 1840.806858 1862.873157
573.235000 1822.482726 1824.502831 1827.989249 1833.227868 1841.276901 1863.810319
573.360000 1822.914222 1825.112979 1828.780361 1833.801024 1841.612988 1865.066096
573.485000 1823.326326 1825.731780 1829.575136 1834.381953 1842.048438 1865.739087
573.610000 1823.871016 1826.402169 1830.528324 1834.964998 1842.407234 1866.347136
573.752571 1824.479012 1827.282280 1831.410244 1835.663369 1842.796981 1867.110672
573.895143 1825.166789 1827.943594 1832.719977 1836.354716 1843.202174 1867.667844
574.037714 1825.966252 1828.684228 1833.767662 1837.079212 1843.594091 1868.376850
574.180286 1826.656570 1829.369097 1835.047914 1837.817202 1844.056547 1869.672705
574.322857 1827.327760 1830.027405 1835.971541 1838.527279 1844.593859 1870.701739
574.465429 1828.139016 1830.716348 1837.059812 1839.293614 1844.959303 1871.696403
574.608000 1828.821713 1831.568323 1837.906178 1840.075529 1845.530119 1872.563361
574.750571 1829.640263 1832.235824 1838.709449 1840.849190 1846.209048 1873.085690
574.893143 1830.364390 1832.912720 1839.186885 1841.559039 1846.795517 1873.742974
575.035714 1830.900199 1833.591351 1839.705004 1842.349637 1847.786647 1874.497856
575.178286 1831.469713 1834.351687 1840.317706 1843.087215 1849.046588 1875.294889
575.320857 1832.277878 1835.036076 1840.844200 1843.834751 1850.541005 1876.108574
575.463429 1832.938218 1835.653303 1841.496048 1844.577008 1852.220325 1876.601591
575.606000 1833.431774 1836.350796 1842.060101 1845.317320 1853.524295 1877.521150
575.748571 1833.956930 1837.200742 1842.512913 1846.071622 1855.546057 1878.223320
575.891143 1834.767924 1837.898125 1843.105578 1846.839605 1857.492648 1878.993571
576.033714 1835.520650 1838.617864 1843.562202 1847.599076 1859.501672 1880.018955
576.176286 1836.015659 1839.318222 1844.458992 1848.364686 1861.112707 1880.516546
576.318857 1836.698767 1839.914368 1845.129867 1849.109661 1863.007972 1881.319192
576.461429 1837.381827 1840.518340 1845.664898 1849.851147 1864.852024 1881.890042
576.604000 1837.791544 1841.131238 1846.229091 1850.587868 1867.064986 1882.887664
576.746571 1838.390151 1841.818759 1846.641040 1851.344094 1868.388854 1883.665514
576.889143 1838.863305 1842.449033 1847.130097 1852.107324 1870.044403 1884.721458
577.031714 1839.320413 1843.182829 1847.706205 1852.880960 1872.576091 1885.517151
577.174286 1839.811843 1843.888186 1848.239151 1853.636938 1874.532175 1886.376543
577.316857 1840.503125 1844.662311 1848.769409 1854.387147 1876.390416 1887.115472
577.459429 1841.085982 1845.338619 1849.385021 1855.170902 1877.987530 1887.943303
577.602000 1841.658573 1846.096112 1850.048842 1855.960485 1879.673043 1889.207889
577.744571 1842.232962 1846.692675 1850.648825 1856.694388 1881.484119 1889.588005
577.887143 1842.810097 1847.422491 1851.240400 1857.440970 1883.030754 1890.475984
578.029714 1843.258794 1848.053872 1851.770161 1858.185678 1884.717844 1891.421198
578.172286 1843.967823 1848.697119 1852.316611 1858.960795 1886.521629 1892.259690
578.314857 1844.654368 1849.311540 1852.884311 1859.697526 1887.860541 1893.200546
578.457429 1845.154122 1849.971012 1853.381601 1860.420259 1889.014772 1893.932660
578.600000 1846.006449 1850.718155 1853.956628 1861.180542 1890.727902 1894.852867
578.725000 1846.368932 1851.356568 1854.549230 1861.819423 1892.136082 1895.916269
578.850000 1847.378237 1851.990289 1855.101637 1862.458371 1892.947311 1896.741129
578.975000 1848.074635 1852.625538 1855.726275 1863.094052 1893.811656 1897.408387
579.100000 1848.541240 1853.199815 1856.295374 1863.696136 1894.988429 1898.037753
579.225000 1849.952858 1853.780778 1856.940477 1864.283739 1895.670834 1898.527830
579.350000 1850.502189 1854.362913 1857.522717 1864.901988 1896.475208 1899.268283
579.475000 1851.159543 1854.915629 1858.166634 1865.531560 1897.390420 1900.048514
579.600000 1851.913598 1855.468712 1858.779775 1866.159727 1898.227801 1900.663143
579.725000 1852.707002 1855.995891 1859.428221 1866.813597 1899.029017 1901.888688
579.850000 1853.383761 1856.545071 1859.997893 1867.499496 1900.162631 1902.834083
579.975000 1854.411709 1857.091555 1860.535561 1868.108142 1900.718131 1904.039239
580.100000 1855.034165 1857.700004 1861.080381 1868.703256 1901.419091 1905.152274
580.225000 1855.663808 1858.229166 1861.605874 1869.266272 1902.059732 1906.064002
580.350000 1856.118024 1858.775302 1862.039211 1869.816876 1902.770222 1906.942091
