depth(m) lower_95(kyr) lower_68(kyr) median(kyr) mean(kyr) upper_68(kyr) upper_95(kyr)
419.110000 1403.716341 1404.466014 1405.128078 1405.142106 1405.881817 1406.550006
419.220000 1404.074340 1404.749400 1405.375247 1405.398464 1406.113993 1406.771793
419.325000 1404.358921 1404.992836 1405.596762 1405.635505 1406.317737 1406.974287
419.430000 1404.567368 1405.242818 1405.819478 1405.865474 1406.557651 1407.183458
419.540000 1404.851859 1405.486187 1406.042500 1406.090631 1406.772336 1407.353475
419.670000 1405.211079 1405.748172 1406.297463 1406.344035 1407.001597 1407.562177
419.800000 1405.459454 1405.960473 1406.539260 1406.583466 1407.257933 1407.771728
419.910000 1405.682644 1406.160985 1406.740327 1406.789993 1407.456107 1407.993916
420.050000 1405.936601 1406.407669 1406.974998 1407.036504 1407.694982 1408.235793
420.190000 1406.209761 1406.654781 1407.207472 1407.281023 1407.941910 1408.481272
420.300000 1406.427732 1406.839939 1407.409229 1407.474849 1408.130719 1408.668291
420.420000 1406.654172 1407.070207 1407.624642 1407.688832 1408.336655 1408.889777
420.540000 1406.884756 1407.288993 1407.840589 1407.904590 1408.548323 1409.133401
420.670000 1407.138741 1407.530024 1408.061727 1408.137664 1408.768475 1409.353829
420.780000 1407.349326 1407.736857 1408.262829 1408.346221 1409.004590 1409.565799
420.920000 1407.600578 1407.981857 1408.515519 1408.600275 1409.267888 1409.862964
421.050000 1407.838866 1408.217139 1408.753191 1408.845768 1409.514576 1410.199372
421.170000 1408.021071 1408.456280 1408.998598 1409.090473 1409.753465 1410.515030
421.290000 1408.241359 1408.682094 1409.261087 1409.348436 1410.020227 1410.862207
421.420000 1408.469878 1408.955132 1409.582886 1409.661121 1410.367541 1411.293144
421.560000 1408.745044 1409.299107 1410.009500 1410.057327 1410.820071 1411.729972
421.690000 1409.018007 1409.631914 1410.403940 1410.456566 1411.278147 1412.134561
421.800000 1409.370063 1409.928537 1410.794934 1410.845504 1411.707330 1412.671655
421.900000 1409.683040 1410.331844 1411.247719 1411.249575 1412.102152 1412.961711
422.030000 1410.367113 1411.065119 1411.916388 1411.887979 1412.643684 1413.424500
422.160000 1410.920880 1411.689561 1412.526958 1412.467256 1413.155400 1413.832429
422.290000 1411.513849 1412.357901 1413.066670 1413.024393 1413.667951 1414.287327
422.410000 1412.092152 1412.888051 1413.578403 1413.518327 1414.111188 1414.728698
422.520000 1412.507455 1413.391105 1414.033778 1413.991368 1414.605255 1415.197981
422.640000 1413.033073 1413.926763 1414.578762 1414.561722 1415.207575 1415.761577
422.725000 1413.409727 1414.258469 1414.901519 1414.881868 1415.531955 1416.055464
422.810000 1413.783078 1414.591678 1415.223739 1415.200497 1415.842554 1416.390403
422.920000 1414.317984 1414.994177 1415.610604 1415.583198 1416.180583 1416.696542
423.040000 1414.744714 1415.435519 1415.963122 1415.969008 1416.547021 1417.076438
423.160000 1415.208269 1415.805111 1416.356181 1416.346046 1416.920105 1417.400938
423.300000 1415.686611 1416.188594 1416.761331 1416.748124 1417.306555 1417.757327
423.410000 1416.001800 1416.507532 1417.037415 1417.040825 1417.568120 1418.054275
423.530000 1416.335684 1416.857798 1417.350279 1417.349778 1417.864244 1418.354803
423.660000 1416.647547 1417.146468 1417.673041 1417.666690 1418.158691 1418.684060
423.770000 1416.900581 1417.400566 1417.929723 1417.917914 1418.410338 1418.948034
423.910000 1417.199699 1417.697234 1418.222018 1418.219027 1418.743276 1419.243462
424.040000 1417.480606 1417.976587 1418.474931 1418.499757 1419.051630 1419.596445
424.180000 1417.767529 1418.275924 1418.755278 1418.786024 1419.342926 1419.903254
424.310000 1418.027526 1418.544329 1419.004363 1419.047939 1419.586713 1420.181313
424.420000 1418.304233 1418.758443 1419.213355 1419.273702 1419.820926 1420.385846
424.550000 1418.605589 1419.017818 1419.494651 1419.539258 1420.089749 1420.629321
424.660000 1418.844866 1419.239559 1419.716554 1419.768542 1420.322159 1420.821493
424.800000 1419.132935 1419.542955 1420.015181 1420.060264 1420.596034 1421.077625
424.850000 1419.255708 1419.672369 1420.149024 1420.177983 1420.710395 1421.179691
424.910000 1419.375842 1419.812582 1420.265705 1420.314070 1420.838880 1421.376550
424.960000 1419.494357 1419.924153 1420.389475 1420.429698 1420.938284 1421.502188
425.030000 1419.654228 1420.090468 1420.565291 1420.591342 1421.103259 1421.655872
425.070000 1419.751008 1420.192883 1420.665704 1420.687906 1421.188792 1421.732964
425.120000 1419.883035 1420.309731 1420.776689 1420.805893 1421.288920 1421.858879
425.150000 1419.958371 1420.375938 1420.845916 1420.877498 1421.347358 1421.912342
425.200000 1420.060242 1420.494302 1420.963071 1420.990432 1421.450990 1422.000218
425.260000 1420.211004 1420.620861 1421.091795 1421.127007 1421.571558 1422.146452
425.290000 1420.290664 1420.695550 1421.168285 1421.198155 1421.635333 1422.231002
425.330000 1420.417196 1420.795242 1421.263371 1421.292729 1421.710147 1422.367301
425.380000 1420.532087 1420.922345 1421.394093 1421.413061 1421.823661 1422.495785
425.400000 1420.593708 1420.968502 1421.464693 1421.465103 1421.875855 1422.537665
425.440000 1420.739133 1421.073486 1421.578816 1421.565237 1421.975352 1422.618645
425.490000 1420.853559 1421.205464 1421.718080 1421.695881 1422.089123 1422.757899
425.550000 1421.051831 1421.343100 1421.890243 1421.859761 1422.239737 1423.016364
425.590000 1421.153525 1421.464562 1422.006537 1421.979050 1422.352480 1423.110760
425.610000 1421.207182 1421.510414 1422.064387 1422.037814 1422.419673 1423.190768
425.640000 1421.312822 1421.621171 1422.150096 1422.131026 1422.528548 1423.267658
425.670000 1421.398554 1421.714127 1422.241572 1422.221276 1422.612354 1423.346580
425.680000 1421.425032 1421.748856 1422.274714 1422.250526 1422.638785 1423.380913
425.730000 1421.564412 1421.908035 1422.399815 1422.392673 1422.828681 1423.473883
425.750000 1421.606102 1421.959564 1422.457510 1422.450575 1422.892683 1423.520225
425.790000 1421.692153 1422.086741 1422.563154 1422.565511 1423.020118 1423.603792
425.840000 1421.773073 1422.206111 1422.687757 1422.708567 1423.193538 1423.756985
425.880000 1421.918344 1422.289891 1422.793231 1422.819180 1423.332191 1423.845088
425.920000 1422.002643 1422.388717 1422.893638 1422.930416 1423.465098 1423.924644
425.960000 1422.099615 1422.487796 1423.006612 1423.039595 1423.577196 1424.027456
425.980000 1422.162998 1422.531449 1423.063964 1423.093033 1423.659466 1424.101493
426.040000 1422.309891 1422.668580 1423.220651 1423.246905 1423.831469 1424.229847
426.090000 1422.458367 1422.806031 1423.343952 1423.372964 1423.955896 1424.363601
426.120000 1422.533531 1422.871023 1423.418587 1423.449349 1424.050168 1424.458397
426.190000 1422.726133 1423.045429 1423.602103 1423.620888 1424.207386 1424.605823
426.240000 1422.822594 1423.175158 1423.744587 1423.749688 1424.309552 1424.764417
426.280000 1422.914932 1423.285085 1423.845558 1423.850748 1424.396739 1424.846126
426.320000 1422.986960 1423.381343 1423.953300 1423.951847 1424.495432 1424.995360
426.380000 1423.098039 1423.514325 1424.102879 1424.094039 1424.632871 1425.138522
426.470000 1423.302790 1423.720243 1424.311697 1424.292445 1424.795845 1425.324968
426.510000 1423.372164 1423.823434 1424.411540 1424.387770 1424.874431 1425.415711
426.550000 1423.482634 1423.937852 1424.513145 1424.484582 1424.955764 1425.525055
426.650000 1423.663475 1424.141488 1424.734639 1424.702406 1425.160774 1425.783946
426.710000 1423.828306 1424.287995 1424.876496 1424.840198 1425.290021 1425.927772
426.760000 1423.954179 1424.425213 1424.986154 1424.956927 1425.408064 1426.046671
426.800000 1424.052251 1424.506465 1425.076438 1425.054456 1425.526854 1426.194354
426.880000 1424.194111 1424.710069 1425.259954 1425.241288 1425.708429 1426.357364
426.930000 1424.315584 1424.826803 1425.373970 1425.357367 1425.842150 1426.470333
426.990000 1424.443266 1424.975904 1425.505660 1425.496236 1425.976951 1426.608371
427.060000 1424.597918 1425.131816 1425.643416 1425.651481 1426.136568 1426.704988
427.130000 1424.744675 1425.306729 1425.797242 1425.810538 1426.280068 1426.893157
427.200000 1424.874807 1425.470458 1425.953228 1425.972582 1426.461776 1427.046917
427.260000 1425.078693 1425.616470 1426.092001 1426.115250 1426.613797 1427.174517
427.320000 1425.234970 1425.759373 1426.227872 1426.258319 1426.774066 1427.297400
427.390000 1425.416075 1425.941035 1426.400445 1426.426131 1426.957153 1427.515008
427.460000 1425.589802 1426.108923 1426.554445 1426.589269 1427.139924 1427.729306
427.500000 1425.671730 1426.206202 1426.646244 1426.687450 1427.244335 1427.841912
427.570000 1425.854903 1426.374600 1426.822557 1426.857333 1427.413508 1427.984269
427.640000 1426.033974 1426.529491 1426.974531 1427.030851 1427.602399 1428.160097
427.700000 1426.166089 1426.697864 1427.130602 1427.184808 1427.745176 1428.311121
427.760000 1426.338742 1426.844595 1427.292374 1427.344442 1427.917788 1428.446522
427.800000 1426.463545 1426.952870 1427.409786 1427.455982 1428.031806 1428.512481
427.880000 1426.653616 1427.147602 1427.635723 1427.670718 1428.226038 1428.691092
427.940000 1426.799277 1427.316683 1427.795303 1427.833086 1428.403959 1428.830324
428.020000 1426.985300 1427.554823 1428.043796 1428.070449 1428.615378 1429.033415
428.080000 1427.175548 1427.740936 1428.243786 1428.249715 1428.787316 1429.213553
428.140000 1427.381039 1427.911163 1428.435321 1428.433071 1428.967533 1429.406992
428.170000 1427.497484 1428.000286 1428.542704 1428.529834 1429.058352 1429.524021
428.250000 1427.788501 1428.270162 1428.794262 1428.786875 1429.305866 1429.773712
428.300000 1427.919864 1428.446573 1428.978272 1428.953877 1429.434464 1429.909904
428.390000 1428.270720 1428.806826 1429.294059 1429.281976 1429.765985 1430.232740
428.430000 1428.411735 1428.928714 1429.441233 1429.415741 1429.906681 1430.361434
428.510000 1428.689761 1429.218125 1429.709777 1429.697319 1430.212993 1430.671828
428.560000 1428.869668 1429.397301 1429.886012 1429.874633 1430.355707 1430.822170
428.660000 1429.303445 1429.789339 1430.254063 1430.271071 1430.758076 1431.348098
428.700000 1429.496969 1429.939156 1430.406745 1430.427715 1430.917667 1431.471736
428.770000 1429.921493 1430.335880 1430.796325 1430.830629 1431.330136 1431.869892
428.840000 1430.387673 1430.798883 1431.260068 1431.278642 1431.793772 1432.205488
428.890000 1430.656607 1431.052748 1431.500888 1431.532202 1432.032817 1432.508083
428.960000 1431.012969 1431.411317 1431.859120 1431.886391 1432.401860 1432.957458
429.010000 1431.169101 1431.598244 1432.061155 1432.098608 1432.611990 1433.122474
429.090000 1431.476428 1431.919195 1432.390054 1432.446352 1432.998586 1433.580685
429.140000 1431.628202 1432.091941 1432.600276 1432.631557 1433.209653 1433.710560
429.160000 1431.681131 1432.151176 1432.666812 1432.700242 1433.271352 1433.799432
429.200000 1431.815647 1432.277637 1432.816737 1432.837505 1433.398735 1433.935941
429.260000 1432.033889 1432.465889 1433.032843 1433.052236 1433.609391 1434.187709
429.300000 1432.141879 1432.591854 1433.185226 1433.191712 1433.754768 1434.328188
429.360000 1432.315061 1432.828535 1433.419202 1433.404141 1433.956645 1434.547159
429.440000 1432.487344 1433.082674 1433.724010 1433.687425 1434.248616 1434.780152
429.500000 1432.723072 1433.279916 1433.927615 1433.898606 1434.482458 1434.999646
429.550000 1432.884625 1433.444970 1434.106796 1434.070367 1434.646099 1435.191067
429.650000 1433.224118 1433.830602 1434.494477 1434.442698 1435.020184 1435.533965
429.700000 1433.362361 1434.028584 1434.648879 1434.608912 1435.172936 1435.691688
429.760000 1433.533235 1434.214866 1434.840156 1434.805613 1435.353436 1435.897933
429.780000 1433.583225 1434.273525 1434.911698 1434.866618 1435.410954 1435.997493
429.890000 1433.918740 1434.666290 1435.269007 1435.219657 1435.713484 1436.311356
429.940000 1434.145304 1434.851455 1435.424272 1435.377776 1435.841711 1436.493273
430.000000 1434.369210 1435.052756 1435.604042 1435.560178 1436.017245 1436.662742
430.060000 1434.564002 1435.242905 1435.785410 1435.742019 1436.198198 1436.931310
430.150000 1434.889840 1435.540755 1436.042759 1436.017829 1436.473930 1437.156355
430.190000 1434.992079 1435.666110 1436.148009 1436.134904 1436.595928 1437.283676
430.260000 1435.238892 1435.875965 1436.328525 1436.339324 1436.822772 1437.494210
430.340000 1435.509154 1436.131825 1436.521369 1436.570133 1437.100318 1437.689328
430.390000 1435.673582 1436.297971 1436.652446 1436.722464 1437.289417 1437.858471
430.420000 1435.802320 1436.399906 1436.733074 1436.811810 1437.401122 1437.945799
430.480000 1436.027990 1436.571018 1436.888584 1436.986655 1437.616724 1438.042952
430.490000 1436.047358 1436.594744 1436.916114 1437.016571 1437.648639 1438.064392
430.560000 1436.390895 1436.795924 1437.101921 1437.222905 1437.872316 1438.281847
430.590000 1436.468494 1436.883392 1437.177888 1437.312411 1437.961007 1438.352424
430.630000 1436.634578 1436.988248 1437.292432 1437.431007 1438.070228 1438.489699
430.640000 1436.667405 1437.013742 1437.326966 1437.461833 1438.107871 1438.519807
430.700000 1436.891064 1437.189165 1437.526388 1437.647714 1438.276512 1438.644282
430.740000 1437.006891 1437.301684 1437.639996 1437.766560 1438.389310 1438.739669
430.760000 1437.069827 1437.356440 1437.706361 1437.826190 1438.439035 1438.795183
430.790000 1437.153676 1437.450068 1437.800341 1437.914718 1438.528454 1438.917760
430.820000 1437.239972 1437.547217 1437.887232 1438.005655 1438.609290 1438.998842
430.840000 1437.282416 1437.617502 1437.949406 1438.064763 1438.672246 1439.047969
430.870000 1437.363447 1437.703573 1438.036957 1438.155879 1438.756578 1439.157294
430.900000 1437.452625 1437.796718 1438.139532 1438.252019 1438.859948 1439.231185
430.940000 1437.561677 1437.917048 1438.264709 1438.378262 1438.973245 1439.362987
430.960000 1437.609425 1437.982450 1438.330678 1438.438335 1439.031239 1439.430898
431.000000 1437.754328 1438.103317 1438.472723 1438.566330 1439.147616 1439.558670
431.040000 1437.915853 1438.228784 1438.598131 1438.688837 1439.267144 1439.664961
431.080000 1438.047212 1438.368614 1438.744586 1438.815350 1439.384129 1439.781263
431.140000 1438.247553 1438.546457 1438.953638 1439.008732 1439.588457 1439.939413
431.150000 1438.272130 1438.572563 1438.983588 1439.039052 1439.620848 1439.967433
431.190000 1438.412526 1438.711203 1439.113861 1439.174487 1439.754845 1440.092335
431.220000 1438.518654 1438.808793 1439.209771 1439.272061 1439.853433 1440.160148
431.270000 1438.691725 1438.986303 1439.376156 1439.441405 1439.999831 1440.284307
431.320000 1438.879668 1439.171749 1439.527815 1439.608658 1440.161866 1440.413069
431.360000 1439.040506 1439.306033 1439.658221 1439.738606 1440.294260 1440.500325
431.380000 1439.097429 1439.376770 1439.725470 1439.802777 1440.352587 1440.558401
431.410000 1439.178171 1439.476971 1439.833017 1439.896523 1440.433963 1440.652135
431.430000 1439.239931 1439.532945 1439.898870 1439.958980 1440.492274 1440.707412
431.460000 1439.369121 1439.638634 1440.002009 1440.058051 1440.563463 1440.773062
431.500000 1439.493906 1439.765871 1440.144659 1440.188022 1440.673168 1440.875695
431.520000 1439.560992 1439.828434 1440.202768 1440.250758 1440.729419 1440.935001
431.560000 1439.687123 1439.937937 1440.350632 1440.377034 1440.820481 1441.048114
431.600000 1439.807877 1440.076561 1440.512789 1440.506328 1440.920056 1441.148036
431.630000 1439.901030 1440.171076 1440.617422 1440.598436 1440.993542 1441.268517
431.640000 1439.926763 1440.201817 1440.647580 1440.629146 1441.019968 1441.290479
431.680000 1440.030902 1440.346465 1440.764179 1440.751138 1441.127292 1441.377670
431.700000 1440.083212 1440.418127 1440.819484 1440.811363 1441.192980 1441.426085
431.740000 1440.163484 1440.544385 1440.953626 1440.936711 1441.320808 1441.554069
431.770000 1440.220347 1440.632055 1441.035794 1441.028199 1441.418434 1441.658408
431.800000 1440.291785 1440.718757 1441.137204 1441.120849 1441.508397 1441.726933
431.810000 1440.317221 1440.743141 1441.175136 1441.148795 1441.535962 1441.750475
431.860000 1440.444648 1440.906584 1441.336893 1441.295655 1441.675730 1441.925272
431.880000 1440.497929 1440.974114 1441.402409 1441.354136 1441.730511 1441.981840
431.920000 1440.600230 1441.102161 1441.512282 1441.469828 1441.833701 1442.108462
431.970000 1440.767305 1441.247024 1441.663327 1441.619838 1441.969959 1442.259174
432.030000 1441.003486 1441.424788 1441.831091 1441.800870 1442.142831 1442.425762
432.080000 1441.160741 1441.602730 1441.985883 1441.954730 1442.290943 1442.571633
432.160000 1441.468822 1441.916044 1442.218074 1442.212632 1442.520004 1442.868112
432.220000 1441.621738 1442.117156 1442.413883 1442.415515 1442.708399 1443.176355
432.260000 1441.752784 1442.257603 1442.547876 1442.549915 1442.845983 1443.271372
432.280000 1441.820881 1442.325840 1442.608734 1442.612278 1442.907362 1443.334415
432.320000 1441.967108 1442.470411 1442.735580 1442.747978 1443.026620 1443.487756
432.340000 1442.041952 1442.539479 1442.796338 1442.809494 1443.077426 1443.549074
432.360000 1442.088307 1442.609427 1442.872318 1442.871282 1443.137856 1443.628671
432.390000 1442.170228 1442.714443 1442.963009 1442.964211 1443.205265 1443.723356
432.440000 1442.332313 1442.850462 1443.138508 1443.118985 1443.339046 1443.910880
432.450000 1442.357186 1442.881797 1443.167432 1443.148891 1443.374951 1443.958564
432.480000 1442.462443 1442.963492 1443.260278 1443.240727 1443.476612 1444.042332
432.500000 1442.508452 1443.023263 1443.315468 1443.300316 1443.544241 1444.094615
432.510000 1442.519989 1443.055021 1443.345872 1443.329974 1443.577155 1444.122202
432.570000 1442.667291 1443.188781 1443.523688 1443.526790 1443.858996 1444.356424
432.630000 1442.891433 1443.357369 1443.714260 1443.728196 1444.112833 1444.568794
432.710000 1443.167851 1443.590113 1443.985532 1444.026435 1444.480879 1445.045670
432.770000 1443.332333 1443.753695 1444.190932 1444.231717 1444.714668 1445.283976
432.830000 1443.460521 1443.929245 1444.398051 1444.437013 1444.977716 1445.565569
432.890000 1443.653937 1444.096237 1444.589990 1444.639897 1445.215551 1445.789183
432.950000 1443.817626 1444.292278 1444.816315 1444.850412 1445.434687 1446.020759
433.010000 1443.962900 1444.475253 1445.040500 1445.058319 1445.662919 1446.257666
433.130000 1444.375727 1444.917166 1445.556685 1445.551030 1446.206668 1446.718851
433.210000 1444.667490 1445.229949 1445.837208 1445.850020 1446.500427 1446.987569
433.340000 1445.155426 1445.744758 1446.364561 1446.337581 1446.925946 1447.373783
433.455000 1445.681432 1446.263476 1446.832993 1446.793599 1447.301920 1447.741293
433.570000 1446.305696 1446.780816 1447.264745 1447.231784 1447.671994 1448.064597
433.630000 1446.606951 1447.011223 1447.465306 1447.441581 1447.871552 1448.210732
433.690000 1446.803923 1447.221980 1447.654068 1447.627431 1448.023518 1448.394476
433.750000 1446.994681 1447.431973 1447.830291 1447.813725 1448.181133 1448.572495
433.810000 1447.253134 1447.622196 1447.996021 1447.990998 1448.349159 1448.731063
433.870000 1447.450367 1447.815641 1448.150135 1448.164802 1448.527146 1448.886383
433.930000 1447.647542 1447.986073 1448.329656 1448.335561 1448.707775 1449.067427
433.990000 1447.801529 1448.154517 1448.503010 1448.519432 1448.891754 1449.254785
434.030000 1447.953714 1448.287940 1448.626170 1448.647424 1449.022683 1449.354108
434.080000 1448.083829 1448.449704 1448.815783 1448.820496 1449.181100 1449.549283
434.140000 1448.254738 1448.672617 1449.034308 1449.035168 1449.409014 1449.754506
434.190000 1448.445352 1448.822477 1449.216511 1449.206936 1449.576940 1449.945521
434.250000 1448.670378 1449.051424 1449.471618 1449.442683 1449.816625 1450.172976
434.330000 1448.990678 1449.412356 1449.805572 1449.791358 1450.173397 1450.509786
434.390000 1449.265296 1449.681870 1450.066354 1450.052144 1450.409351 1450.738153
