depth(m) lower_95(kyr) lower_68(kyr) median(kyr) mean(kyr) upper_68(kyr) upper_95(kyr)
61.120000 1493.729285 1497.786295 1500.742384 1500.223087 1502.634777 1504.207190
61.250000 1497.673596 1500.730665 1502.960838 1502.641349 1504.681196 1506.104258
61.325000 1499.253630 1502.171469 1504.318168 1504.036263 1505.854817 1507.281659
61.400000 1501.350667 1503.745073 1505.579086 1505.421558 1507.075207 1508.551356
61.480000 1503.305942 1505.431248 1506.991635 1506.901732 1508.467751 1510.126897
61.550000 1505.022216 1506.794051 1508.447090 1508.451185 1510.073657 1511.859501
61.625000 1506.888636 1508.563542 1510.234014 1510.448247 1512.365737 1515.235138
61.700000 1508.850333 1510.429622 1512.555262 1512.747221 1515.102340 1517.987749
61.775000 1510.232163 1511.807969 1514.572659 1514.756436 1517.593343 1520.028783
61.850000 1511.685310 1513.489692 1516.643484 1516.699500 1519.795910 1522.408448
61.925000 1512.926595 1515.161630 1518.675343 1518.560178 1521.721594 1524.130491
62.000000 1514.404464 1516.808638 1520.688433 1520.374530 1523.583992 1525.693893
62.080000 1516.133046 1519.041852 1522.849081 1522.494274 1525.657086 1527.632956
62.180000 1518.808824 1522.297065 1525.944634 1525.509527 1528.432363 1530.538399
62.280000 1522.277323 1525.970756 1528.823763 1528.402982 1530.799467 1532.365457
62.380000 1526.895938 1529.488048 1531.360072 1531.170801 1532.838548 1534.193072
62.490000 1529.172157 1531.517904 1533.330441 1533.176528 1534.845094 1536.509498
62.600000 1531.203439 1533.398043 1535.077573 1534.985750 1536.632925 1538.134336
62.710000 1533.302810 1535.284919 1536.904642 1536.838482 1538.362917 1539.743058
62.785000 1534.720648 1536.691059 1538.152009 1538.127736 1539.649251 1541.171919
62.860000 1535.977131 1537.971798 1539.328115 1539.386796 1540.859971 1542.808625
62.985000 1538.165151 1539.876792 1541.317870 1541.471717 1543.024887 1545.754553
63.110000 1540.379651 1541.763908 1543.285256 1543.607198 1545.484259 1549.035956
63.220000 1542.313985 1543.557755 1545.374810 1545.847499 1548.181775 1552.033119
63.326667 1543.776975 1545.398325 1547.806905 1548.202574 1551.121307 1554.454799
63.433333 1545.464909 1547.665478 1550.790177 1550.783995 1553.840055 1556.262834
63.540000 1547.347282 1550.068779 1553.912428 1553.391278 1556.380498 1558.022957
63.620000 1548.960405 1552.108377 1556.124957 1555.509397 1558.293089 1560.014184
63.690000 1550.441267 1554.211718 1557.908134 1557.255317 1559.955760 1561.769813
63.775000 1552.556435 1556.557035 1559.602597 1559.123405 1561.644975 1563.232167
63.860000 1555.145780 1558.642692 1561.226583 1560.883760 1563.128816 1564.704063
63.990000 1558.857519 1561.231002 1563.360022 1563.201033 1565.169516 1566.659384
64.120000 1561.975640 1563.733376 1565.632318 1565.474016 1567.225232 1568.480362
64.210000 1564.186146 1565.764206 1567.473543 1567.352290 1568.971332 1570.075966
64.285000 1565.840897 1567.889494 1569.381152 1569.255996 1570.678844 1571.693989
64.360000 1568.771244 1569.991713 1571.152385 1571.123659 1572.217341 1573.211964
64.440000 1570.411788 1571.605151 1572.696788 1572.677718 1573.726225 1574.645228
64.525000 1571.894422 1572.970233 1573.972545 1573.955970 1574.917483 1575.890059
64.610000 1573.165242 1574.185816 1575.215135 1575.210799 1576.221928 1577.283842
64.740000 1574.877374 1575.904236 1576.930287 1576.918724 1577.862131 1579.112092
64.815000 1575.962978 1576.945731 1577.998244 1578.001974 1578.958125 1580.379650
64.890000 1576.944316 1578.044397 1579.102583 1579.119878 1580.155039 1581.627284
65.020000 1578.802691 1579.982929 1581.138147 1581.193007 1582.430000 1583.900340
65.105000 1580.253123 1581.355412 1582.562046 1582.683101 1583.994349 1585.870360
65.190000 1581.696493 1582.899417 1584.159791 1584.270193 1585.624965 1587.448674
65.265000 1583.182647 1584.366300 1585.855567 1585.902745 1587.456082 1589.160016
65.340000 1584.548474 1585.924792 1587.570348 1587.571871 1589.158173 1590.762121
65.440000 1586.339818 1587.810702 1589.497438 1589.518038 1591.088832 1592.511255
65.540000 1587.813825 1589.801970 1591.433495 1591.355864 1592.763901 1594.072363
65.640000 1589.826488 1591.936205 1593.257870 1593.215931 1594.448231 1595.567615
65.710000 1591.417111 1593.254496 1594.504262 1594.517618 1595.640273 1596.956609
65.835000 1593.826250 1595.461608 1596.774410 1596.911077 1598.316342 1600.238229
65.960000 1595.951826 1597.572735 1599.080199 1599.200031 1600.824938 1602.462029
66.090000 1597.866863 1599.384316 1601.099990 1601.212476 1602.866843 1604.631189
66.220000 1599.877030 1601.402657 1603.134197 1603.242653 1604.786741 1606.512631
66.305000 1601.184795 1602.918974 1604.570969 1604.711623 1606.194489 1608.516834
66.390000 1602.830281 1604.667729 1606.127528 1606.318358 1607.580065 1610.482976
66.520000 1605.834974 1607.651042 1609.097947 1609.631881 1611.483581 1616.706142
66.605000 1607.609256 1609.401400 1611.139963 1611.802877 1614.279457 1620.453210
66.690000 1609.667635 1611.103619 1613.209229 1613.913034 1616.705076 1623.268782
66.765000 1610.896572 1612.864965 1615.667090 1616.144514 1619.253084 1624.720739
66.840000 1612.117770 1614.828680 1618.226185 1618.344495 1621.696745 1626.266373
66.915000 1613.194720 1616.317284 1620.319736 1620.283107 1623.873576 1627.858527
66.990000 1614.388573 1618.172974 1622.452708 1622.257279 1626.053611 1629.627396
67.065000 1615.614153 1620.121414 1624.587464 1624.228169 1628.005124 1631.392663
67.140000 1616.914538 1622.133518 1626.685588 1626.190921 1629.932238 1632.885784
67.200000 1618.116580 1624.043383 1628.504561 1627.905418 1631.610175 1634.804729
67.320000 1620.745162 1627.796996 1631.984424 1631.554357 1635.383693 1638.625749
67.440000 1623.351444 1632.504075 1635.873244 1635.407017 1639.008200 1641.842813
67.525000 1625.235513 1635.087600 1638.674367 1638.055743 1641.589674 1644.047052
67.610000 1627.097612 1638.124064 1641.307804 1640.573452 1643.947291 1645.927385
67.740000 1631.594140 1641.906370 1644.503795 1643.972743 1646.974681 1648.779421
67.840000 1636.846122 1643.910802 1646.585158 1646.207090 1649.070384 1651.270980
67.940000 1640.648167 1646.044001 1648.615743 1648.421845 1651.155755 1653.169795
68.040000 1645.156176 1648.095268 1650.712084 1650.580378 1653.070191 1655.187763
68.115000 1647.361287 1649.385217 1652.140654 1652.026554 1654.493139 1656.400098
68.190000 1648.710559 1650.795744 1653.446765 1653.359090 1655.804555 1658.122164
68.290000 1650.583690 1652.582264 1655.063350 1655.014171 1657.391381 1659.788989
68.390000 1652.179959 1654.378209 1656.756133 1656.721895 1659.078429 1661.508351
68.490000 1654.018955 1656.039063 1658.382140 1658.415804 1660.739917 1662.955799
68.565000 1655.580140 1657.537498 1659.850796 1659.873708 1662.144351 1664.623548
68.640000 1656.999798 1659.130546 1661.436354 1661.481098 1663.701227 1666.403287
68.750000 1659.636439 1661.953390 1664.424435 1664.613743 1667.271188 1670.928184
68.860000 1662.468033 1664.904089 1667.668734 1667.995872 1671.030157 1675.301348
68.975000 1665.101214 1667.661689 1671.116189 1671.417093 1675.024898 1679.850131
69.090000 1667.661206 1670.872239 1674.429421 1674.764526 1678.612614 1684.070236
69.165000 1669.177183 1672.867567 1676.554668 1676.875781 1680.951551 1685.934583
69.240000 1671.149401 1674.966884 1678.771955 1678.967874 1683.163951 1687.803933
69.315000 1672.962861 1676.869106 1680.633118 1680.953685 1685.218140 1689.619290
69.390000 1674.747091 1678.642670 1682.717597 1682.946618 1687.660659 1691.143854
69.465000 1675.983324 1680.536999 1684.759192 1684.857538 1689.670445 1692.991027
69.540000 1677.785396 1682.308892 1686.671373 1686.752940 1691.415415 1694.772692
69.615000 1679.904394 1684.350441 1688.814859 1688.734062 1693.444647 1696.867032
69.690000 1682.068453 1686.227531 1690.830898 1690.670468 1695.198827 1698.722517
69.765000 1684.468303 1688.338629 1693.087241 1692.750895 1696.878835 1700.299627
69.840000 1686.144097 1690.807695 1695.164699 1694.932029 1698.909242 1702.501776
69.915000 1687.900938 1693.061109 1696.936442 1696.800431 1700.685571 1704.601350
69.990000 1690.088986 1695.162386 1698.742554 1698.714409 1702.507028 1706.280358
70.120000 1696.186917 1699.614688 1702.648374 1702.677688 1705.764034 1709.019269
70.200000 1698.715635 1701.986681 1704.880044 1704.889655 1707.895982 1711.155996
70.280000 1700.597643 1704.221789 1707.332551 1707.297079 1710.497669 1713.761620
70.360000 1702.321265 1706.508099 1709.805242 1709.777323 1713.014212 1716.731971
70.440000 1703.874979 1708.355709 1712.281880 1711.940323 1715.322213 1718.775951
70.525000 1705.746704 1710.095053 1714.305868 1713.953597 1717.429439 1720.636799
70.610000 1707.469895 1711.836260 1716.235745 1715.847455 1719.618504 1722.810198
70.720000 1708.961826 1714.007159 1718.683713 1718.191023 1722.219108 1725.387569
70.805000 1710.132924 1715.798646 1720.436112 1719.907204 1723.982336 1727.366087
70.890000 1711.236531 1717.219314 1722.156108 1721.574471 1725.816814 1729.351356
70.965000 1712.477311 1718.644298 1723.597449 1723.061867 1727.392206 1731.007718
71.040000 1713.864706 1719.966521 1725.088956 1724.513194 1728.928110 1732.752343
71.115000 1715.254337 1721.422163 1726.571122 1725.942658 1730.473700 1734.307087
71.190000 1716.532217 1723.089526 1727.906753 1727.338384 1731.697793 1735.590744
71.285000 1717.953071 1724.887600 1729.791523 1729.132024 1733.429729 1737.519297
71.380000 1719.572791 1726.690405 1731.527274 1730.906770 1735.067730 1739.324230
71.465000 1721.109943 1728.434528 1733.029714 1732.496438 1736.664364 1741.002815
71.550000 1722.454942 1729.921322 1734.594233 1734.103428 1738.194855 1742.450439
71.630000 1724.150894 1731.528901 1736.134499 1735.696898 1739.873212 1743.982022
71.710000 1725.960305 1733.254852 1737.741153 1737.362658 1741.605087 1745.651187
71.810000 1728.751561 1735.503661 1739.719992 1739.393714 1743.639450 1747.772412
71.910000 1730.963651 1737.504538 1741.613896 1741.423400 1745.807228 1749.518607
72.010000 1733.560520 1739.253098 1743.695087 1743.450680 1747.822808 1751.438741
72.150000 1736.788587 1742.186119 1746.395397 1746.238604 1750.449751 1753.892811
72.230000 1739.311482 1743.893174 1748.125352 1747.919573 1751.818118 1755.309843
72.310000 1740.722535 1745.790827 1749.901856 1749.657597 1753.662615 1756.786781
72.450000 1744.021039 1749.177045 1752.930998 1752.668886 1756.237526 1759.355321
72.525000 1746.995067 1751.016996 1754.650129 1754.500097 1758.344688 1761.117779
72.600000 1748.892784 1753.133748 1756.706946 1756.489674 1760.036903 1762.692896
72.710000 1753.061461 1757.141102 1760.819938 1760.657009 1764.349257 1767.649934
72.849000 1757.850697 1760.721508 1764.858302 1764.895253 1769.239009 1771.918752
72.860000 1758.195890 1760.998492 1765.159846 1765.192933 1769.481867 1772.373377
72.935000 1759.897772 1763.190732 1767.133174 1767.133163 1771.117429 1774.056578
73.010000 1762.042858 1765.193630 1769.044609 1769.003757 1772.730116 1775.634312
73.120000 1764.660542 1768.323620 1771.783994 1771.637812 1775.056329 1777.711409
73.230000 1767.615419 1771.318414 1774.486125 1774.309876 1777.466316 1779.654860
73.310000 1769.820607 1773.485398 1776.527990 1776.282660 1779.235718 1781.231900
73.395000 1772.184890 1775.522492 1778.609868 1778.341996 1781.100777 1783.040485
73.480000 1774.474552 1777.660220 1780.757405 1780.358614 1782.860469 1784.756052
73.620000 1777.715825 1780.727241 1783.442126 1783.070227 1785.253737 1787.015096
73.760000 1780.932973 1783.604496 1785.810617 1785.594318 1787.481496 1788.934521
73.860000 1782.839099 1785.450461 1787.517711 1787.282702 1788.979935 1790.483280
73.960000 1785.122306 1787.361832 1789.160880 1788.942064 1790.407317 1791.808628
74.060000 1787.407800 1789.329855 1790.748736 1790.630567 1791.917383 1793.101064
74.135000 1789.307069 1790.854198 1792.093986 1791.960577 1793.051937 1794.127863
74.210000 1791.519392 1792.535623 1793.447821 1793.466340 1794.418925 1795.256398
74.285000 1793.004917 1794.248242 1795.610580 1795.896197 1797.439981 1800.570362
74.360000 1794.454720 1796.325524 1798.349247 1798.512738 1800.681015 1803.370177
74.435000 1796.191009 1798.578971 1800.891354 1801.041086 1803.553162 1806.138034
74.510000 1798.684595 1800.752295 1803.393543 1803.442729 1805.990945 1809.046256
74.620000 1801.035218 1803.611004 1806.166223 1806.344966 1808.877581 1813.211784
74.730000 1803.815949 1806.392725 1808.842504 1809.184245 1811.851582 1817.348446
74.810000 1805.373275 1808.091380 1810.737592 1811.145326 1814.102826 1819.846177
74.895000 1806.726947 1809.919042 1812.831950 1813.214760 1816.468822 1822.362073
74.980000 1808.673886 1811.587569 1815.065259 1815.290280 1818.924710 1824.143302
75.110000 1811.310012 1814.388308 1818.066805 1818.387403 1822.475978 1827.430671
75.185000 1813.133804 1816.290704 1820.019582 1820.296808 1824.311559 1829.015770
75.260000 1814.751452 1818.418274 1821.989730 1822.229132 1826.210190 1830.727690
75.335000 1816.583978 1820.157751 1824.031704 1824.147440 1828.214724 1832.401837
75.410000 1818.761958 1822.230162 1826.055837 1826.158360 1830.107018 1834.012302
75.485000 1820.859119 1824.351110 1828.311682 1828.280077 1832.296255 1835.572848
75.560000 1823.590407 1826.841531 1830.539200 1830.452618 1834.209017 1836.841945
75.635000 1825.785632 1829.392396 1833.148914 1832.856809 1836.228416 1838.387707
75.710000 1828.524774 1832.393660 1835.873660 1835.384702 1838.251676 1839.664411
75.785000 1832.831195 1836.191277 1838.614120 1838.176340 1840.079651 1841.126941
75.860000 1839.021234 1839.960872 1840.910503 1840.871043 1841.764192 1842.566430
75.935000 1840.472250 1841.535800 1842.686157 1842.849478 1844.211786 1846.050812
76.010000 1841.900754 1843.066555 1844.610392 1844.776579 1846.595076 1848.608352
76.120000 1843.651413 1844.999335 1847.111479 1847.247183 1849.403904 1851.632797
76.230000 1845.679915 1847.176539 1849.483007 1849.617215 1852.020329 1853.680468
76.310000 1846.949842 1848.796304 1851.170038 1851.191961 1853.659404 1855.267576
76.395000 1848.315924 1850.431975 1852.777390 1852.736594 1855.092588 1856.636271
76.480000 1849.664527 1852.038477 1854.407021 1854.258251 1856.462111 1857.863087
76.610000 1852.133587 1854.517382 1856.573006 1856.424458 1858.445603 1859.620024
76.685000 1853.667510 1855.925349 1858.035284 1857.814691 1859.612477 1860.838768
76.760000 1855.367850 1857.648727 1859.558955 1859.281829 1860.846120 1861.889149
76.845000 1857.599978 1859.851295 1861.258363 1861.076131 1862.317221 1863.288096
76.930000 1861.232127 1862.161930 1863.054183 1863.045848 1863.897162 1864.843881
77.060000 1863.440271 1864.582846 1865.913690 1866.315738 1868.093328 1871.335174
77.145000 1864.793850 1865.980458 1867.812614 1868.244718 1870.622711 1873.750487
77.230000 1866.017281 1867.427266 1869.680321 1870.017423 1872.726725 1875.438010
77.360000 1867.829838 1869.497160 1872.144307 1872.397817 1875.489735 1877.821837
77.435000 1868.939955 1870.766842 1873.557504 1873.732171 1876.870951 1879.431946
77.510000 1870.048147 1871.962287 1874.979665 1875.044641 1878.259446 1880.593766
77.620000 1871.675022 1873.659049 1876.801409 1876.851708 1880.014468 1882.651306
77.730000 1873.218303 1875.402743 1878.661261 1878.648379 1881.778636 1884.042061
77.810000 1874.708948 1876.777518 1879.984648 1879.974145 1883.044018 1885.500701
77.910000 1876.017761 1878.705170 1881.730101 1881.694040 1884.655612 1887.154253
78.010000 1877.869786 1880.591852 1883.452284 1883.378443 1886.285505 1888.808796
78.110000 1879.588274 1882.418207 1885.217547 1885.105973 1887.870811 1890.187441
78.185000 1881.159127 1883.763957 1886.616213 1886.488667 1889.049004 1891.400084
78.260000 1882.701474 1885.318994 1888.076531 1887.913852 1890.350252 1892.653664
78.335000 1884.249649 1887.056432 1889.467595 1889.402235 1891.710208 1893.908340
78.410000 1885.530332 1888.597036 1890.943151 1890.837014 1893.097530 1895.287334
78.485000 1887.416783 1890.083528 1892.314264 1892.199030 1894.350485 1896.103155
78.560000 1889.141806 1891.677705 1893.645348 1893.568907 1895.564372 1897.170442
78.635000 1891.060788 1893.208825 1895.089074 1895.052587 1896.990002 1898.671316
78.710000 1893.116953 1894.703182 1896.569781 1896.530501 1898.339363 1899.879158
78.785000 1894.625844 1896.017333 1897.877841 1897.900705 1899.815422 1901.419827
78.860000 1896.027914 1897.513362 1899.182642 1899.254402 1901.036781 1902.909457
78.935000 1897.307143 1898.657585 1900.468608 1900.511571 1902.393728 1904.222038
79.010000 1898.355890 1899.897345 1901.649909 1901.765656 1903.656417 1905.642898
79.120000 1899.736177 1901.452166 1903.269590 1903.411150 1905.365135 1907.476176
79.230000 1901.200028 1903.039984 1904.875875 1905.001679 1907.039513 1909.121746
79.310000 1902.481003 1904.235390 1906.137424 1906.272546 1908.419647 1910.528643
79.395000 1903.795388 1905.507136 1907.454871 1907.607346 1909.839011 1911.767738
79.480000 1904.832436 1906.745186 1908.774306 1908.893346 1911.177714 1913.572923
79.620000 1906.867174 1908.760914 1910.734545 1911.019437 1913.422432 1916.504930
79.760000 1908.861211 1910.779329 1913.000481 1913.244719 1915.734376 1918.870848
79.835000 1910.054508 1911.976386 1914.295185 1914.585202 1917.225018 1920.271772
79.910000 1911.280796 1913.239488 1915.653180 1915.956725 1918.892775 1921.809285
79.985000 1912.640527 1914.570962 1917.342652 1917.515193 1920.454832 1923.595768
80.060000 1914.041889 1916.075233 1919.049528 1919.160280 1922.279622 1925.192872
80.110000 1915.144203 1917.136811 1920.164575 1920.326844 1923.465149 1926.434102
80.210000 1916.652732 1919.481320 1922.600003 1922.702957 1925.835054 1929.090526
80.285000 1917.998515 1921.389212 1924.607733 1924.668916 1927.951366 1931.274007
80.360000 1919.670922 1923.168981 1926.683580 1926.685082 1930.114458 1934.017937
80.490000 1922.877078 1926.366232 1930.191458 1930.261606 1934.077963 1938.345385
80.610000 1926.016025 1929.734317 1933.392512 1933.618955 1937.641412 1942.028901
80.730000 1929.598112 1933.060503 1937.002577 1936.976673 1941.001972 1944.923342
80.810000 1931.877750 1935.163036 1939.063926 1939.096844 1943.199040 1946.615610
80.895000 1934.137647 1937.592604 1941.409778 1941.438428 1945.326849 1949.369379
80.980000 1936.639119 1940.286213 1943.916695 1943.905530 1947.383183 1951.003728
81.090000 1940.547110 1944.101863 1947.690515 1947.634602 1951.302246 1953.644656
81.175000 1944.030268 1947.922721 1951.344065 1950.925817 1953.927644 1955.554037
81.260000 1948.213945 1952.014182 1954.467889 1954.023432 1956.029827 1957.190126
81.335000 1951.894047 1954.769471 1956.265756 1956.016029 1957.390131 1958.413579
81.410000 1955.991288 1956.894141 1957.872646 1957.853979 1958.790929 1959.704501
81.485000 1957.145634 1958.110283 1959.261089 1959.353736 1960.442799 1962.285841
81.560000 1958.238787 1959.308903 1960.604456 1960.799962 1962.320651 1964.551563
81.635000 1959.284121 1960.495436 1961.936600 1962.209860 1964.018806 1966.527219
81.710000 1960.449606 1961.658951 1963.300391 1963.652486 1965.604779 1968.427169
81.785000 1961.500914 1963.032896 1964.872444 1965.275257 1967.683185 1970.877401
81.860000 1963.075115 1964.465017 1966.571439 1966.940939 1969.585703 1972.684736
81.935000 1964.242162 1965.894246 1968.356819 1968.570460 1971.287213 1974.650702
82.010000 1965.624997 1967.461697 1970.114553 1970.339308 1973.109245 1976.673161
82.110000 1967.732392 1970.000829 1973.099008 1973.345934 1976.501159 1980.267265
82.210000 1970.417911 1973.028712 1976.671758 1976.586377 1979.852360 1983.404648
82.310000 1973.731265 1976.476632 1979.703215 1979.858397 1983.152064 1986.252488
82.385000 1975.304724 1978.753389 1981.997248 1981.911692 1985.119777 1988.144174
82.460000 1976.914184 1980.902825 1983.977699 1983.926629 1987.037119 1989.713471
82.535000 1978.668244 1982.756097 1986.223170 1986.032234 1989.203202 1991.840408
82.610000 1980.377343 1984.888689 1988.195471 1987.995420 1991.137108 1994.065112
82.700000 1982.966315 1987.059160 1990.348093 1990.187432 1993.184967 1996.169280
