depth(m) lower_95(kyr) lower_68(kyr) median(kyr) mean(kyr) upper_68(kyr) upper_95(kyr)
14.315000 1494.648138 1498.995536 1501.695138 1501.312210 1503.652827 1505.141794
14.340000 1497.173878 1500.834828 1503.299961 1502.954609 1505.078435 1506.472933
14.365000 1499.595158 1502.455262 1504.856216 1504.541628 1506.486674 1507.889070
14.390000 1501.575259 1504.267926 1506.350377 1506.132041 1507.952776 1509.570627
14.415000 1503.813239 1506.026184 1508.012992 1508.047514 1510.040472 1512.315098
14.440000 1505.781316 1507.667521 1509.599458 1509.774660 1511.868086 1514.582696
14.465000 1508.343841 1509.880997 1511.896855 1512.181001 1514.611857 1517.105076
14.490000 1510.379362 1511.988384 1514.475557 1514.587271 1517.208318 1519.838376
14.540000 1513.309343 1516.219471 1519.138953 1518.956417 1521.558351 1524.126734
14.565000 1515.362125 1518.181068 1521.262292 1521.081915 1523.856077 1526.290343
14.615000 1519.831816 1522.785990 1525.529262 1525.352393 1527.939613 1529.744322
14.640000 1525.224808 1527.556927 1529.286574 1529.101316 1530.660680 1531.638542
14.665000 1529.040884 1530.466009 1531.587792 1531.499698 1532.545536 1533.500899
14.690000 1531.342400 1532.373372 1533.296782 1533.299318 1534.271525 1535.129143
14.715000 1532.760804 1533.714184 1534.684531 1534.674858 1535.553800 1536.509218
14.740000 1534.007110 1535.059712 1535.938186 1535.922584 1536.803342 1537.724470
14.765000 1535.173241 1536.219099 1537.135848 1537.121440 1537.986842 1538.795277
14.790000 1536.509118 1537.487885 1538.358774 1538.343873 1539.218784 1540.081720
14.815000 1537.871952 1538.691377 1539.567891 1539.592308 1540.495262 1541.431889
14.840000 1538.998149 1539.931747 1540.768967 1540.791427 1541.680323 1542.726246
14.865000 1540.156814 1541.097904 1542.008426 1542.065224 1543.004784 1544.292156
14.890000 1541.349248 1542.288700 1543.275586 1543.329444 1544.253068 1545.950089
14.915000 1542.541838 1543.431135 1544.464231 1544.645781 1545.804005 1547.867938
14.940000 1543.652633 1544.585514 1545.763278 1545.977530 1547.383298 1549.682006
14.965000 1544.713407 1545.894547 1547.177981 1547.427119 1548.962181 1551.521279
14.990000 1545.918563 1547.191759 1548.694299 1548.931829 1550.740277 1552.902472
15.015000 1547.023706 1548.447798 1550.095105 1550.352040 1552.349553 1554.396256
15.040000 1548.323272 1549.678223 1551.637690 1551.842964 1553.980082 1556.373682
15.065000 1549.564358 1551.052085 1553.163780 1553.402514 1555.551896 1558.553997
15.090000 1550.823201 1552.522903 1554.818465 1555.025550 1557.303559 1561.205209
15.115000 1551.934762 1553.918794 1556.779834 1557.406116 1560.902215 1565.992784
15.140000 1553.309677 1555.178669 1558.627677 1559.656778 1565.157911 1568.801098
15.165000 1554.770374 1557.060040 1560.798780 1561.960039 1568.302556 1571.677798
15.215000 1561.208902 1564.218938 1567.185369 1567.683557 1571.302067 1576.323709
15.240000 1568.057663 1570.560804 1572.766218 1572.915903 1575.414090 1578.855790
15.265000 1571.303294 1573.244496 1575.761440 1575.908152 1578.715260 1580.802360
15.290000 1573.470942 1575.698381 1578.655353 1578.380841 1580.830515 1582.555212
15.315000 1575.182317 1578.636253 1581.027765 1580.667025 1582.746812 1584.467450
15.340000 1577.455386 1580.407886 1582.814184 1582.458349 1584.428699 1585.979310
15.365000 1580.391516 1582.749243 1584.680275 1584.614808 1586.496719 1588.378322
15.390000 1582.733795 1584.432751 1586.228786 1586.259165 1588.139875 1590.040809
15.415000 1584.909560 1586.385435 1588.105621 1588.184414 1590.046284 1591.787548
15.440000 1586.553110 1587.952280 1589.832123 1589.853641 1591.658504 1593.067479
15.465000 1588.028479 1589.740390 1591.594374 1591.513274 1593.113434 1594.516586
15.490000 1589.424333 1591.887633 1593.566138 1593.353785 1594.768418 1596.146135
15.515000 1591.004955 1593.834435 1595.368835 1595.132304 1596.556744 1597.809547
15.540000 1592.858734 1595.533808 1596.961609 1596.814268 1598.179567 1599.401736
15.565000 1595.295528 1597.165397 1598.500929 1598.421619 1599.704772 1600.862495
15.590000 1597.632910 1599.003604 1600.195791 1600.158708 1601.313105 1602.426846
15.615000 1599.350219 1600.588266 1601.654285 1601.641948 1602.759902 1603.935522
15.640000 1600.743437 1601.940801 1603.023284 1603.025919 1604.182356 1605.391037
15.665000 1602.355700 1603.387647 1604.538811 1604.516358 1605.625335 1606.816231
15.690000 1604.110615 1605.060364 1606.185455 1606.198599 1607.225470 1608.836555
15.715000 1605.559110 1606.507358 1607.622887 1607.782614 1608.895266 1611.495980
15.740000 1606.847724 1607.820796 1609.088155 1609.348329 1610.654036 1614.548628
15.765000 1608.354187 1609.290627 1610.747488 1611.041025 1612.697924 1616.032020
15.790000 1609.525275 1610.801337 1612.558336 1612.794815 1614.810254 1617.850578
15.815000 1610.925285 1612.384960 1614.297704 1614.601090 1616.741061 1619.801164
15.840000 1612.689610 1614.199151 1616.233991 1616.597310 1619.141911 1621.860483
15.865000 1614.170093 1615.804020 1618.167098 1618.508067 1621.314886 1624.080723
15.890000 1615.617427 1617.481832 1620.361962 1620.457903 1623.433173 1626.023483
15.915000 1617.274364 1619.724680 1622.503865 1622.518657 1625.377714 1627.496093
15.940000 1618.754546 1622.119178 1624.930015 1624.727624 1627.242182 1629.176134
15.965000 1620.623999 1624.398059 1626.941133 1626.726263 1629.195843 1631.043510
15.990000 1622.977724 1626.332789 1628.906557 1628.801987 1631.244391 1633.593085
16.015000 1624.620423 1628.458750 1631.218283 1631.138833 1633.977498 1636.759455
16.040000 1626.895244 1630.399386 1633.429400 1633.428074 1636.717847 1639.156028
16.065000 1628.955832 1632.421599 1635.895574 1635.686007 1638.912168 1641.020880
16.095000 1631.687422 1635.756364 1638.906352 1638.503856 1641.318780 1643.004120
16.115000 1633.471254 1637.963772 1640.686191 1640.298384 1642.690063 1644.457358
16.140000 1637.423530 1640.468275 1642.571952 1642.416216 1644.476664 1646.080578
16.165000 1640.859147 1642.893206 1644.697122 1644.713370 1646.571486 1648.301455
16.190000 1643.605271 1645.352050 1646.989292 1647.010304 1648.758478 1650.246390
16.215000 1645.535522 1647.218970 1648.884367 1648.879984 1650.597055 1652.211657
16.240000 1647.111063 1648.738108 1650.533537 1650.468775 1652.137295 1653.617697
16.265000 1648.542257 1650.263746 1651.948788 1651.903314 1653.528802 1654.881218
16.290000 1650.018390 1651.576546 1653.283489 1653.193637 1654.862434 1656.252896
16.315000 1651.312743 1652.853517 1654.537456 1654.442402 1656.004883 1657.501145
16.365000 1653.346074 1655.105918 1656.681405 1656.671935 1658.220278 1659.721262
16.390000 1654.468349 1656.396808 1657.901133 1657.881070 1659.433262 1660.900100
16.415000 1656.028946 1657.582529 1659.123431 1659.128296 1660.704340 1662.052903
16.440000 1657.424734 1659.024868 1660.442339 1660.476124 1662.014319 1663.511964
16.465000 1659.015089 1660.448830 1661.965349 1662.022742 1663.568586 1665.636179
16.490000 1660.598938 1662.275363 1663.771628 1663.984295 1665.711807 1668.653249
16.515000 1663.058465 1664.554032 1666.312886 1666.757660 1669.151766 1672.823190
16.540000 1664.926338 1666.371990 1668.502409 1668.915243 1671.351966 1675.425351
16.565000 1666.327003 1668.015244 1670.486006 1670.793148 1673.495600 1677.303303
16.590000 1667.690398 1669.700490 1672.217537 1672.515838 1675.307505 1679.078885
16.615000 1668.975864 1671.241512 1673.885027 1674.230268 1677.189449 1681.143117
16.640000 1670.379266 1672.903924 1675.730496 1676.083791 1679.480494 1683.461848
16.665000 1671.713028 1674.465596 1677.492583 1677.892250 1681.592093 1685.380092
16.690000 1673.220850 1676.183173 1679.483998 1679.733409 1683.403462 1687.208327
16.715000 1675.003312 1677.796254 1681.485282 1681.628238 1685.454915 1688.832622
16.740000 1676.909853 1679.720573 1683.682087 1683.584682 1687.380000 1690.524697
16.765000 1678.855223 1681.805605 1685.453051 1685.482199 1689.264510 1691.940552
16.790000 1681.266744 1683.920990 1687.446776 1687.441367 1690.895031 1693.931107
16.815000 1682.925371 1686.182540 1689.569855 1689.442439 1692.806784 1695.384682
16.840000 1685.582027 1688.502518 1691.738259 1691.639790 1694.739562 1697.173010
16.865000 1687.282587 1691.109094 1694.374986 1694.177209 1697.087013 1700.138717
16.890000 1689.974324 1693.695357 1696.848607 1696.769992 1699.816036 1703.080396
16.940000 1697.096650 1699.904545 1702.935687 1702.901646 1705.767643 1709.105041
16.965000 1699.936120 1702.739024 1705.760157 1705.638854 1708.515677 1711.107055
17.010000 1705.770576 1709.167822 1711.747512 1711.630022 1714.124127 1716.410781
17.035000 1708.269640 1711.487573 1713.992607 1713.843540 1716.128414 1718.230630
17.060000 1710.978898 1713.374774 1715.783650 1715.633322 1717.823598 1719.998219
17.087500 1712.726064 1715.260636 1717.593489 1717.499175 1719.620377 1721.648834
17.112500 1714.565517 1717.029288 1719.267186 1719.157110 1721.290760 1723.532553
17.137500 1715.933147 1718.692359 1720.762431 1720.698526 1722.839525 1725.009084
17.162500 1717.386540 1720.091576 1722.144613 1722.161733 1724.243394 1726.481854
17.187500 1719.017288 1721.435001 1723.531930 1723.578605 1725.667693 1728.616617
17.212500 1720.324697 1722.887902 1724.896014 1724.956340 1727.035647 1730.331782
17.237500 1721.663259 1724.169905 1726.338424 1726.362346 1728.421714 1731.977598
17.262500 1723.106239 1725.415598 1727.613124 1727.742775 1729.932071 1733.570786
17.287500 1724.561783 1726.687920 1729.065996 1729.149116 1731.497014 1735.083647
17.312500 1726.017352 1728.036444 1730.347810 1730.522897 1732.940992 1736.777203
17.337500 1727.045995 1729.396272 1731.650813 1731.966858 1734.438019 1739.077751
17.365000 1728.472986 1730.978008 1733.294414 1733.587831 1736.290983 1740.690072
17.387500 1729.301350 1732.069770 1734.643280 1734.947790 1737.878181 1742.073224
17.412500 1730.762467 1733.359333 1736.103747 1736.471964 1739.665641 1744.020894
17.437500 1731.936066 1734.634191 1737.660291 1738.055447 1741.909078 1746.339100
17.465000 1733.094101 1736.084310 1739.343962 1739.894866 1744.298044 1748.051500
17.490000 1734.424306 1737.537475 1740.886656 1741.587528 1746.300787 1749.793626
17.515000 1735.939911 1738.906413 1742.746660 1743.260526 1748.259128 1751.454909
17.540000 1737.442455 1740.569400 1744.813176 1745.055667 1750.163349 1752.913599
17.550000 1737.868907 1741.401706 1745.678605 1745.822324 1750.791371 1753.487808
17.585000 1740.801732 1744.325937 1749.055768 1748.639306 1752.778251 1755.281555
17.610000 1743.118754 1746.885127 1750.975683 1750.645946 1754.376020 1756.651790
17.635000 1745.198980 1749.161096 1753.007796 1752.616609 1755.926754 1757.912609
17.660000 1747.511760 1751.509963 1755.082078 1754.612035 1757.513987 1759.839993
17.685000 1750.727750 1754.076552 1757.284535 1756.997492 1759.698516 1762.523424
17.710000 1753.668090 1756.778318 1759.440542 1759.394869 1761.981427 1764.850495
17.735000 1756.458689 1759.321324 1762.097792 1762.101138 1764.850220 1767.815329
17.760000 1758.678936 1761.477691 1764.557032 1764.581185 1767.489389 1770.561535
17.785000 1760.919355 1763.537091 1766.834651 1766.837165 1770.105865 1772.996092
17.810000 1763.185803 1765.827278 1768.919130 1769.016834 1772.261603 1775.222435
17.835000 1765.322006 1768.398968 1771.268479 1771.413675 1774.780793 1777.345395
17.860000 1768.163295 1771.244650 1773.940499 1774.044408 1777.195664 1779.726541
17.885000 1770.977701 1773.734156 1776.801813 1776.829611 1779.972134 1782.521473
17.910000 1773.496579 1776.840628 1779.825716 1779.740223 1782.657822 1785.295003
17.935000 1778.195966 1780.925913 1783.364009 1783.330730 1785.946486 1787.746430
17.960000 1780.946045 1783.409134 1785.709967 1785.591042 1787.914061 1789.228915
17.985000 1783.128420 1785.417689 1787.486924 1787.347135 1789.358109 1790.770402
18.020000 1786.009690 1787.866078 1789.636397 1789.506058 1791.123715 1792.367683
18.035000 1787.055765 1789.098487 1790.651180 1790.466347 1791.871123 1793.034020
18.085000 1791.888321 1792.666051 1793.522693 1793.525463 1794.346537 1795.200487
18.110000 1793.470011 1794.445234 1795.730106 1795.987449 1797.696903 1799.638772
18.135000 1795.144783 1796.652576 1798.806407 1798.760882 1800.768418 1802.610702
18.160000 1797.141715 1799.327657 1801.278623 1801.164101 1802.963005 1804.667872
18.185000 1799.039717 1801.318901 1803.024801 1802.911427 1804.597532 1806.246671
18.210000 1800.420942 1802.621209 1804.311443 1804.206491 1805.893569 1807.406586
18.235000 1801.618317 1803.793057 1805.427036 1805.341262 1806.998635 1808.491632
18.260000 1802.813231 1804.796395 1806.465141 1806.394638 1808.070153 1809.486953
18.285000 1804.052818 1805.723327 1807.430193 1807.375829 1809.028277 1810.442220
18.310000 1805.023191 1806.805686 1808.417665 1808.369965 1810.007282 1811.441715
18.335000 1806.066427 1807.776516 1809.397712 1809.349873 1810.953685 1812.311779
18.360000 1807.015027 1808.791392 1810.421305 1810.338396 1811.921124 1813.364234
18.385000 1807.834682 1809.775969 1811.431595 1811.326178 1812.906217 1814.290924
18.410000 1808.821883 1810.816767 1812.355787 1812.300385 1813.851225 1815.233274
18.435000 1809.725377 1811.736366 1813.379984 1813.274881 1814.756911 1816.123408
18.460000 1810.786834 1812.724146 1814.277702 1814.229376 1815.724924 1817.047870
18.485000 1811.835368 1813.750108 1815.250757 1815.173015 1816.668050 1817.903914
18.510000 1812.973430 1814.702207 1816.163864 1816.105827 1817.645934 1818.873692
18.535000 1813.888496 1815.608678 1817.057585 1817.033033 1818.513271 1819.820170
18.560000 1814.767672 1816.476797 1817.936243 1817.942615 1819.503835 1820.813537
18.585000 1815.714344 1817.429906 1818.854273 1818.864432 1820.456072 1821.720671
18.610000 1816.577564 1818.343011 1819.781299 1819.785240 1821.334957 1822.685603
18.635000 1817.645934 1819.292326 1820.685076 1820.708395 1822.247469 1823.539349
18.660000 1818.577230 1820.241233 1821.628353 1821.642399 1823.131068 1824.433948
18.685000 1819.456347 1821.209945 1822.595772 1822.582265 1824.079881 1825.448488
18.710000 1820.322838 1822.155435 1823.540555 1823.513955 1825.000656 1826.245014
18.735000 1821.161695 1823.086051 1824.508352 1824.450170 1825.971049 1827.183201
18.760000 1822.129418 1824.004562 1825.498666 1825.401110 1826.867502 1828.249062
18.785000 1823.032894 1824.920487 1826.395372 1826.312189 1827.775659 1829.176332
18.810000 1823.907861 1825.832913 1827.350110 1827.251269 1828.696231 1829.915876
18.835000 1824.819486 1826.850539 1828.213468 1828.186272 1829.589512 1830.867214
18.860000 1825.683941 1827.800506 1829.191459 1829.140383 1830.564519 1831.964047
18.885000 1826.904748 1828.727733 1830.139414 1830.099490 1831.556102 1832.852677
18.910000 1827.990858 1829.718950 1831.156031 1831.069246 1832.465053 1833.817953
18.935000 1829.006195 1830.664358 1832.060139 1832.033297 1833.454174 1834.835618
18.985000 1830.950701 1832.529142 1833.948646 1833.846813 1835.096378 1836.274281
19.010000 1831.935051 1833.498591 1834.959427 1834.842077 1836.115682 1837.277648
19.035000 1833.081108 1834.600364 1835.979364 1835.866030 1837.121142 1838.129194
19.085000 1835.291272 1836.687075 1837.877798 1837.811922 1838.929475 1840.054929
19.110000 1836.487702 1837.852383 1838.980695 1838.911880 1839.965119 1841.024144
19.135000 1837.972563 1839.118727 1840.095888 1840.075030 1841.049654 1842.071334
19.160000 1839.580954 1840.429516 1841.268320 1841.301464 1842.186704 1843.128817
19.185000 1840.786501 1841.656778 1842.683760 1842.838538 1843.955601 1845.930312
19.210000 1841.942913 1842.942509 1844.134961 1844.387275 1845.858607 1848.093254
19.235000 1843.075899 1844.280535 1845.997056 1846.205982 1848.106585 1850.251482
19.260000 1844.388202 1845.716843 1847.738059 1847.818390 1849.897406 1851.959072
19.285000 1845.584273 1847.114628 1849.230555 1849.245076 1851.423150 1853.423120
19.310000 1846.683100 1848.455906 1850.616801 1850.660813 1852.851991 1855.144433
19.335000 1848.098958 1850.033807 1852.249980 1852.246131 1854.391181 1856.428588
19.360000 1849.633324 1851.650983 1853.776017 1853.790240 1855.784784 1857.906897
19.385000 1851.009718 1853.235002 1855.302898 1855.300517 1857.254132 1859.351194
19.410000 1852.841671 1854.811402 1856.882972 1856.914952 1858.940783 1861.246385
19.435000 1854.491650 1856.447507 1858.527017 1858.578980 1860.574204 1863.544283
19.460000 1856.048149 1858.109249 1860.341074 1860.445059 1862.699261 1865.567870
19.485000 1857.633065 1859.755066 1861.924957 1862.140209 1864.666298 1867.325349
19.510000 1859.313233 1861.753740 1863.747977 1863.952639 1866.269777 1868.976709
19.535000 1861.281635 1863.768261 1865.874956 1866.122610 1868.668668 1871.297721
19.560000 1863.148984 1865.894891 1868.366231 1868.450215 1871.120848 1873.786102
19.585000 1865.067612 1867.917761 1870.886690 1870.938369 1874.081567 1876.961578
19.610200 1867.289863 1869.965387 1873.296603 1873.282709 1876.668294 1879.308016
19.635000 1868.813370 1871.792505 1875.644554 1875.430396 1878.828309 1881.788945
19.660000 1871.117715 1874.420819 1878.014315 1877.778090 1880.949004 1883.532105
19.685000 1873.338224 1876.866981 1880.458960 1880.180496 1883.210304 1885.626479
19.710000 1875.553196 1879.487389 1882.644524 1882.383977 1885.270501 1887.342162
19.735000 1877.383652 1881.404356 1884.520938 1884.248654 1886.943769 1889.021129
19.760000 1879.467522 1883.361679 1886.267292 1886.004340 1888.621217 1890.648832
19.785000 1881.660062 1885.052699 1887.979819 1887.729936 1890.284263 1892.258861
19.810000 1883.866317 1887.065077 1889.810313 1889.531519 1892.006696 1893.965033
19.835000 1885.418002 1888.863376 1891.695602 1891.438777 1893.989266 1896.114693
19.860000 1888.032896 1890.615102 1893.626348 1893.535154 1896.199899 1898.628929
19.885000 1890.929043 1893.607059 1896.587525 1896.546706 1899.330969 1903.015014
19.910000 1895.619499 1898.523261 1901.031487 1901.359683 1904.437884 1907.774632
19.935000 1898.774183 1901.875304 1905.515960 1905.504925 1909.234841 1912.248598
19.960000 1901.677517 1905.729231 1909.979108 1909.504127 1912.900309 1915.449742
19.985000 1906.521536 1910.098719 1913.427272 1913.178887 1916.169113 1919.145396
20.010000 1910.706028 1913.819349 1916.615271 1916.660715 1919.611019 1922.893027
20.035000 1913.411209 1916.351986 1919.175139 1919.215000 1922.185878 1925.347606
20.060000 1915.865981 1918.746313 1921.176694 1921.403447 1924.215101 1927.604032
20.085000 1917.768409 1920.744665 1923.139802 1923.371175 1926.033367 1929.401722
20.110000 1919.770900 1922.594357 1925.347956 1925.385373 1928.088893 1931.309289
20.135000 1921.453668 1924.461987 1927.254374 1927.276867 1930.035052 1933.066145
20.160000 1923.515049 1926.094545 1928.936479 1928.930174 1931.702713 1934.749859
20.185000 1925.209854 1927.809705 1930.781994 1930.704043 1933.573420 1936.640988
20.210000 1926.794680 1929.356920 1932.360048 1932.334851 1935.234239 1937.813340
20.235000 1928.343312 1930.907067 1933.773738 1933.810590 1936.810459 1939.061575
20.260000 1929.788693 1932.279409 1935.266876 1935.262310 1938.235809 1940.273515
20.285000 1931.205365 1933.840225 1936.824815 1936.737579 1939.675745 1941.644426
20.310000 1932.839953 1935.625599 1938.417834 1938.214025 1940.914334 1942.787743
20.335000 1934.134105 1937.082933 1939.856272 1939.646381 1942.177484 1943.888253
20.360000 1935.660497 1938.569416 1941.340297 1941.039626 1943.405290 1944.978614
20.385000 1937.296706 1940.059535 1942.656455 1942.378429 1944.493408 1946.120182
20.411000 1938.916375 1941.702272 1943.944926 1943.714341 1945.697307 1947.111111
20.460000 1941.830698 1944.240772 1946.070550 1945.889300 1947.583946 1948.904713
20.485000 1943.149489 1945.424954 1947.191816 1947.027340 1948.595022 1949.928481
20.510000 1944.520627 1946.674915 1948.234041 1948.109526 1949.518157 1950.831125
20.535000 1945.763196 1947.772473 1949.281322 1949.143426 1950.500326 1951.780129
20.560000 1947.062288 1948.828943 1950.321880 1950.171173 1951.497997 1952.698683
20.585000 1948.110330 1949.982698 1951.271109 1951.185821 1952.418035 1953.553305
