depth(m) lower_95(kyr) lower_68(kyr) median(kyr) mean(kyr) upper_68(kyr) upper_95(kyr)
49.450000 39466.012161 39466.843538 39467.860323 39467.828552 39468.764467 39469.601114
49.480000 39466.855787 39467.812042 39468.847788 39468.898396 39469.890346 39471.434596
49.520000 39467.694909 39468.920850 39470.100401 39470.287331 39471.716723 39473.454244
49.550000 39468.513917 39469.761400 39471.070527 39471.273443 39472.904692 39475.019635
49.580000 39469.439676 39470.608399 39472.122396 39472.300607 39473.970762 39476.233783
49.610000 39470.342928 39471.498596 39473.187598 39473.317757 39474.991057 39477.012819
49.640000 39471.298881 39472.491892 39474.258682 39474.322654 39476.110176 39477.848821
49.670000 39472.257281 39473.468135 39475.327917 39475.332332 39477.081758 39478.929498
49.700000 39473.130571 39474.410986 39476.302926 39476.284246 39477.970120 39479.837636
49.730000 39473.861441 39475.338078 39477.237466 39477.209727 39478.929253 39480.987062
49.760000 39474.700624 39476.238332 39478.217302 39478.155951 39479.935460 39481.839857
49.790000 39475.508757 39477.192411 39479.104993 39479.068649 39480.880170 39482.689529
49.820000 39476.334697 39478.289390 39480.005761 39480.023627 39481.864322 39483.695069
49.850000 39477.268529 39479.172075 39480.931674 39481.006218 39482.864569 39484.684154
49.870000 39477.867623 39479.862443 39481.646456 39481.723270 39483.619552 39485.838122
49.880000 39478.260554 39480.216739 39481.988709 39482.083901 39483.901706 39486.124551
49.900000 39478.904068 39480.984006 39482.765460 39482.795579 39484.539716 39486.912031
49.910000 39479.336631 39481.384451 39483.077129 39483.154964 39484.820184 39487.346410
49.930000 39479.945162 39482.075696 39483.863227 39483.905440 39485.542642 39488.302194
49.940000 39480.324036 39482.514443 39484.190352 39484.272096 39485.963964 39488.581717
49.960000 39481.244630 39483.126993 39484.935449 39484.976454 39486.782923 39489.479778
49.970000 39481.554877 39483.484263 39485.238569 39485.316642 39487.156575 39489.940753
49.990000 39482.296762 39484.196587 39485.833773 39486.024281 39488.007635 39490.770059
50.000000 39482.668966 39484.467236 39486.181163 39486.367969 39488.434918 39491.226227
50.020000 39483.481018 39485.097941 39486.823937 39487.088093 39489.243163 39492.129023
50.030000 39483.743285 39485.412146 39487.130014 39487.423568 39489.724627 39492.613507
50.050000 39484.533221 39485.997835 39487.818984 39488.153510 39490.494693 39493.197405
50.060000 39484.800939 39486.370976 39488.177916 39488.507459 39490.894908 39493.520975
50.080000 39485.506135 39486.978577 39488.861008 39489.232999 39491.724471 39494.241108
50.090000 39485.789539 39487.332831 39489.210798 39489.589640 39492.071324 39494.542611
50.110000 39486.370059 39487.982265 39489.877077 39490.274103 39493.011028 39495.555492
50.120000 39486.600376 39488.279058 39490.250013 39490.606085 39493.347871 39495.789942
50.140000 39487.091635 39488.932989 39490.969897 39491.284002 39494.099955 39496.452178
50.150000 39487.414674 39489.217893 39491.341869 39491.629820 39494.454489 39496.827327
50.170000 39488.114396 39489.960822 39492.066751 39492.341301 39495.166813 39497.592848
50.200000 39488.945329 39490.929398 39493.229762 39493.488815 39496.344487 39498.756819
50.230000 39489.997418 39492.020398 39494.409824 39494.643482 39497.512676 39499.981255
50.260000 39490.891109 39493.104330 39495.581811 39495.788055 39498.644662 39501.034233
50.290000 39492.017329 39494.161155 39496.741631 39496.887373 39499.703814 39502.144426
50.320000 39492.913347 39495.264639 39497.849715 39497.949161 39500.689759 39503.026448
50.350000 39494.079675 39496.408088 39499.072874 39499.060297 39501.819245 39503.836223
50.380000 39495.339921 39497.467478 39500.213850 39500.189031 39502.837966 39504.801043
50.410000 39496.528385 39498.682803 39501.388571 39501.294610 39503.867034 39505.883009
50.440000 39497.767690 39499.724970 39502.511339 39502.373056 39504.857840 39506.939714
50.470000 39498.636833 39500.859348 39503.589393 39503.476556 39505.871709 39507.837388
50.500000 39499.647410 39502.180387 39504.752631 39504.602330 39506.998453 39508.851809
50.530000 39500.844880 39503.391680 39505.965242 39505.746904 39507.916191 39509.761502
50.560000 39502.374883 39504.752670 39507.170015 39506.949070 39509.010070 39510.901379
50.590000 39503.896094 39506.037198 39508.369967 39508.188077 39510.144851 39511.852730
50.620000 39505.202188 39507.427081 39509.493271 39509.390415 39511.323743 39512.872470
50.650000 39506.749200 39508.872554 39510.784393 39510.612090 39512.441180 39513.819644
50.680000 39507.812453 39510.129701 39511.950554 39511.766566 39513.411596 39514.606389
50.710000 39509.501970 39511.348215 39513.019057 39512.864600 39514.384644 39515.723383
50.740000 39510.946135 39512.437661 39513.971854 39513.889908 39515.307752 39516.473560
50.770000 39512.028309 39513.445531 39514.847040 39514.832619 39516.337254 39517.259802
50.800000 39513.010944 39514.324714 39515.705218 39515.680798 39517.092634 39517.995034
50.830000 39513.639192 39515.129152 39516.518782 39516.461519 39517.828501 39518.720875
50.860000 39514.495202 39515.892461 39517.279070 39517.203626 39518.528139 39519.412094
50.890000 39515.220918 39516.587206 39517.988588 39517.888731 39519.233160 39520.141288
50.920000 39516.034088 39517.313940 39518.595282 39518.545629 39519.825162 39520.788496
50.950000 39516.775552 39517.947628 39519.231423 39519.205125 39520.464631 39521.576657
50.980000 39517.460598 39518.540990 39519.897802 39519.854364 39521.116146 39522.154315
51.010000 39518.109950 39519.171906 39520.605988 39520.516892 39521.781932 39522.885610
51.040000 39518.771048 39519.773487 39521.183816 39521.150563 39522.406284 39523.562518
51.070000 39519.346824 39520.370082 39521.818539 39521.809870 39523.105167 39524.351496
51.100000 39519.999781 39521.000718 39522.466428 39522.476002 39523.796677 39525.188934
51.130000 39520.554764 39521.666937 39523.155095 39523.148005 39524.525603 39526.001963
51.160000 39521.236767 39522.326316 39523.830086 39523.849252 39525.213053 39527.057853
51.190000 39521.884912 39522.952655 39524.475573 39524.532803 39525.958005 39527.850800
51.220000 39522.551581 39523.665106 39525.150384 39525.254289 39526.722502 39528.773813
51.250000 39523.280371 39524.379622 39525.836625 39525.982319 39527.464229 39529.676505
51.280000 39523.900279 39525.077545 39526.573331 39526.752177 39528.355553 39530.483018
51.310000 39524.507874 39525.855093 39527.378361 39527.590836 39529.409017 39531.481420
51.340000 39525.271667 39526.659900 39528.203527 39528.448242 39530.365849 39532.495546
51.370000 39526.013474 39527.420075 39529.058930 39529.297266 39531.401632 39533.373313
51.400000 39526.675025 39528.177974 39529.988483 39530.169033 39532.325801 39534.280688
51.430000 39527.363636 39528.967641 39530.830499 39531.003562 39533.151860 39535.187304
51.460000 39528.001784 39529.741485 39531.667525 39531.854444 39534.105383 39535.916544
51.490000 39528.760675 39530.497106 39532.494909 39532.681859 39534.973363 39536.855421
51.520000 39529.468319 39531.218216 39533.453493 39533.529026 39535.863685 39537.859833
51.550000 39530.339683 39532.184682 39534.299363 39534.406395 39536.771804 39539.012018
51.580000 39531.193209 39533.001078 39535.248660 39535.303616 39537.631506 39540.088678
51.610000 39531.988216 39533.792049 39536.222668 39536.183886 39538.528430 39541.017199
51.640000 39532.712666 39534.602031 39537.172222 39537.066185 39539.392168 39541.644452
51.670000 39533.525642 39535.527078 39538.053563 39537.959529 39540.153638 39542.371480
51.700000 39534.304286 39536.354256 39538.960744 39538.835984 39540.999553 39543.205182
51.730000 39535.025541 39537.419013 39539.846402 39539.735691 39541.914096 39544.176594
51.760000 39535.852345 39538.427868 39540.723653 39540.653426 39542.880251 39544.983610
51.790000 39536.796805 39539.296462 39541.630021 39541.554658 39543.820749 39545.889070
51.820000 39537.751486 39540.284800 39542.439983 39542.478349 39544.782326 39546.797823
51.850000 39538.879276 39541.222551 39543.401021 39543.410187 39545.676774 39547.723087
51.880000 39539.904694 39542.213376 39544.365276 39544.360748 39546.530382 39548.648633
51.910000 39540.754694 39543.111460 39545.333872 39545.305431 39547.518589 39549.537656
51.940000 39541.905393 39544.156072 39546.388246 39546.294032 39548.396930 39550.304442
51.970000 39543.080253 39545.222829 39547.355954 39547.358044 39549.484550 39551.244359
52.000000 39544.293594 39546.476044 39548.635653 39548.528960 39550.502442 39552.196015
52.030000 39545.698795 39547.918491 39549.904777 39549.788340 39551.736714 39553.354639
52.060000 39547.141965 39549.313027 39551.222410 39551.144539 39553.020981 39554.614598
52.090000 39548.805417 39550.661378 39552.568874 39552.441332 39554.251980 39555.770593
52.120000 39550.132302 39551.834856 39553.610440 39553.607595 39555.371683 39557.000382
52.150000 39551.295810 39552.923255 39554.630455 39554.656902 39556.358898 39558.048307
52.180000 39552.461399 39553.980629 39555.600992 39555.678951 39557.368809 39559.107862
52.210000 39553.506317 39555.031844 39556.681491 39556.737853 39558.506680 39560.091309
52.240000 39554.424653 39556.033781 39557.793702 39557.807547 39559.620538 39561.337515
52.270000 39555.306032 39556.936231 39558.839814 39558.892967 39560.858713 39562.612663
52.300000 39556.132205 39557.936255 39560.068070 39560.076519 39562.095759 39564.040481
52.330000 39557.444920 39559.314494 39561.366591 39561.373884 39563.378217 39565.431793
52.360000 39558.769662 39560.649805 39562.671759 39562.787251 39564.954592 39567.117310
52.390000 39560.205378 39562.115857 39564.217519 39564.268887 39566.476500 39568.599014
52.420000 39561.405784 39563.694779 39565.883362 39565.863505 39568.022176 39570.379514
52.450000 39563.006142 39565.073675 39567.329877 39567.361875 39569.566383 39571.865386
52.480000 39564.223357 39566.389284 39568.742554 39568.769505 39571.046630 39573.236696
52.510000 39565.328781 39567.717937 39570.068159 39570.061012 39572.277257 39574.657047
52.540000 39566.964833 39569.145181 39571.411588 39571.497575 39573.711444 39576.337760
52.570000 39568.384566 39570.447189 39572.645334 39572.759076 39575.065359 39577.692587
52.600000 39569.534423 39571.678513 39573.829624 39574.006612 39576.369941 39579.136335
52.630000 39570.913037 39572.823141 39575.046170 39575.198422 39577.618221 39580.254664
52.660000 39571.974683 39573.783217 39576.028339 39576.254111 39578.798643 39581.452944
52.690000 39572.844053 39574.719830 39576.995543 39577.260445 39579.925668 39582.853189
52.720000 39573.911044 39575.669866 39577.949391 39578.263680 39580.868342 39583.887097
52.750000 39574.663406 39576.557392 39579.040432 39579.232354 39581.977838 39584.796298
52.780000 39575.490285 39577.362864 39580.021500 39580.197199 39582.987333 39585.739850
52.810000 39576.352512 39578.328393 39580.973155 39581.175904 39583.868449 39586.725011
52.840000 39577.221308 39579.227042 39581.950150 39582.109251 39584.863508 39587.635158
52.870000 39578.087004 39580.216007 39582.909361 39583.096054 39586.058601 39589.351813
52.900000 39578.914203 39581.094915 39583.955986 39584.030431 39586.886175 39590.356101
52.930000 39579.971640 39582.119882 39584.899143 39584.979995 39587.818336 39591.315031
52.960000 39580.720453 39583.110623 39585.807765 39585.953772 39588.696038 39592.306114
52.990000 39581.590314 39584.036850 39586.785134 39586.906224 39589.675685 39593.313091
53.020000 39582.641418 39584.951507 39587.696791 39587.882668 39590.753106 39594.084043
53.050000 39583.360979 39585.929102 39588.625996 39588.833881 39591.769701 39595.224447
53.080000 39584.459653 39586.820565 39589.592224 39589.808036 39592.867136 39596.240575
53.110000 39585.387411 39587.936134 39590.482617 39590.770544 39593.824451 39597.406584
53.140000 39586.278878 39588.808291 39591.402326 39591.748880 39594.903953 39598.087034
53.170000 39587.135599 39589.815448 39592.302834 39592.686034 39596.047222 39599.274674
53.200000 39587.793383 39590.799098 39593.170889 39593.653414 39597.129130 39600.396977
53.230000 39588.762146 39591.704726 39594.094275 39594.637881 39598.060997 39601.247650
53.260000 39589.669862 39592.586737 39595.126259 39595.581904 39599.032389 39602.188410
53.290000 39590.807509 39593.521713 39596.119751 39596.535784 39599.941588 39603.419659
53.320000 39591.890352 39594.357111 39597.139634 39597.492805 39600.903311 39604.574557
53.350000 39592.953462 39595.289753 39598.118981 39598.466366 39601.944439 39605.369469
53.380000 39593.843899 39596.169601 39599.263583 39599.475272 39602.986044 39606.323700
53.410000 39594.878967 39597.118849 39600.341703 39600.455504 39603.953112 39607.134505
53.440000 39595.691028 39597.893202 39601.295016 39601.434740 39604.885078 39608.048200
53.470000 39596.744171 39598.876091 39602.319817 39602.450934 39605.958075 39609.262600
53.500000 39597.568954 39599.844528 39603.423873 39603.499896 39607.052511 39610.225324
53.530000 39598.588844 39600.828070 39604.594098 39604.493276 39607.991722 39610.838407
53.560000 39599.335753 39601.875571 39605.667074 39605.522085 39608.974147 39612.047224
53.590000 39600.238160 39602.873615 39606.643700 39606.556936 39610.000477 39612.814460
53.620000 39601.182200 39603.953895 39607.774988 39607.669575 39611.173826 39613.883145
53.650000 39602.145301 39605.013506 39608.973753 39608.807821 39612.393739 39615.017973
53.680000 39603.247396 39606.139072 39610.193237 39609.935518 39613.521822 39616.281975
53.710000 39604.384295 39607.208901 39611.218293 39610.992939 39614.449755 39617.119068
53.740000 39605.529384 39608.193162 39612.351861 39612.039628 39615.475571 39618.127657
53.770000 39606.497795 39609.552930 39613.352582 39613.117640 39616.517374 39619.123719
53.800000 39607.332040 39610.667300 39614.314748 39614.141559 39617.608385 39620.061945
53.830000 39608.413157 39611.694299 39615.384142 39615.185041 39618.528071 39620.941128
53.860000 39609.386206 39612.602538 39616.518413 39616.216569 39619.595897 39621.761927
53.890000 39610.703641 39613.760080 39617.360170 39617.225340 39620.551046 39622.742174
53.920000 39611.825616 39614.771775 39618.359163 39618.218928 39621.491574 39623.688773
53.950000 39612.864980 39615.877818 39619.316859 39619.219796 39622.515149 39624.824580
53.980000 39613.741509 39616.863607 39620.293073 39620.177535 39623.379612 39625.908487
54.010000 39614.675849 39617.942936 39621.306973 39621.157698 39624.250502 39627.129140
54.040000 39615.717519 39618.887733 39622.380848 39622.194229 39625.266225 39627.908120
54.070000 39617.052453 39619.914752 39623.493939 39623.211213 39626.305200 39629.049368
54.100000 39618.013484 39621.008042 39624.389159 39624.204908 39627.350703 39629.996243
54.130000 39618.851991 39621.950335 39625.280022 39625.133209 39628.239583 39630.898723
54.160000 39619.769451 39622.952967 39626.274612 39626.092111 39629.164616 39631.856828
54.190000 39620.837579 39623.865036 39627.295745 39627.071412 39630.202153 39632.864481
54.220000 39621.802704 39624.916034 39628.175097 39628.028158 39631.064111 39634.107928
54.250000 39622.597204 39625.925663 39629.127797 39629.003696 39632.091005 39635.080228
54.280000 39623.817558 39626.881951 39630.127931 39630.012855 39632.947107 39635.932875
54.310000 39624.774998 39627.947103 39631.155845 39631.040083 39634.036715 39636.942215
54.340000 39625.966822 39628.900586 39632.110518 39632.039090 39635.038091 39637.723939
54.370000 39626.927321 39629.771831 39633.017139 39632.978141 39635.941521 39638.634252
54.400000 39628.020141 39630.788864 39634.020097 39633.918358 39636.912227 39639.615385
54.430000 39628.931302 39631.715373 39634.940911 39634.806880 39637.792425 39640.801897
54.460000 39629.759649 39632.578674 39635.889023 39635.698790 39638.694441 39641.658738
54.490000 39630.552611 39633.448212 39636.728658 39636.580507 39639.564908 39642.366160
54.520000 39631.449754 39634.381131 39637.669409 39637.486220 39640.471809 39643.335686
54.550000 39632.295412 39635.250357 39638.567455 39638.391804 39641.352318 39644.257225
54.580000 39633.182425 39636.070067 39639.377385 39639.290333 39642.260267 39645.289820
54.610000 39634.181822 39636.886780 39640.276888 39640.153967 39643.208428 39646.398694
54.640000 39635.051621 39637.818370 39641.173034 39641.058390 39644.240757 39647.244442
54.670000 39635.778626 39638.748883 39642.076584 39642.015992 39645.236012 39648.384170
54.700000 39636.788537 39639.770162 39643.010492 39642.957340 39646.223150 39649.075146
54.730000 39637.544129 39640.622906 39643.926753 39643.903261 39647.117350 39650.228474
54.760000 39638.296834 39641.507001 39644.882205 39644.832224 39648.062940 39651.195771
54.790000 39639.318837 39642.466070 39645.806135 39645.756782 39649.178062 39652.302596
54.820000 39640.293801 39643.314539 39646.670399 39646.663616 39650.118143 39653.061113
54.850000 39641.152697 39644.094854 39647.619527 39647.635148 39651.018698 39654.007792
54.880000 39642.198842 39645.002636 39648.600256 39648.641934 39652.252616 39654.956105
54.910000 39643.127358 39645.945232 39649.577353 39649.564884 39653.205747 39655.754623
54.940000 39644.407285 39646.934578 39650.590294 39650.543726 39654.144453 39656.640447
54.970000 39645.387252 39647.998488 39651.507944 39651.501732 39655.025339 39657.750625
55.000000 39646.355991 39649.020497 39652.518080 39652.472739 39655.942868 39658.611998
55.030000 39647.484241 39649.893973 39653.420200 39653.413207 39656.756366 39659.755077
55.060000 39648.305857 39650.959166 39654.360041 39654.387568 39657.675601 39660.744542
55.090000 39649.230644 39651.843059 39655.306641 39655.341431 39658.572638 39661.987983
55.120000 39650.331762 39652.748002 39656.240622 39656.269501 39659.452836 39662.940742
55.150000 39651.177043 39653.802108 39657.205007 39657.236118 39660.570156 39663.674141
55.180000 39651.957828 39654.912858 39658.077213 39658.152541 39661.525454 39664.421133
55.210000 39652.936977 39655.910453 39658.927386 39659.113015 39662.505117 39665.285738
55.240000 39653.939585 39656.986238 39659.866567 39660.084321 39663.437254 39666.433682
55.270000 39654.904969 39657.989407 39660.826165 39661.061024 39664.496021 39667.492171
55.300000 39656.126694 39659.002284 39661.897330 39662.070143 39665.485092 39668.407768
55.330000 39657.159265 39660.126456 39662.832619 39663.069027 39666.355088 39669.357733
55.360000 39657.999903 39661.132416 39663.951086 39664.099542 39667.340359 39670.384067
55.390000 39659.181522 39662.196474 39664.944927 39665.109793 39668.277443 39671.297486
55.420000 39660.298801 39663.224493 39665.914944 39666.070769 39669.149450 39672.474710
55.450000 39661.248055 39664.280283 39666.950143 39667.094309 39670.051092 39673.156096
55.480000 39662.393293 39665.112949 39668.009937 39668.108765 39670.900133 39674.004750
55.510000 39663.332307 39666.251488 39669.077497 39669.111159 39671.871063 39674.925949
55.540000 39664.405720 39667.335214 39670.309397 39670.143592 39672.818808 39675.935686
55.570000 39665.441327 39668.340056 39671.310007 39671.111582 39673.779921 39676.695478
55.600000 39666.436618 39669.324865 39672.309915 39672.085540 39674.675049 39677.464676
55.630000 39667.566037 39670.210975 39673.317269 39673.077709 39675.561989 39678.294328
55.660000 39668.696603 39671.418395 39674.234465 39674.090751 39676.621527 39679.456266
55.690000 39669.620075 39672.598982 39675.169375 39675.112307 39677.551078 39680.350108
55.720000 39670.626609 39673.790203 39676.272483 39676.211397 39678.508740 39681.512436
55.750000 39671.976315 39674.928175 39677.323791 39677.230014 39679.340158 39682.568330
55.780000 39672.702768 39676.006861 39678.237749 39678.202763 39680.236183 39683.577429
55.809000 39673.643399 39677.072724 39679.148422 39679.150390 39680.935231 39684.670943
55.810000 39673.706907 39677.110064 39679.180210 39679.182868 39680.966908 39684.695407
55.837000 39674.587216 39677.904546 39680.011923 39680.039815 39682.025718 39685.614452
55.840000 39674.696528 39678.004637 39680.097401 39680.130472 39682.163917 39685.764519
