depth(m) lower_95.4(kyr) lower_68.2(kyr) median(kyr) mean(kyr) upper_68.2(kyr) upper_95.4(kyr)
43.970000 1399.068632 1399.417407 1400.193179 1400.111424 1400.742581 1400.928647
44.070000 1401.094034 1402.094043 1403.619293 1403.934945 1405.926985 1408.355114
44.180000 1403.366680 1405.313939 1407.743465 1408.006646 1410.901523 1413.821704
44.270000 1405.818515 1408.255240 1411.426350 1411.851493 1415.366232 1419.846117
44.370000 1408.799537 1412.426898 1416.711047 1416.461994 1420.158992 1423.742378
44.470000 1411.092350 1416.145454 1420.310467 1419.907236 1423.786180 1426.957089
44.570000 1416.585473 1420.521503 1424.094042 1423.708349 1426.649356 1429.752176
44.670000 1421.850876 1425.150868 1427.914625 1427.909736 1430.034513 1434.067365
44.770000 1425.543362 1428.126592 1430.513241 1430.642368 1432.904953 1437.828554
44.880000 1428.945141 1431.339077 1433.618259 1433.869604 1436.485032 1440.535562
44.970000 1431.708241 1433.993185 1436.409864 1436.545296 1439.078238 1442.450533
45.070000 1434.722424 1436.962823 1439.407667 1439.547041 1442.260755 1444.728304
45.170000 1436.724866 1439.569388 1442.541707 1442.460125 1445.433855 1447.224662
45.270000 1440.130162 1442.810322 1445.623113 1445.589575 1448.414718 1450.459874
45.370000 1444.268879 1447.999218 1450.486248 1450.316257 1452.553985 1454.558014
45.470000 1451.030385 1452.759423 1454.714325 1454.666417 1456.337467 1457.961445
45.570000 1453.887789 1455.708026 1457.442365 1457.270818 1458.894440 1459.874177
45.660000 1456.148250 1457.730726 1459.511226 1459.270009 1460.854005 1461.951085
45.680000 1456.542806 1458.227808 1460.005772 1459.727510 1461.176194 1462.499301
45.760000 1458.033189 1459.994736 1461.484698 1461.418095 1462.849437 1464.258181
45.860000 1460.976239 1461.948304 1463.727194 1463.604108 1464.902391 1466.587735
45.960000 1463.226167 1464.477071 1466.057990 1466.095814 1467.714070 1470.302336
46.060000 1465.502405 1467.086569 1468.583453 1468.904489 1471.343350 1473.175676
46.160000 1467.945846 1469.600508 1471.461067 1471.766524 1473.726361 1478.167809
46.260000 1470.881217 1472.653707 1475.211480 1475.778067 1478.477161 1483.865783
46.360000 1473.314790 1475.988487 1479.735937 1479.516420 1483.038805 1486.377818
46.460000 1476.545184 1478.995904 1483.145842 1482.995727 1486.556593 1489.460551
46.560000 1479.680538 1481.561162 1487.319041 1486.613225 1490.077243 1492.660441
46.660000 1482.836791 1487.285997 1490.740665 1490.182858 1493.081176 1495.264117
46.760000 1489.504733 1492.284529 1494.998599 1495.002879 1497.927757 1501.300431
46.860000 1492.918645 1495.894488 1498.798218 1498.820228 1501.714263 1504.892724
46.960000 1495.429906 1498.238408 1502.077242 1501.756768 1505.318238 1506.928512
47.060000 1497.746154 1500.871472 1504.992667 1504.570068 1507.923229 1510.134345
47.160000 1500.388535 1503.576030 1507.461446 1506.970067 1510.067027 1512.372455
47.260000 1502.109279 1506.872369 1509.714481 1509.801001 1512.620118 1514.865124
47.360000 1507.762530 1510.539471 1512.837474 1513.058131 1516.189355 1517.984039
47.460000 1510.142603 1512.842267 1516.007828 1515.747011 1518.670257 1520.920947
47.560000 1511.998631 1515.617256 1518.137736 1518.153517 1520.798931 1523.541999
47.660000 1514.347864 1518.122455 1521.188351 1520.878294 1523.240789 1525.348009
47.760000 1518.426009 1521.176168 1523.846876 1523.687767 1526.003390 1528.202587
47.860000 1523.216175 1525.537885 1527.669438 1527.814917 1530.053400 1531.715379
47.960000 1526.910323 1529.328532 1531.172947 1531.365258 1533.703239 1536.420635
48.060000 1529.881532 1532.106612 1534.512433 1534.366634 1536.522569 1538.627135
48.160000 1532.636152 1534.685527 1537.411904 1537.099397 1538.798078 1541.155242
48.260000 1535.845470 1539.026438 1540.305825 1540.385253 1541.984606 1544.465229
48.360000 1540.623566 1542.937761 1545.433489 1545.407121 1547.793683 1551.393082
48.460000 1543.291844 1546.280697 1548.184752 1548.328427 1550.612640 1553.451032
48.560000 1546.866378 1548.626087 1550.678942 1550.760633 1552.895431 1555.134066
48.660000 1549.607641 1550.694609 1553.029995 1553.115934 1555.427257 1556.845188
48.760000 1551.364149 1552.429297 1554.581213 1554.874342 1557.330271 1558.820742
48.860000 1552.637018 1554.213845 1556.794174 1556.847267 1559.052474 1561.113652
48.960000 1554.046301 1556.040544 1558.467707 1558.632880 1560.990671 1563.366169
49.060000 1556.009400 1557.718132 1560.164151 1560.362615 1563.182506 1565.013738
49.160000 1557.458036 1559.995303 1562.080659 1562.184961 1564.774461 1566.691686
49.260000 1559.669833 1562.186250 1564.229487 1564.256755 1567.106740 1569.149860
49.360000 1561.053905 1564.050198 1566.014281 1566.219565 1569.075940 1572.113498
49.460000 1563.320758 1565.898657 1568.427931 1568.644675 1572.127558 1574.995027
49.560000 1565.010344 1567.525743 1571.054813 1571.210328 1574.185471 1578.479629
49.660000 1567.559697 1569.732530 1572.965759 1573.539722 1577.583929 1581.587649
49.760000 1569.230283 1573.165876 1576.702479 1576.656649 1579.814382 1582.706715
49.860000 1571.937341 1576.188077 1580.013341 1579.486452 1582.608927 1585.822166
49.960000 1574.292554 1579.759318 1582.877482 1582.624649 1585.230161 1588.136482
50.060000 1577.067338 1582.395387 1585.355892 1585.148678 1587.669038 1592.351359
50.160000 1579.606813 1584.504471 1587.967558 1588.253054 1592.000590 1595.046174
50.260000 1583.862017 1586.830139 1590.784483 1590.924109 1595.044537 1598.104912
50.360000 1586.513445 1589.635491 1594.041628 1593.789656 1597.377314 1603.062064
50.460000 1588.719633 1592.232802 1596.674231 1596.381416 1600.315198 1605.552542
50.560000 1591.267541 1594.720986 1599.005103 1598.762558 1602.002136 1607.425619
50.660000 1594.127750 1598.142256 1601.079649 1601.069078 1604.114142 1608.285731
50.760000 1598.186391 1600.429210 1603.180055 1603.465202 1606.570130 1610.024202
50.860000 1600.386588 1602.793892 1605.438140 1605.741896 1608.267429 1612.145759
50.960000 1602.890451 1605.108472 1607.868762 1608.221622 1611.197419 1615.305200
51.060000 1605.804129 1607.897768 1610.826667 1610.990387 1614.053325 1617.317328
51.160000 1608.210539 1610.117327 1613.140711 1613.285627 1616.210752 1619.215521
51.260000 1610.057919 1612.460784 1615.814816 1615.702570 1618.484810 1620.721922
51.360000 1611.566761 1614.584354 1618.172043 1617.962778 1621.211830 1622.705354
51.460000 1613.239951 1617.370902 1620.579763 1620.462990 1623.283689 1626.551516
51.560000 1615.579044 1619.679872 1623.201202 1622.982276 1626.010429 1628.605169
51.660000 1617.733262 1622.686380 1625.954860 1625.569134 1628.386845 1632.075078
51.760000 1622.615693 1625.234888 1628.607804 1628.256240 1630.681749 1633.813211
51.860000 1624.385438 1627.954124 1630.665362 1630.632978 1633.055980 1636.360135
51.960000 1625.624267 1630.282985 1633.136321 1633.200219 1636.212566 1639.819570
52.060000 1627.710449 1632.919917 1635.460988 1635.927327 1639.390452 1644.003037
52.160000 1629.166239 1634.652030 1638.586007 1638.582884 1643.150835 1648.644501
52.260000 1631.496700 1637.336888 1640.909109 1641.078019 1645.966750 1650.715158
52.360000 1633.117548 1639.532146 1642.686847 1643.291285 1648.162350 1652.420926
52.460000 1636.129566 1641.453912 1644.469356 1645.490666 1650.565994 1654.897489
52.560000 1640.234937 1643.414645 1646.932509 1647.655064 1651.926915 1657.191929
52.660000 1642.510808 1645.874515 1649.269240 1649.797066 1654.532977 1659.172438
52.760000 1644.071829 1647.858941 1651.470994 1652.172003 1656.834383 1660.905052
52.870000 1646.780079 1649.880587 1653.957262 1654.617990 1659.717319 1663.918763
53.008000 1649.593351 1652.476664 1657.254181 1657.412387 1662.555743 1667.138294
53.146000 1650.833050 1655.351075 1660.138100 1660.150474 1665.185871 1669.099648
53.284000 1652.835148 1657.431331 1662.950762 1662.916962 1667.565898 1672.302805
53.422000 1656.161453 1661.533520 1665.885589 1665.683175 1669.879334 1675.452537
53.560000 1659.031102 1663.804686 1667.868319 1668.387959 1673.193090 1677.211925
53.660000 1661.202638 1665.803126 1670.159864 1670.347505 1676.024914 1678.746513
53.760000 1662.811654 1667.275280 1672.084061 1672.284026 1677.718621 1680.681971
53.860000 1664.544768 1668.795043 1674.040703 1674.403346 1680.003935 1683.235531
53.960000 1667.135005 1670.782632 1676.789719 1676.402869 1681.899668 1684.707570
54.060000 1669.493287 1672.732071 1679.085832 1678.686825 1684.205923 1687.647200
54.160000 1672.277481 1674.949065 1680.739438 1680.791722 1685.959692 1689.566657
54.260000 1674.244109 1677.137209 1683.591544 1682.989155 1687.797910 1690.922250
54.370000 1676.765508 1680.744665 1685.843355 1685.459461 1690.206157 1693.063963
54.460000 1678.794629 1683.122178 1688.020137 1687.641706 1691.856946 1694.232897
54.560000 1681.765228 1686.215041 1690.285942 1689.993248 1693.641602 1697.062387
54.660000 1685.221983 1688.781150 1692.515127 1692.294899 1695.708794 1699.489421
54.710000 1686.967869 1690.164468 1693.269302 1693.467675 1696.748616 1700.725443
54.740000 1687.785838 1690.806862 1693.903024 1694.211111 1697.289471 1702.376125
54.810000 1690.123096 1692.985089 1696.254041 1696.052871 1698.643650 1703.495440
54.860000 1690.698608 1694.239762 1697.767547 1697.466309 1699.906355 1704.591114
54.910000 1691.536770 1695.849702 1699.281363 1699.043360 1702.149764 1707.423362
55.010000 1693.842826 1699.037611 1702.584568 1702.489966 1705.980212 1710.645296
55.110000 1697.637166 1701.364226 1706.257297 1706.165299 1710.704337 1715.764101
55.210000 1701.047981 1704.043909 1709.968898 1709.881888 1715.070145 1719.888498
55.350000 1703.721925 1707.925131 1713.808863 1714.071667 1719.580333 1724.791871
55.490000 1707.415616 1713.035966 1718.356343 1718.001915 1722.505060 1727.958523
55.630000 1711.619087 1716.169519 1722.334592 1721.914738 1726.804403 1733.059997
55.770000 1715.836672 1721.124947 1726.866423 1726.039501 1730.664769 1737.607324
55.910000 1718.963034 1724.578957 1730.809363 1730.358726 1734.692965 1740.432789
56.010000 1721.590026 1728.035130 1733.747449 1733.421240 1739.202467 1742.346959
56.110000 1724.098397 1731.914410 1736.608602 1736.521005 1741.813851 1744.785431
56.210000 1729.303995 1734.633803 1739.355507 1739.574225 1745.055532 1747.374490
56.310000 1734.152413 1738.595412 1742.853196 1743.060530 1747.739145 1751.437481
56.410000 1739.264958 1742.793215 1746.733055 1746.831195 1750.928263 1756.027844
56.510000 1742.897164 1746.839256 1750.464538 1750.526053 1754.685506 1758.799905
56.610000 1747.471482 1750.941806 1755.057690 1754.689265 1758.329614 1762.178434
56.710000 1750.307899 1754.684534 1759.372038 1759.188455 1763.921983 1769.164855
56.810000 1752.518648 1759.372922 1763.822747 1763.877707 1769.005720 1773.794252
56.910000 1754.689537 1763.414091 1768.062462 1767.681494 1773.157447 1776.505560
57.030000 1757.992594 1767.257872 1772.845763 1771.679817 1776.400209 1779.333898
57.110000 1759.913075 1769.938720 1775.271958 1774.042609 1778.380317 1780.863297
57.210000 1763.130464 1772.987841 1777.470486 1776.675770 1780.607693 1784.224093
57.310000 1770.631283 1776.260938 1779.804874 1779.536925 1782.826630 1785.558801
57.410000 1773.729832 1778.683621 1782.190582 1782.042727 1785.494424 1788.180624
57.510000 1777.676803 1781.569001 1784.492910 1784.570452 1787.377483 1791.160319
57.610000 1780.083649 1784.357084 1786.933773 1787.085446 1789.658639 1793.851152
57.710000 1784.532353 1787.189579 1789.875586 1789.865252 1792.228294 1798.136060
57.810000 1788.620394 1790.385829 1792.690368 1793.178120 1795.622507 1800.531042
57.910000 1791.896536 1793.956290 1796.285572 1796.451331 1798.472871 1802.607408
58.010000 1794.945274 1797.090408 1799.770063 1800.222395 1803.006668 1806.559787
58.110000 1797.833465 1799.995543 1804.290407 1804.599265 1809.823394 1815.012115
58.210000 1800.323235 1802.761836 1807.844560 1808.357528 1814.787547 1819.298730
58.310000 1802.502017 1805.119556 1811.818759 1812.099527 1818.214339 1821.897189
58.410000 1805.798293 1810.148770 1815.708365 1815.683925 1821.009212 1824.527986
58.530000 1809.380066 1814.963774 1820.376689 1819.794071 1824.169083 1827.975424
58.610000 1812.586348 1817.640749 1823.146134 1822.370337 1826.414381 1830.036039
58.710000 1814.795913 1821.265734 1826.329723 1825.669277 1829.559265 1834.699044
58.810000 1818.930893 1823.866997 1829.418024 1828.925930 1832.976935 1837.051112
58.910000 1821.963019 1828.090994 1832.898119 1832.164892 1836.166972 1840.782150
59.010000 1825.117428 1831.984156 1836.319339 1836.160561 1839.659133 1844.047517
59.110000 1830.236177 1836.815169 1840.486407 1840.474994 1844.190679 1848.789901
59.210000 1835.190671 1841.191188 1844.958903 1844.889603 1849.445293 1852.292769
59.310000 1840.550384 1845.239491 1849.410373 1849.046175 1853.506614 1855.782009
59.410000 1844.794403 1849.743466 1853.488993 1853.377260 1857.714116 1863.064950
59.510000 1849.340377 1854.759495 1859.226512 1858.888176 1863.439178 1866.080096
59.610000 1855.564241 1861.426405 1864.365807 1864.505494 1868.357956 1872.294907
59.710000 1862.371541 1866.375883 1870.280904 1870.233879 1874.616088 1877.911389
59.810000 1869.542161 1873.872600 1878.640293 1879.250767 1884.206743 1891.424567
59.910000 1876.525423 1880.207659 1886.980602 1887.741150 1895.356051 1900.949788
60.010000 1882.300181 1888.498093 1896.657352 1895.526038 1900.715803 1907.430652
60.110000 1893.299429 1899.442126 1903.247555 1902.760650 1906.685260 1910.537773
60.210000 1897.980487 1904.558936 1908.167053 1907.770477 1910.887483 1915.742328
60.310000 1903.158276 1908.906792 1912.109795 1912.037727 1915.327477 1919.072095
60.410000 1909.085649 1913.292460 1916.362105 1916.271123 1919.010332 1923.166534
60.510000 1913.792855 1916.841348 1920.240195 1920.127931 1923.090332 1927.283437
60.610000 1918.124173 1920.803073 1923.592759 1923.942450 1927.493538 1931.392760
60.710000 1922.482045 1924.724297 1927.999954 1928.194976 1931.470023 1936.672208
60.810000 1927.064701 1929.643388 1933.603660 1933.915716 1938.844033 1942.246554
60.910000 1932.405254 1935.411344 1940.153488 1939.900252 1943.523213 1949.816277
61.010000 1937.673372 1943.155686 1946.472519 1946.348332 1949.568689 1953.772204
61.110000 1943.425202 1947.816618 1951.068549 1950.972154 1954.451904 1957.435891
61.210000 1946.591363 1951.225023 1955.186766 1954.809849 1958.520134 1961.216922
61.310000 1949.851051 1955.203785 1958.963259 1958.829849 1962.478514 1965.140589
61.410000 1954.255641 1958.529404 1962.047134 1962.296547 1966.530939 1969.431583
61.530000 1960.138132 1964.277629 1967.381611 1967.348256 1970.444814 1974.680062
61.610000 1963.270141 1967.653277 1970.599837 1971.006605 1973.883007 1978.933857
61.710000 1969.930425 1972.896105 1976.250581 1976.318469 1979.620146 1984.508639
61.810000 1975.995849 1977.665328 1980.910128 1981.496125 1985.108359 1991.036785
61.910000 1980.974553 1982.835881 1986.880725 1986.700629 1991.160297 1993.679590
62.010000 1985.056805 1988.666868 1992.917251 1992.623072 1996.603609 1998.456889
62.110000 1988.516256 1992.916518 1997.409146 1996.677341 2000.163755 2002.731896
62.210000 1994.151610 1997.084695 2000.684289 2000.377041 2003.031303 2005.581537
62.310000 1997.001464 2000.254464 2003.334634 2003.240629 2006.379732 2008.885905
62.410000 1999.898136 2003.106779 2005.918573 2005.993677 2008.922457 2011.144699
62.510000 2003.116663 2005.610159 2008.934262 2008.850833 2011.451873 2013.749610
62.610000 2007.258388 2008.444230 2011.925665 2011.722534 2014.460773 2016.426794
62.630000 2007.891392 2009.258524 2012.764536 2012.415804 2015.109519 2017.436317
62.710000 2009.738304 2011.809839 2014.654606 2014.720303 2017.272977 2019.677068
62.730000 2010.646616 2012.663797 2015.601717 2015.378550 2017.690792 2020.393649
62.830000 2012.236260 2015.988906 2018.736716 2018.574525 2021.132161 2023.421267
62.930000 2016.248349 2018.894315 2021.252223 2021.310549 2023.714583 2025.290642
63.040000 2019.638473 2021.865707 2024.100768 2024.129999 2026.318917 2029.508091
63.120000 2022.115255 2023.607667 2025.841741 2026.046595 2028.158414 2031.123823
63.130000 2022.343850 2023.934620 2026.101534 2026.310572 2028.374056 2031.328862
63.220000 2024.442730 2026.807858 2028.681658 2028.724900 2031.025348 2033.567075
63.230000 2024.794640 2027.096035 2028.970764 2029.040748 2031.316244 2033.763103
63.320000 2027.173482 2029.435079 2031.910982 2032.157503 2034.990699 2038.518924
63.330000 2027.505539 2029.780100 2032.148313 2032.471659 2035.340600 2038.832496
63.420000 2030.585875 2033.077764 2035.302272 2035.749930 2038.836673 2042.302738
63.430000 2030.916561 2033.315371 2035.755674 2036.083621 2039.170586 2043.173946
63.520000 2033.914731 2035.821457 2038.767348 2038.967016 2041.752168 2045.832742
63.530000 2034.059642 2036.204866 2039.010648 2039.291049 2042.150772 2046.024945
63.620000 2036.695160 2038.805471 2041.852174 2042.261749 2046.063892 2048.740848
63.630000 2037.057173 2039.086356 2042.300760 2042.668488 2046.380132 2049.567094
63.720000 2039.538136 2042.142105 2045.692407 2045.991691 2049.843528 2053.270506
63.730000 2039.673986 2042.546592 2046.140177 2046.319088 2050.129644 2053.368511
63.820000 2042.934169 2045.956570 2049.056078 2049.325036 2052.951439 2055.491364
63.840000 2044.499221 2046.740721 2050.249649 2050.175804 2053.578901 2056.256553
63.920000 2047.930517 2049.828603 2053.253006 2053.051177 2055.976159 2058.321535
63.930000 2048.265915 2050.392945 2053.731209 2053.437022 2056.324281 2058.806865
64.020000 2050.798427 2053.718047 2057.095028 2056.774153 2059.744410 2062.125592
64.120000 2052.905821 2058.532969 2060.790722 2060.902014 2063.891622 2067.070183
64.130000 2053.189701 2058.802789 2061.111095 2061.240815 2064.207224 2067.530692
64.220000 2057.341793 2061.313486 2064.107026 2064.094511 2066.654244 2070.286927
64.320000 2060.659631 2063.719516 2066.744475 2066.730018 2069.615146 2072.594644
64.420000 2065.092555 2066.858496 2069.292048 2069.420039 2072.168672 2074.664638
64.520000 2067.166108 2069.057039 2071.676209 2071.851474 2074.580879 2076.967414
64.620000 2069.690658 2071.304888 2074.119448 2074.400973 2077.257670 2080.085237
64.720000 2071.862251 2074.509275 2076.865834 2077.271320 2080.279654 2084.434050
64.820000 2074.729686 2077.756157 2080.284771 2080.667944 2083.874191 2087.508952
64.920000 2079.264229 2081.714803 2084.775525 2085.331782 2088.800944 2094.313893
65.020000 2082.819349 2086.088192 2089.364877 2089.842101 2093.769180 2101.414804
65.140000 2085.999049 2090.525737 2094.821535 2094.824503 2099.457392 2104.340904
65.220000 2087.804344 2092.638217 2097.679218 2097.533614 2101.689050 2106.211123
65.320000 2090.958251 2095.553347 2100.340986 2100.195356 2104.622111 2110.031621
65.420000 2093.760027 2098.462310 2103.459236 2103.079754 2107.240510 2112.597662
65.520000 2097.330373 2101.306900 2106.302650 2106.036532 2110.388360 2114.439190
65.620000 2101.644011 2104.888575 2109.327156 2108.994792 2113.183593 2117.352831
65.720000 2103.204044 2108.116957 2112.045840 2111.992537 2115.566847 2121.462770
65.820000 2105.613242 2110.290248 2114.610937 2114.539911 2118.266384 2123.430039
65.920000 2108.630706 2113.254794 2117.702887 2117.629077 2120.991837 2126.103609
66.020000 2111.940925 2116.687203 2120.396037 2120.643778 2124.359488 2129.396960
66.120000 2114.898811 2120.203931 2124.078037 2123.797389 2127.335410 2131.415425
66.220000 2120.464727 2123.702236 2127.005006 2127.138161 2130.976893 2133.549290
66.320000 2125.872123 2127.824207 2131.484244 2131.157795 2134.345645 2136.251961
66.420000 2129.274854 2131.836447 2134.713725 2134.697429 2137.545255 2139.470131
66.520000 2131.929212 2135.771287 2138.324195 2138.164219 2140.681401 2142.838038
66.620000 2136.006700 2140.066483 2142.322969 2142.277877 2144.202070 2147.198120
66.720000 2142.237603 2144.552358 2147.118009 2147.292939 2149.043448 2155.595591
66.820000 2146.585127 2148.881350 2151.039733 2151.479464 2154.073060 2159.413531
66.920000 2150.041411 2152.676275 2155.412455 2155.527132 2158.288049 2161.197436
