depth(m) lower_95(kyr) lower_68(kyr) median(kyr) mean(kyr) upper_68(kyr) upper_95(kyr)
27.100000 698.669146 699.601754 700.614420 700.617422 701.626987 702.514609
27.200000 700.952137 702.269810 703.789896 704.012569 705.934718 707.845884
27.300000 703.383215 704.745401 706.905997 706.873164 708.835729 710.230400
27.400000 705.611179 707.436720 709.421824 709.185017 710.835316 712.099761
27.500000 708.243537 709.980004 711.599744 711.414172 712.786737 714.000390
27.600000 710.855825 712.294022 713.695845 713.671441 715.043130 716.453283
27.700000 712.966270 714.332255 715.684298 715.707659 717.149829 718.637786
27.800000 714.688914 716.106140 717.454898 717.505173 718.994716 720.505134
27.900000 716.292320 717.834530 719.252172 719.246841 720.699366 722.401927
28.000000 718.094050 719.649172 721.079958 721.117491 722.540460 724.204677
28.100000 720.255612 721.758679 723.158774 723.298758 724.759103 727.445066
28.140000 721.099742 722.744913 724.121581 724.304416 725.711904 728.752541
28.200000 722.539320 724.086058 725.520106 725.807250 727.185463 731.893709
28.240000 723.567826 724.909132 726.397285 726.800368 728.347160 733.307628
28.300000 724.938666 726.225227 727.602907 728.295074 730.458120 735.332177
28.340000 725.919525 727.126002 728.459712 729.315403 732.171583 736.592712
28.400000 727.086369 728.354204 729.832070 730.751765 734.358112 738.016736
28.410000 727.267323 728.570355 730.054936 730.984686 734.629517 738.225569
28.530000 729.478148 730.985983 732.931657 733.618277 736.834994 739.977804
28.650000 731.489317 733.233267 735.980482 736.227559 739.444681 741.553732
28.770000 733.864936 736.001945 739.076971 738.927258 741.667692 743.519659
28.850000 735.761468 738.056109 740.993457 740.722906 743.160150 745.000266
28.950000 738.263808 740.798574 743.174134 742.941239 745.029385 746.726921
29.050000 740.237046 743.041879 744.958134 744.869298 746.763235 748.343115
29.120000 741.700244 744.244074 746.312841 746.147485 747.993052 749.809688
29.250000 743.817971 746.269086 748.307711 748.172710 750.129035 752.098810
29.350000 745.216775 747.929597 749.808187 749.798685 751.690499 753.742956
29.460000 747.227708 749.684386 751.701380 751.617819 753.660430 755.712470
29.550000 748.893234 751.199366 753.267161 753.214339 755.227314 757.538407
29.650000 750.589029 752.963840 755.103003 755.122400 757.307264 759.820202
29.750000 752.335910 754.738428 757.010768 757.154940 759.431112 762.783012
29.850000 754.266314 756.597777 759.230190 759.367260 762.079547 765.845932
29.940000 756.215425 758.689460 761.552996 761.850572 765.070990 769.030924
30.050000 759.867162 762.635964 766.042051 766.246248 770.080445 772.833967
30.160000 764.109349 767.710504 771.471238 771.270599 774.728958 777.323126
30.240000 767.719426 771.473863 774.884240 774.545341 777.445108 780.018298
30.310000 770.337816 774.286382 777.208710 776.938892 779.741320 781.835393
30.430000 774.995364 777.963424 780.503703 780.329923 782.799520 784.653585
30.550000 778.503276 781.295003 783.720139 783.463994 785.550610 787.080695
30.650000 781.681296 784.454961 786.549411 786.293919 788.120401 789.482318
30.740000 784.950615 787.464891 789.170854 789.080143 790.782543 792.453375
30.850000 789.622574 791.318748 792.892100 792.964113 794.649328 796.635332
30.950000 791.857369 793.517379 795.197707 795.196873 796.870866 798.855377
31.050000 793.727090 795.347214 797.039690 797.073681 798.841215 800.536163
31.150000 795.548096 797.130672 798.734468 798.826398 800.658564 802.463038
31.250000 797.373563 798.730296 800.411915 800.548636 802.362765 804.214604
31.350000 798.996593 800.470356 802.251064 802.357395 804.311859 806.098474
31.450000 800.705607 802.285429 804.283491 804.323417 806.318202 808.394161
31.520000 802.071732 803.834003 806.039545 806.006339 808.143552 810.150063
31.620000 804.707122 806.519679 809.027319 808.966869 811.181123 813.501240
31.740000 808.484230 810.997699 813.416020 813.419919 815.846194 818.653629
31.840000 811.677605 813.879533 816.273747 816.395633 818.733999 821.937428
31.930000 813.477156 816.178819 818.676555 818.760476 821.188546 824.761015
32.040000 815.977467 818.412204 821.131463 821.249224 823.752384 828.202274
32.150000 818.013795 820.510802 823.519895 823.662310 826.721346 830.542102
32.250000 819.972828 822.504237 825.528442 825.771482 829.118088 832.886159
32.350000 822.015271 824.565690 827.607672 827.894109 831.434950 835.012285
32.450000 823.955715 826.714108 829.808127 830.145364 833.892915 837.310222
32.550000 825.642777 828.949949 832.115346 832.370153 836.201557 839.254995
32.650000 827.928479 831.152624 834.681897 834.636697 838.242149 841.394729
32.750000 830.329479 833.634980 837.161278 837.045395 840.511488 843.451150
32.850000 832.453203 836.321034 839.762432 839.552412 842.712789 845.518598
32.950000 835.384328 838.928883 842.249918 842.041962 845.111682 847.858852
33.050000 838.134450 841.471603 844.474395 844.410522 847.333588 850.097809
33.150000 840.544105 843.873517 846.767028 846.675555 849.531787 852.125569
33.250000 842.536262 846.022796 848.941300 848.783002 851.621428 854.093638
33.340000 844.389959 847.823031 850.872815 850.678346 853.573295 855.872127
33.430000 846.614847 849.855258 852.919324 852.682101 855.392055 857.576441
33.550000 849.568329 852.964143 855.785266 855.535949 858.226233 859.811483
33.650000 852.216100 855.664493 858.196382 857.939703 860.291880 861.686676
33.750000 855.108138 858.155611 860.677912 860.370700 862.463417 863.829009
33.850000 858.062309 860.848610 862.964067 862.639548 864.295401 865.442883
33.950000 862.936651 864.513764 865.593292 865.526343 866.596821 867.622868
34.050000 865.948792 866.921696 867.873011 867.960498 869.059896 870.284323
34.150000 867.802516 868.790193 869.755124 869.915872 871.133009 872.512382
34.250000 869.406125 870.418473 871.620333 871.710804 872.976517 874.411533
34.350000 871.019729 871.968810 873.246787 873.377233 874.759585 876.239879
34.450000 872.392652 873.637337 875.008273 875.073788 876.496670 878.251094
34.550000 873.979456 875.258466 876.853130 876.929003 878.500365 880.625985
34.670000 876.031022 877.421966 879.212937 879.360190 881.378995 883.872518
34.700000 876.562163 878.082411 879.895979 880.089489 882.212409 884.713678
34.750000 877.478585 879.120952 881.075762 881.287653 883.529431 886.161646
34.800000 878.259570 880.298653 882.407232 882.599814 884.966190 887.378680
34.850000 879.066015 881.498833 883.740778 883.898271 886.433328 888.741017
34.900000 880.190381 882.725329 885.320329 885.334887 887.994792 890.206410
34.930000 880.992130 883.699149 886.160358 886.184664 888.832242 890.891290
35.030000 883.468991 886.545501 889.196009 888.975254 891.399160 893.415599
35.050000 883.816905 887.096223 889.829900 889.542013 892.008750 893.903727
35.100000 885.453443 888.825715 891.322543 891.035510 893.289924 894.944737
35.150000 887.397258 890.495875 892.863946 892.610474 894.811531 896.273613
35.200000 889.245668 892.386133 894.710819 894.429429 896.498613 898.167817
35.250000 891.499668 894.336099 896.522325 896.306426 898.310653 899.756820
35.300000 893.783844 896.381798 898.394889 898.190103 900.024032 901.648726
35.350000 896.072811 898.698509 900.404775 900.253258 901.773893 903.247932
35.360000 896.386250 899.002967 900.715728 900.539700 902.053501 903.542167
35.450000 899.101120 901.359227 902.849455 902.902003 904.475896 906.737745
35.500000 900.556053 902.503314 904.034716 904.155198 905.820746 908.086257
35.550000 902.180571 903.605872 905.295398 905.416868 907.276488 909.621353
35.600000 903.411217 904.797422 906.409402 906.663920 908.605288 911.352970
35.650000 904.352304 905.912731 907.661407 907.913721 910.033981 912.662484
35.730000 906.292880 907.716634 909.683630 909.880822 912.222925 914.418160
35.750000 906.759369 908.193090 910.223592 910.429590 912.804435 914.924679
35.800000 908.113555 909.805918 912.069185 912.074101 914.391743 916.025146
35.850000 909.277610 911.361025 913.972074 913.773457 916.005527 917.680161
35.880000 910.332858 912.487703 914.910880 914.682981 916.669180 918.334688
36.000000 915.100690 916.712064 918.253424 918.166654 919.494843 921.035088
36.050000 916.433648 917.979314 919.414017 919.380986 920.711321 922.133408
36.100000 917.691704 919.098463 920.543626 920.504597 921.848896 923.152690
36.150000 918.878182 920.242927 921.654450 921.622862 922.906937 924.351188
36.200000 919.901598 921.372952 922.753822 922.734772 924.060446 925.453105
36.250000 920.869461 922.575364 923.920167 923.899470 925.272804 926.837544
36.300000 922.148816 923.607132 925.109856 925.091354 926.580579 928.230770
36.350000 923.652623 925.006826 926.362963 926.510984 928.043586 930.188450
36.410000 925.206950 926.641521 928.208995 928.428584 930.368484 932.545135
36.430000 925.650929 927.175860 928.834053 929.013336 931.047113 933.176926
36.500000 927.157223 928.703638 930.735248 930.882860 933.106298 934.871780
36.550000 928.167834 929.929373 932.259285 932.240112 934.570970 936.352201
36.600000 929.234338 931.285002 933.721412 933.574924 935.814042 937.411575
36.650000 930.467498 932.600869 935.183801 934.905570 937.032351 938.575225
36.700000 931.786222 934.141954 936.575365 936.315077 938.281302 939.874347
36.750000 933.013118 935.514843 937.769979 937.629646 939.590252 941.385207
36.800000 934.658919 936.981375 939.082365 938.999011 941.015770 942.669354
36.850000 935.904454 938.260806 940.344979 940.224558 942.195742 943.826407
36.920000 938.175609 940.254023 942.191850 942.055428 943.933193 945.422698
37.000000 940.377314 942.264872 944.112178 944.050928 945.871556 947.216048
37.050000 941.734514 943.639354 945.489495 945.319312 947.016794 948.162295
37.100000 943.342634 945.130833 946.834715 946.706416 948.199539 949.254629
37.150000 945.236181 946.623370 948.125827 948.005687 949.286290 950.350504
37.230000 947.540399 948.804110 949.903017 949.890456 950.982168 951.978519
37.250000 948.107815 949.350278 950.444547 950.401329 951.439435 952.518428
37.300000 949.347488 950.545025 951.589830 951.560667 952.621936 953.490489
37.360000 950.515405 951.575708 952.705187 952.654251 953.707679 954.598249
37.410000 951.349242 952.486597 953.603715 953.566964 954.638700 955.425804
37.450000 952.144349 953.237694 954.336917 954.306540 955.358376 956.139970
37.500000 952.941441 954.180181 955.242637 955.158142 956.150784 956.879904
37.550000 953.935658 955.146902 956.169000 956.053149 956.917763 957.633020
37.600000 955.199749 956.248537 957.090863 957.017449 957.792984 958.433218
37.650000 956.799843 957.534348 958.148952 958.136236 958.762436 959.411667
37.750000 959.140446 959.720517 960.398097 960.548389 961.374493 962.839084
37.850000 960.937750 961.657941 962.543694 962.704592 963.839538 965.339016
37.950000 962.574318 963.383645 964.413030 964.632761 965.914935 967.511180
38.020000 963.577176 964.585893 965.897754 966.122511 967.706330 970.031498
38.150000 965.633768 966.880418 968.637252 969.561152 971.820847 981.472127
38.250000 967.288295 968.715081 970.840717 972.360727 976.429453 984.596732
38.330000 968.789900 970.364239 973.220864 974.800280 980.427256 986.718112
38.430000 970.713469 972.811969 977.488065 978.196710 983.788726 988.727050
38.550000 972.940009 976.525688 982.857473 982.366129 987.090390 991.334181
38.650000 975.127964 980.393834 985.699996 985.251949 989.713828 993.489963
38.750000 978.001835 983.247163 988.095092 987.788108 992.196915 995.919918
38.860000 982.490580 986.521869 990.586553 990.594225 994.956312 998.549678
38.950000 985.490730 988.772908 992.745521 992.854407 997.052691 1000.605749
39.050000 988.043836 991.603227 995.572357 995.445925 999.147725 1002.314862
39.150000 990.893087 994.526987 998.342728 998.088917 1001.581339 1004.428929
39.250000 993.845401 997.593242 1001.255098 1000.990171 1004.266879 1007.557398
39.350000 996.646271 1000.784556 1003.933111 1003.776478 1006.822516 1009.827150
39.460000 1000.001841 1003.760267 1006.702359 1006.568263 1009.538366 1012.346582
39.570000 1003.563741 1006.667550 1009.347254 1009.296445 1011.835581 1014.691390
39.650000 1006.292962 1009.020969 1011.477733 1011.468614 1013.925129 1016.922781
39.750000 1009.261055 1011.831953 1014.338591 1014.494926 1017.108304 1020.446811
39.830000 1011.150690 1014.133352 1016.711339 1016.828064 1019.574409 1022.770400
39.920000 1013.231032 1016.337959 1019.223660 1019.179415 1022.262466 1024.802649
40.050000 1016.557614 1019.565937 1022.829103 1022.572759 1025.517388 1027.255304
40.150000 1019.135733 1022.403017 1025.510359 1025.134766 1027.757218 1029.263331
40.250000 1021.802444 1025.732591 1028.178028 1027.722013 1029.732174 1030.991555
40.350000 1025.826001 1028.868214 1030.528314 1030.274451 1031.754267 1032.905798
40.450000 1030.621728 1031.793433 1033.008081 1033.115453 1034.445371 1036.395188
40.550000 1032.604291 1033.800914 1035.186489 1035.373807 1036.947156 1039.479470
40.630000 1033.961898 1035.221556 1036.792609 1036.979364 1038.722336 1041.066253
40.750000 1035.895915 1037.188119 1039.067508 1039.288449 1041.387827 1043.722174
40.850000 1037.418420 1039.033639 1041.058193 1041.264331 1043.602169 1045.817955
40.950000 1039.274921 1040.892024 1043.120592 1043.468301 1046.190089 1048.705152
41.010000 1040.313755 1042.134130 1044.448788 1044.748621 1047.488635 1050.310312
41.150000 1042.517688 1044.609350 1047.533002 1047.596109 1050.519726 1053.470185
41.250000 1043.989145 1046.492209 1049.813470 1049.833405 1052.962896 1056.274454
41.330000 1045.644780 1048.573710 1051.954707 1051.878017 1055.231798 1058.070106
41.420000 1047.871572 1051.014010 1054.789137 1054.517343 1057.927902 1060.265854
41.550000 1051.470866 1056.082682 1059.539743 1059.074794 1062.033440 1063.751851
41.650000 1059.460745 1063.015638 1064.822121 1064.582523 1066.341240 1067.742757
41.750000 1064.559590 1065.999774 1067.491219 1067.453071 1068.846306 1070.531600
41.850000 1066.591236 1068.022764 1069.590813 1069.594335 1071.157823 1072.751647
41.950000 1068.276520 1069.866742 1071.626081 1071.562444 1073.276458 1074.785089
42.050000 1070.010159 1071.762485 1073.598252 1073.482127 1075.164686 1076.669077
42.150000 1072.025567 1073.996366 1075.508522 1075.425804 1076.862832 1078.342205
42.250000 1074.618905 1076.168300 1077.621499 1077.559314 1078.884135 1080.515922
42.350000 1077.110622 1078.241802 1079.710688 1079.748375 1081.281122 1082.885846
42.450000 1078.844622 1080.301020 1082.041892 1082.144963 1083.951928 1086.080884
42.520000 1080.499626 1081.749107 1083.793843 1083.900681 1085.804097 1088.316655
42.650000 1082.646132 1084.463785 1086.698942 1086.722529 1088.961935 1091.068749
42.750000 1084.521376 1086.402177 1088.746255 1088.812128 1091.135090 1093.216889
42.830000 1086.053705 1088.085813 1090.530169 1090.523828 1092.905102 1095.406201
42.920000 1087.771913 1089.816837 1092.094501 1092.265701 1094.653855 1097.010372
43.050000 1090.380208 1092.329515 1094.701292 1094.721042 1097.075986 1099.545395
43.150000 1092.473655 1094.379959 1096.664360 1096.739021 1099.077846 1100.949847
43.250000 1094.789420 1096.672319 1098.890587 1098.798644 1100.837851 1102.807868
43.350000 1097.067020 1099.117326 1101.313049 1101.230046 1103.300796 1105.183429
43.450000 1100.003510 1102.153146 1103.955201 1103.933784 1105.783459 1107.668265
43.550000 1103.284030 1104.896676 1106.606278 1106.581494 1108.300586 1109.994876
43.650000 1105.684064 1107.223786 1108.892345 1108.880279 1110.452347 1111.900852
43.750000 1107.712816 1109.639162 1111.369094 1111.326448 1113.027636 1114.588331
43.850000 1110.751386 1112.660496 1114.287763 1114.306712 1115.908909 1117.635405
43.950000 1113.460393 1115.120724 1116.693704 1116.666622 1118.207710 1119.758682
44.010000 1114.854034 1116.396133 1117.824146 1117.865873 1119.460942 1120.854265
44.150000 1117.147495 1118.879227 1120.226718 1120.195381 1121.634320 1122.878765
44.200000 1118.163040 1119.850388 1121.184591 1121.160798 1122.484662 1123.837878
44.250000 1119.604905 1120.860371 1122.137298 1122.126287 1123.440698 1124.853230
44.300000 1120.562993 1121.798917 1123.028219 1123.058141 1124.346227 1125.652850
44.330000 1121.230066 1122.424214 1123.648190 1123.658935 1124.886350 1126.239186
44.380000 1122.183145 1123.341245 1124.501619 1124.543153 1125.754823 1127.119805
44.420000 1122.908847 1124.020650 1125.176625 1125.229984 1126.449683 1127.813961
44.530000 1124.593877 1125.705730 1126.907156 1126.982913 1128.309550 1129.631370
44.550000 1125.029499 1126.048019 1127.290418 1127.364740 1128.732239 1130.092883
44.600000 1125.902300 1126.957703 1128.193216 1128.306006 1129.694714 1130.944325
44.650000 1126.760267 1127.862742 1129.262404 1129.322011 1130.830434 1132.093147
44.700000 1127.633632 1128.765441 1130.289346 1130.331545 1131.896427 1133.128678
44.750000 1128.475199 1129.684417 1131.264105 1131.276945 1132.810705 1134.100706
44.800000 1129.408442 1130.665546 1132.231768 1132.229302 1133.778353 1135.020857
44.850000 1130.323114 1131.719031 1133.384989 1133.261137 1134.756370 1135.872589
44.910000 1131.716962 1133.198602 1134.802774 1134.689825 1136.077241 1137.246057
44.950000 1132.625014 1134.340165 1135.830403 1135.768286 1137.197193 1138.538403
45.020000 1134.080343 1136.000015 1137.522915 1137.469142 1138.948516 1140.647611
45.050000 1134.846848 1136.666263 1138.231959 1138.187200 1139.737446 1141.322130
45.100000 1135.879450 1137.689061 1139.283484 1139.269536 1140.851992 1142.564696
45.150000 1136.664324 1138.647462 1140.240096 1140.270332 1141.918402 1143.803484
45.230000 1138.044160 1140.113851 1141.737458 1141.791117 1143.634667 1145.545204
45.300000 1139.205650 1141.278698 1143.061211 1143.134971 1145.153102 1146.866065
45.410000 1141.025326 1143.140050 1145.145408 1145.181588 1147.295911 1149.116536
45.510000 1142.765261 1144.801100 1146.990109 1147.037037 1149.242744 1151.063862
45.600000 1144.286484 1146.439636 1148.718825 1148.664341 1150.833069 1152.573025
45.700000 1146.155621 1148.307765 1150.445231 1150.466441 1152.759949 1154.348351
45.800000 1147.932405 1150.136022 1152.314371 1152.254434 1154.408202 1155.973157
45.910000 1150.160379 1152.303458 1154.435026 1154.293487 1156.221283 1157.741626
46.000000 1151.865679 1154.135135 1156.160823 1156.021699 1157.887432 1159.562745
46.100000 1154.127920 1156.103027 1158.107004 1158.011000 1159.821302 1161.474144
46.200000 1156.031909 1158.277955 1160.008343 1159.904391 1161.574133 1163.344466
46.300000 1158.200942 1160.093814 1161.838029 1161.751722 1163.406687 1164.993997
46.350000 1159.202069 1161.109620 1162.794659 1162.735925 1164.359435 1166.020617
46.410000 1160.378140 1162.356397 1164.026116 1163.986835 1165.565636 1167.243287
46.450000 1161.334755 1163.281107 1164.879700 1164.832460 1166.518279 1168.139659
46.510000 1162.372682 1164.425180 1166.086988 1166.057795 1167.632003 1169.498141
46.550000 1163.361873 1165.329567 1166.911847 1166.907044 1168.600279 1170.235398
46.600000 1164.424236 1166.416975 1168.012369 1168.004953 1169.681967 1171.716579
46.650000 1165.487674 1167.488534 1169.100326 1169.119586 1170.809634 1172.861271
46.730000 1167.084185 1169.068452 1170.873860 1170.953067 1172.776415 1175.453579
46.750000 1167.527287 1169.479579 1171.281896 1171.418286 1173.270525 1175.880771
46.800000 1168.805741 1170.627354 1172.290584 1172.499304 1174.505054 1177.292602
46.870000 1170.377494 1171.936362 1173.595433 1173.947365 1176.266200 1178.966432
46.910000 1170.998391 1172.655656 1174.374595 1174.762523 1177.099921 1179.919522
46.950000 1171.818840 1173.421837 1175.247187 1175.620750 1178.085954 1180.930231
47.000000 1172.640082 1174.328666 1176.210846 1176.621079 1179.205624 1181.917465
47.030000 1173.242454 1174.897032 1176.837139 1177.238408 1179.894815 1182.485382
47.100000 1174.500404 1176.184850 1178.302298 1178.583827 1181.346522 1183.639389
47.150000 1175.404098 1177.159202 1179.290597 1179.570026 1182.283819 1184.491067
47.250000 1177.042065 1178.961730 1181.350781 1181.450615 1184.104886 1186.117178
47.350000 1179.000462 1181.005546 1183.291459 1183.357408 1185.919635 1187.615790
