depth(m) lower_95(kyr) lower_68(kyr) median(kyr) mean(kyr) upper_68(kyr) upper_95(kyr)
26.000000 709.661264 710.735261 711.729782 711.695307 712.664696 713.592972
26.120000 711.964478 713.151574 714.309609 714.407737 715.669628 717.566351
26.240000 714.226270 715.495898 716.797905 716.993078 718.521195 720.547697
26.330000 716.049589 717.298273 718.866538 719.050634 720.844754 722.999465
26.390000 717.184553 718.666158 720.492883 720.599410 722.507554 724.726894
26.440000 718.155693 719.860030 721.926090 722.038952 724.131466 726.513419
26.490000 719.543922 721.344574 723.684494 723.698414 725.993337 728.280154
26.570000 721.009680 723.194531 725.907506 726.011588 728.695690 731.743921
26.710000 723.899501 726.146447 729.398651 729.571479 733.084686 736.501912
26.830000 725.971095 728.924902 732.627038 732.638997 736.376088 739.354214
26.950000 728.524448 731.948346 735.796199 735.620442 739.079128 741.761090
27.070000 731.217106 735.432191 738.809680 738.547202 741.765778 744.279741
27.175000 734.255432 738.095599 741.113922 740.954123 743.928276 746.446510
27.280000 737.197235 740.643511 743.232759 743.250076 746.022791 748.641578
27.370000 740.650811 742.902772 745.196952 745.236304 747.822355 750.202979
27.440000 742.345570 744.386956 746.648096 746.720244 749.127799 751.501845
27.490000 743.545752 745.443814 747.679442 747.777482 750.189152 752.411086
27.560000 744.946617 746.943473 749.082543 749.192430 751.585626 753.702100
27.645000 746.529372 748.519465 750.713823 750.859660 753.145127 755.394290
27.730000 748.084917 750.137357 752.399123 752.502574 754.849191 757.251721
27.850000 750.448931 752.600438 754.889592 754.889071 757.215942 759.392735
27.980000 753.278247 755.269030 757.620284 757.669037 760.079366 762.643423
28.090000 755.576678 757.849813 760.333047 760.394064 763.077792 765.409746
28.190000 758.250291 760.375924 762.960945 763.029164 765.861582 768.489632
28.290000 760.992148 763.051722 765.780815 765.921309 768.711500 771.466972
28.390000 763.498092 766.072803 768.959248 768.987126 771.868855 774.912903
28.480000 766.441744 768.810197 771.822883 771.868998 774.867482 777.875802
28.580000 769.114965 772.239161 775.478160 775.515604 778.937566 781.817718
28.680000 772.348717 775.842004 779.064548 779.057633 782.584832 784.694939
28.780000 775.590709 779.102871 782.641222 782.239608 785.172906 786.977827
28.890000 779.413155 783.670322 786.204722 785.711835 787.772333 789.117143
28.990000 783.990319 787.180418 788.630169 788.440864 790.009340 791.226649
29.080000 786.762510 788.888929 790.385113 790.273737 791.816996 793.270790
29.175000 788.632820 790.518837 792.115054 792.061452 793.672680 795.207994
29.270000 790.853342 792.243721 793.846507 793.887178 795.500888 797.311840
29.370000 793.185037 794.458077 796.035327 796.124963 797.753093 799.739464
29.480000 795.246309 796.653886 798.261899 798.369329 800.097153 802.212952
29.590000 797.159703 798.652345 800.388395 800.512596 802.403022 804.482174
29.690000 799.004892 800.735495 802.477290 802.570131 804.496428 806.654870
29.780000 800.657696 802.569980 804.372697 804.464440 806.463709 808.649444
29.870000 802.534653 804.432098 806.247529 806.359227 808.383968 810.724968
29.970000 804.593492 806.342478 808.202101 808.301718 810.321720 812.524832
30.080000 806.883884 808.533523 810.451970 810.562698 812.600875 814.932185
30.180000 809.028859 810.754327 812.776701 812.955836 815.046285 818.201740
30.280000 811.175614 813.077145 815.475209 815.761758 818.356610 822.409799
30.380000 813.100005 815.238789 818.088328 818.573836 821.925607 826.454887
30.470000 814.900790 817.171097 820.467000 820.948633 824.857029 829.153918
30.573333 817.067659 819.583648 823.378995 823.638767 827.745655 831.824234
30.676667 819.273606 822.101390 826.112084 826.274742 830.455164 834.323385
30.780000 821.822319 824.841188 828.929485 828.856692 832.739737 836.646385
30.880000 824.302009 827.345486 831.548348 831.397312 835.183488 838.744427
30.980000 826.760857 829.855409 833.965084 833.962506 837.702766 840.821860
31.080000 829.496900 832.918065 836.824411 836.836199 840.608181 843.725666
31.180000 831.626340 836.144943 840.071964 839.912727 843.648074 847.860719
31.280000 834.514957 838.874971 842.923397 842.879989 846.994563 850.595230
31.380000 837.167231 841.367964 845.662782 845.587016 849.806302 853.737858
31.490000 840.426536 843.911811 848.890917 848.682009 853.074075 857.435393
31.590000 842.951138 846.838088 852.039408 851.807047 856.452252 860.271747
31.680000 846.350963 850.689775 855.757646 855.379014 860.186553 862.374890
31.780000 850.093106 855.485451 860.324281 859.482045 862.954888 864.375271
31.890000 858.000859 862.907367 864.725971 864.187519 865.818099 866.823168
32.020000 864.886122 866.366057 867.665265 867.595870 868.839846 870.274933
32.160000 867.523415 868.737358 869.845501 870.001947 871.294225 873.019254
32.240000 868.955914 870.062688 871.281942 871.381759 872.729181 874.561287
32.320000 870.243104 871.370920 872.556079 872.723250 874.126739 875.901775
32.460000 872.221972 873.418890 874.772462 874.890532 876.249068 878.365298
32.570000 873.817386 875.103924 876.543369 876.673376 878.239293 880.589636
32.660000 875.318966 876.600757 878.167987 878.334115 880.094452 882.701469
32.740000 876.496221 878.058294 879.825143 880.021984 882.021253 884.808755
32.820000 877.875585 879.578522 881.651671 881.874968 884.368195 887.195216
32.910000 879.622619 881.400048 883.752465 884.046373 886.804489 889.633939
33.020000 882.101943 883.920156 886.717021 886.823461 889.793194 892.353335
33.150000 885.135102 887.442115 890.689687 890.524848 893.381047 895.651019
33.260000 888.738405 891.723867 894.670894 894.432691 896.904572 899.703339
33.330000 892.591547 895.371402 897.681676 897.808087 900.368031 904.099730
33.390000 895.085251 897.507662 899.570195 899.899148 902.580864 906.107001
33.430000 896.318338 898.548563 900.796242 901.110571 903.903052 907.140300
33.480000 897.644914 899.919068 902.173237 902.592908 905.720431 908.799272
33.530000 898.691698 901.162580 903.701874 904.056233 907.331792 910.037577
33.600000 900.345036 902.809724 905.951331 906.044979 909.454478 911.624933
33.700000 902.860061 905.341830 908.837662 908.588851 911.747549 913.660363
33.805000 905.287355 908.186517 911.644668 911.192056 913.975705 915.609760
33.910000 907.436780 910.813935 913.953139 913.532255 915.965145 917.599022
34.025000 910.982801 913.886899 916.290765 916.006260 918.005855 919.452141
34.140000 914.608634 916.712050 918.403773 918.344749 920.040464 921.628501
34.270000 917.587870 919.190934 920.678986 920.710505 922.262516 923.743360
34.350000 919.086143 920.702215 922.217682 922.239937 923.782291 925.400984
34.400000 920.305416 921.887494 923.311634 923.383682 924.909732 926.631927
34.430000 921.093343 922.645867 924.180650 924.225200 925.807454 927.653177
34.540000 923.687189 925.235664 927.109393 927.394113 929.334042 933.277296
34.670000 927.131112 928.835428 931.673613 932.010287 935.341221 938.352832
34.770000 929.769638 932.731005 936.236081 936.214413 939.491283 942.481482
34.880000 934.152072 938.196909 940.938886 940.860805 943.776598 946.221065
34.980000 938.569792 941.395711 943.887277 943.793527 946.336864 948.451629
35.090000 942.141412 944.672917 946.863479 946.870452 949.160330 951.230728
35.190000 945.536532 947.523819 949.592503 949.643832 951.771455 953.710061
35.290000 948.627673 950.611947 952.622877 952.531177 954.524148 956.110218
35.390000 951.617560 954.074206 955.835383 955.655119 957.193082 958.497072
35.480000 956.103005 957.921720 959.672065 960.398636 962.950849 969.309475
35.580000 958.258118 959.830460 962.287141 963.937958 969.436268 976.158178
35.680000 960.333601 962.167501 965.217585 967.197356 973.923277 983.209805
35.780000 962.661028 964.797014 968.080954 970.361506 979.213746 987.187252
35.880000 965.567090 968.262180 971.271806 973.843941 983.169713 990.245013
35.980000 968.729111 971.338977 974.947276 977.491419 987.538552 993.091334
36.080000 971.443931 974.573732 978.759040 980.897371 990.501209 995.631216
36.180000 974.992382 978.333583 982.655431 984.634355 993.760532 997.863695
36.280000 978.298073 982.589532 987.422706 988.612127 996.397431 1000.485079
36.380000 982.464770 986.611222 992.283218 992.589626 998.856967 1002.758463
36.480000 986.565242 991.816548 997.520449 996.826275 1001.637158 1005.028593
36.570000 989.594341 996.574534 1001.232926 1000.520255 1004.211822 1007.668577
36.670000 996.752761 1001.986508 1004.574415 1004.469630 1007.270895 1010.143098
36.760000 1002.644266 1005.084787 1007.550114 1007.628117 1010.169129 1013.268149
36.780000 1003.323412 1005.735232 1008.120629 1008.259467 1010.814272 1013.906505
36.870000 1006.553032 1008.880113 1011.382530 1011.898376 1014.598261 1021.323203
36.960000 1010.487481 1013.289056 1017.277333 1018.044277 1023.660468 1027.368728
36.980000 1010.819926 1014.045892 1018.106077 1018.859613 1024.615432 1027.999054
37.060000 1015.581323 1019.173510 1024.832482 1024.012060 1028.354394 1029.811049
37.080000 1016.357963 1019.891053 1025.766867 1024.829692 1029.044133 1030.457163
37.160000 1020.131271 1028.656016 1030.446987 1029.821476 1031.707424 1032.903659
37.180000 1020.930435 1029.466001 1031.221821 1030.602302 1032.397163 1033.606254
37.260000 1030.132898 1031.775064 1032.976821 1032.884824 1034.115752 1035.679407
37.360000 1032.701259 1033.750333 1034.857123 1034.950264 1036.141859 1037.902656
37.460000 1034.184015 1035.359446 1036.596085 1036.673387 1037.900838 1039.702428
37.550000 1035.579104 1036.794415 1038.107918 1038.192311 1039.557261 1041.381653
37.650000 1037.027899 1038.362087 1039.760528 1039.863654 1041.268027 1043.303261
37.750000 1038.579938 1040.058640 1041.462622 1041.590758 1043.105271 1045.412140
37.850000 1040.226506 1041.609589 1043.156268 1043.323847 1044.917362 1047.478347
37.940000 1041.667501 1043.224041 1044.796818 1045.053869 1046.872489 1049.664747
38.040000 1043.314518 1045.020146 1046.816423 1047.091639 1049.165721 1052.331229
38.140000 1045.190510 1046.840389 1048.913478 1049.266670 1051.791073 1054.917580
38.240000 1047.140776 1048.989473 1051.413556 1051.704981 1054.670800 1057.547611
38.340000 1049.110805 1051.283545 1054.441063 1054.403815 1057.475785 1059.774283
38.440000 1051.915604 1054.833123 1058.235839 1057.810774 1060.597559 1062.245898
38.540000 1056.406524 1059.699601 1062.134149 1061.727370 1063.714493 1065.281216
38.640000 1061.530931 1063.857006 1065.308752 1065.352212 1066.930427 1069.395479
38.730000 1065.426870 1067.014191 1068.634269 1068.793726 1070.760274 1072.874723
38.830000 1067.829228 1070.007657 1071.829625 1071.802786 1073.767848 1075.419658
38.930000 1069.753624 1072.390752 1074.416976 1074.320443 1076.459377 1078.238730
39.030000 1071.579838 1074.257332 1076.325914 1076.180697 1078.224975 1079.867620
39.140000 1074.059918 1076.094124 1077.977007 1077.906890 1079.718907 1081.492313
39.230000 1076.052078 1077.839432 1079.526463 1079.451680 1081.228498 1082.807390
39.330000 1077.841471 1079.564265 1081.127348 1081.138543 1082.783466 1084.280601
39.440000 1079.828282 1081.438187 1083.035872 1083.038598 1084.734723 1086.330979
39.540000 1081.335017 1083.127770 1084.808117 1084.788172 1086.461925 1088.012815
39.640000 1083.047406 1085.041555 1086.624159 1086.633055 1088.285376 1089.793081
39.740000 1085.537308 1087.105521 1088.736421 1088.723485 1090.303710 1091.927907
39.850000 1087.572004 1089.138775 1090.777558 1090.778930 1092.416491 1094.191850
39.960000 1089.514362 1091.028949 1092.703054 1092.692266 1094.183303 1096.114415
40.070000 1091.491492 1092.866439 1094.441078 1094.492091 1096.033873 1097.907840
40.190000 1093.648155 1094.860890 1096.322680 1096.395612 1097.879454 1099.546916
40.310000 1095.648157 1096.769389 1098.240880 1098.281265 1099.709461 1101.263673
40.410000 1097.223481 1098.557512 1099.959096 1100.026225 1101.498674 1103.168802
40.500000 1098.886701 1100.203162 1101.668346 1101.845688 1103.444608 1105.681887
40.580000 1100.591757 1101.936182 1103.566215 1103.842455 1105.696296 1109.027558
40.720000 1103.052277 1104.632385 1106.910872 1107.322076 1110.477294 1112.870600
40.790000 1104.693976 1106.472053 1109.277844 1109.341457 1112.319108 1114.267822
40.860000 1106.470899 1108.751633 1111.910985 1111.602084 1114.065444 1115.806982
40.930000 1108.834942 1111.694028 1114.072198 1113.838469 1115.907440 1117.780334
41.020000 1112.636893 1114.933429 1116.690419 1116.627282 1118.392451 1120.207670
41.120000 1115.728923 1117.356089 1118.949822 1118.992812 1120.752747 1122.459762
41.220000 1117.853581 1119.356231 1120.937151 1120.983908 1122.721353 1124.315083
41.350000 1120.169982 1121.730065 1123.232679 1123.263393 1124.801988 1126.667284
41.470000 1122.135653 1123.752544 1125.268417 1125.275180 1126.814506 1128.543223
41.600000 1124.213830 1125.863187 1127.347021 1127.381258 1128.924670 1130.603300
41.720000 1126.128268 1127.827085 1129.358957 1129.374407 1130.966227 1132.363371
41.820000 1128.003668 1129.532608 1131.129932 1131.134293 1132.672190 1134.248789
41.920000 1129.656232 1131.410146 1132.987400 1132.936880 1134.473340 1135.848957
42.010000 1131.334891 1133.147416 1134.679218 1134.652902 1136.190647 1137.554067
42.110000 1133.670938 1135.344685 1136.785428 1136.809425 1138.318743 1140.378997
42.190000 1135.567053 1136.983939 1138.457020 1138.607894 1140.169765 1142.862712
42.280000 1137.157033 1138.658869 1140.254878 1140.507068 1142.250979 1145.549562
42.380000 1138.850638 1140.483501 1142.176008 1142.467411 1144.587482 1147.983336
42.480000 1140.691525 1142.233349 1144.047819 1144.422417 1146.796918 1150.408115
42.580000 1142.355220 1143.973005 1145.875721 1146.355454 1148.851775 1152.630250
42.690000 1144.485227 1145.990048 1148.159503 1148.709899 1151.379792 1155.547903
42.790000 1146.151686 1147.986439 1150.391913 1150.993050 1154.072462 1158.857103
42.900000 1148.208081 1150.068339 1152.729773 1153.668117 1157.195341 1164.608975
43.000000 1149.873990 1151.863066 1154.794358 1155.938621 1160.053430 1168.339948
43.090000 1151.480273 1153.393988 1156.656583 1157.916462 1162.867320 1171.084867
43.190000 1153.179142 1155.272206 1158.795910 1160.203860 1165.819529 1173.502834
43.280000 1154.689621 1156.971868 1160.806488 1162.427301 1168.473538 1175.577286
43.380000 1156.777234 1159.322648 1164.291687 1165.311396 1171.354853 1177.714640
43.480000 1158.704574 1161.592792 1168.225887 1168.340097 1174.835000 1179.855880
43.580000 1160.996754 1164.235312 1171.664565 1171.296589 1178.014614 1182.020617
43.690000 1163.781287 1167.771600 1174.928100 1174.557701 1181.187435 1184.098985
43.790000 1167.251914 1171.717780 1178.523773 1177.957059 1183.864714 1186.554541
43.890000 1172.183515 1176.842541 1182.617452 1181.932052 1186.543119 1189.009404
43.990000 1176.211293 1181.566689 1186.587475 1185.741860 1189.303668 1191.242667
44.080000 1180.461464 1187.106690 1190.601921 1190.267060 1193.102257 1198.916069
44.170000 1184.998936 1190.394727 1193.445136 1194.392533 1199.849889 1205.827236
44.260000 1186.964078 1192.454893 1198.181774 1198.574291 1205.796127 1209.306299
44.350000 1188.838206 1194.312215 1203.872795 1202.185345 1208.893287 1211.462537
44.450000 1190.758041 1197.606812 1207.498818 1205.505494 1211.307553 1213.627806
44.550000 1193.696823 1202.493072 1209.923741 1208.246334 1213.281933 1215.573285
44.650000 1196.918877 1207.463039 1211.970783 1210.976435 1215.158802 1217.424524
44.770000 1204.099417 1210.776880 1214.507470 1213.980312 1217.308187 1219.919382
44.880000 1210.830474 1214.348160 1217.430048 1217.186730 1220.044007 1222.294797
44.980000 1214.384296 1217.757003 1220.323267 1220.287376 1222.896247 1225.213582
45.090000 1218.152209 1221.057016 1223.485045 1223.673195 1226.239748 1230.451946
45.180000 1221.059996 1223.548724 1226.465677 1226.823005 1229.874229 1234.991860
45.270000 1223.827436 1226.127282 1229.282812 1229.871090 1233.930452 1238.623532
45.360000 1226.555927 1229.335850 1234.041985 1233.945774 1238.474764 1240.736490
45.450000 1229.708488 1233.644735 1239.148017 1238.017198 1241.463954 1242.907915
45.550000 1236.320183 1241.472466 1243.114350 1242.723063 1244.412616 1245.503307
45.660000 1243.513858 1244.890450 1245.986492 1245.999339 1247.156811 1248.430425
45.770000 1246.418824 1247.435534 1248.504930 1248.562544 1249.758644 1250.940905
45.830000 1247.514883 1248.654391 1249.777224 1249.833306 1251.044007 1252.214636
45.870000 1248.488984 1249.480501 1250.691852 1250.699566 1251.946262 1253.063279
45.900000 1249.049828 1250.085283 1251.267994 1251.301239 1252.495319 1253.723055
45.940000 1249.784948 1250.847741 1252.026856 1252.061658 1253.298472 1254.560031
46.010000 1250.997477 1251.996073 1253.300191 1253.315635 1254.580823 1256.015591
46.110000 1252.486812 1253.682463 1255.056320 1255.108991 1256.526781 1258.085038
46.220000 1254.186762 1255.490103 1257.034359 1257.071326 1258.711148 1260.252464
46.340000 1256.098666 1257.596279 1259.262786 1259.282656 1260.944491 1262.536283
46.430000 1257.466867 1259.338415 1261.132007 1261.062468 1262.724241 1264.461972
46.530000 1259.632323 1261.481204 1263.199792 1263.186201 1264.943722 1266.531268
46.630000 1262.072720 1263.667098 1265.470484 1265.506770 1267.303084 1269.323607
46.730000 1264.660866 1266.128454 1267.890339 1268.132245 1270.131646 1272.989366
46.830000 1266.736111 1268.382671 1270.637789 1270.932776 1273.524698 1276.822860
46.940000 1269.249407 1271.360000 1274.221832 1274.390335 1277.561113 1280.121354
47.040000 1272.075406 1274.498109 1277.979974 1277.687071 1280.735041 1282.264911
47.130000 1274.242536 1278.048234 1281.343529 1280.630349 1282.846011 1284.047217
47.230000 1278.310829 1282.089008 1283.747188 1283.424639 1284.853745 1285.885718
47.330000 1283.307971 1284.679949 1285.820124 1285.778453 1286.909645 1288.054060
47.430000 1285.625039 1286.642639 1287.687191 1287.695778 1288.743078 1289.859343
47.530000 1287.250076 1288.265859 1289.313792 1289.343576 1290.431155 1291.594858
47.630000 1288.862891 1289.799615 1290.880994 1290.933637 1292.080825 1293.232272
47.730000 1290.342163 1291.362213 1292.423403 1292.501906 1293.696709 1294.893126
47.830000 1291.565421 1292.842921 1294.071053 1294.087924 1295.371627 1296.617117
47.900000 1292.714988 1293.886197 1295.191349 1295.237451 1296.632321 1297.758511
48.000000 1294.359064 1295.496499 1296.837476 1296.898046 1298.387166 1299.734861
48.060000 1295.323053 1296.559288 1297.922181 1297.991825 1299.534760 1300.991838
48.130000 1296.491781 1297.784286 1299.243750 1299.277585 1300.790143 1302.379851
48.200000 1297.708898 1299.015445 1300.498683 1300.562529 1302.100320 1303.760538
48.310000 1299.503406 1300.984369 1302.465131 1302.537156 1304.095441 1305.639843
48.430000 1301.693140 1303.182432 1304.694934 1304.733690 1306.340383 1307.862859
48.505000 1303.198057 1304.611878 1306.231042 1306.192152 1307.782502 1309.265018
48.580000 1304.671340 1306.128580 1307.743179 1307.693325 1309.204720 1310.755461
48.655000 1306.251079 1307.653330 1309.266615 1309.257451 1310.845584 1312.380228
48.730000 1307.718009 1309.186755 1310.769426 1310.796848 1312.435294 1313.865646
48.860000 1310.093309 1311.512783 1313.361131 1313.281425 1315.043595 1316.419704
48.950000 1311.546561 1313.310413 1315.158295 1315.087398 1316.851904 1318.269229
49.040000 1313.388372 1315.308295 1317.063067 1316.920359 1318.510181 1319.976925
49.100000 1314.758470 1316.837277 1318.359369 1318.275588 1319.752316 1321.015226
49.180000 1317.380182 1319.126943 1320.370346 1320.448928 1321.857371 1323.629689
49.240000 1319.720941 1320.899389 1322.121198 1322.430007 1324.020916 1326.206627
49.290000 1321.022549 1322.248409 1323.684199 1324.014812 1325.868025 1328.840472
49.360000 1322.363541 1323.701922 1325.590288 1325.940597 1328.134074 1331.491833
49.430000 1323.695862 1325.269962 1327.387849 1327.841282 1330.609213 1334.039474
49.490000 1324.879071 1326.521322 1329.067107 1329.404318 1332.384943 1335.826391
