depth(m) lower_95(kyr) lower_68(kyr) median(kyr) mean(kyr) upper_68(kyr) upper_95(kyr)
38.160000 696.863773 697.746081 698.584257 698.579976 699.411226 700.095048
38.260000 697.895210 698.795340 699.670622 699.666959 700.540294 701.370286
38.360000 699.010533 699.821885 700.741236 700.749094 701.671162 702.570819
38.460000 700.145748 700.901756 701.879244 701.848999 702.743200 703.690656
38.560000 701.096339 701.948810 702.960080 702.935253 703.878851 704.840549
38.650000 702.076598 703.006018 703.988916 703.967673 704.926584 705.809923
38.740000 703.099078 704.020182 705.041603 705.034859 705.997551 707.013515
38.840000 704.232154 705.162919 706.240671 706.225835 707.189764 708.212762
38.940000 705.375376 706.482348 707.585031 707.504229 708.497576 709.583719
39.040000 706.682370 707.748079 708.772422 708.794393 709.837167 710.993622
39.140000 707.826371 709.069825 710.141587 710.136030 711.181902 712.438451
39.240000 709.236812 710.315995 711.414154 711.462483 712.557945 714.031902
39.340000 710.504980 711.619667 712.752338 712.838183 714.052205 715.592932
39.440000 711.904059 713.075364 714.234945 714.395063 715.732183 717.591359
39.540000 713.197875 714.379889 715.690544 715.885678 717.307765 719.991451
39.640000 714.527546 715.767984 717.171785 717.410122 719.086966 721.737443
39.740000 715.882306 717.158606 718.632264 718.937142 720.737978 723.815780
39.840000 717.172007 718.520231 720.155175 720.470323 722.282561 725.744747
39.940000 718.526820 720.032109 721.719345 722.030946 723.840642 727.594128
40.040000 720.071128 721.678585 723.400308 723.803964 725.657329 730.714269
40.140000 721.503357 723.448928 725.395744 725.912275 728.008546 734.433100
40.240000 723.069013 725.689473 728.188221 728.735491 731.626326 737.859471
40.340000 724.847077 728.055651 731.564865 731.734116 735.411325 740.084990
40.440000 726.209881 730.343746 734.823269 734.735600 739.036340 742.506840
40.540000 727.696933 732.916161 737.685136 737.506659 742.154519 745.248579
40.640000 729.316922 735.753016 740.051071 739.844483 744.220381 747.540830
40.740000 731.284667 737.991756 742.108538 742.073304 746.516933 750.245515
40.840000 733.786345 740.101775 744.357809 744.192306 748.662097 752.360257
40.940000 736.236340 742.236543 746.703957 746.346473 750.491878 754.238485
41.040000 738.186136 744.221284 748.952923 748.397593 752.498518 755.776269
41.140000 739.989696 746.137129 750.981179 750.400541 754.604801 758.004342
41.240000 742.351917 748.323700 752.691642 752.305067 756.413456 759.830737
41.340000 744.737445 750.459863 754.541293 754.256853 757.984216 761.265394
41.473333 747.857375 753.421840 757.014097 756.756701 760.401570 763.462696
41.606667 751.825071 755.848862 759.382275 759.266742 762.675582 765.418692
41.740000 755.042728 758.783257 761.922910 761.888452 765.186940 767.848256
41.840000 757.920821 761.073684 764.290941 764.116975 767.183096 769.704382
41.940000 760.248121 763.292919 766.496379 766.328849 769.172031 771.600200
42.040000 762.818928 765.981976 768.934584 768.801518 771.554976 773.847026
42.140000 765.855709 768.844492 771.636848 771.537724 774.211172 776.138488
42.240000 768.865838 772.043011 774.540813 774.382027 776.732648 778.616971
42.340000 771.839776 774.740540 777.035693 776.876672 779.112031 780.825175
42.440000 774.360228 776.941117 779.191395 779.058273 781.200023 782.782888
42.540000 776.453310 778.710828 780.908894 780.810733 782.910394 784.527295
42.640000 778.386468 780.349736 782.583517 782.472343 784.406559 786.020095
42.740000 780.180362 782.188975 784.389421 784.201380 786.061885 787.455702
42.840000 782.340498 784.373141 786.252637 786.152936 787.822545 789.597898
42.940000 785.431499 787.266914 788.767833 788.859596 790.505922 792.396867
43.040000 789.100818 790.955716 793.067662 793.222919 795.389583 798.622922
43.140000 792.152833 794.110222 796.558605 796.629308 799.239551 801.787532
43.240000 794.256550 796.230126 799.248911 799.218395 802.024395 804.559896
43.340000 796.089789 798.567208 801.542900 801.497325 804.254761 806.826856
43.440000 798.081832 800.890735 803.799972 803.632661 806.095870 808.585876
43.540000 800.275588 803.391557 806.071140 805.866170 808.189744 810.318472
43.640000 802.966246 805.944774 808.395588 808.286190 810.622412 812.621553
43.740000 805.676738 808.400044 810.533384 810.507608 812.690738 814.859891
43.840000 808.220749 810.528373 812.585794 812.879743 815.249923 818.862039
43.940000 810.385192 812.596010 814.974979 815.411549 818.221668 823.749637
44.040000 812.193183 814.688986 818.167611 818.454640 822.113580 827.328703
44.140000 813.947545 816.389896 821.102978 821.228291 825.833067 830.057980
44.240000 816.121363 818.694876 824.437455 824.110829 829.110560 833.814246
44.340000 818.731742 821.392356 827.033365 826.831106 831.873433 835.945405
44.440000 821.388562 824.238761 829.983013 829.761049 834.714678 838.299542
44.540000 823.875687 827.661463 832.863726 832.661667 837.345846 840.939617
44.640000 826.508064 830.971638 836.004058 835.698447 840.119866 843.401791
44.740000 829.742984 834.457694 839.280459 838.943158 843.124300 846.617845
44.840000 835.143881 839.252170 843.440138 843.173152 846.904971 850.637683
44.940000 839.398768 843.829554 847.356971 847.349997 851.048519 854.133764
45.040000 843.200671 847.146851 850.427183 850.634802 854.648086 857.228339
45.140000 845.815268 849.711003 853.160580 853.219931 857.091824 859.096961
45.240000 848.512889 852.252689 855.984970 855.614195 859.110242 860.733206
45.340000 850.923725 854.921289 858.548189 858.012173 860.915411 862.335622
45.440000 853.006652 857.685583 861.045555 860.353190 862.855006 864.119640
45.540000 856.080739 860.515444 863.098488 862.461837 864.485845 865.559598
45.640000 859.796529 863.204856 865.186319 864.812927 866.408637 867.813841
45.773333 862.281960 865.691147 867.521957 867.425904 869.278789 871.608673
45.906667 865.762401 867.885867 869.818330 869.879860 871.901728 874.615338
46.040000 868.486158 870.231056 871.990512 872.256673 874.368017 877.272568
46.140000 869.958870 871.781513 873.768008 873.987001 876.240167 879.010611
46.240000 871.652677 873.482352 875.474876 875.679533 877.914495 880.744556
46.340000 873.255406 875.232545 877.206097 877.416461 879.729681 882.623451
46.440000 875.057269 876.862640 879.137532 879.276261 881.681288 884.452354
46.540000 876.898585 878.806351 881.127370 881.283874 883.735750 886.593796
46.640000 879.017671 880.881234 883.234943 883.354598 885.817335 888.581914
46.740000 880.537639 882.814562 885.274630 885.323116 888.055412 890.315859
46.860000 882.616574 885.133152 887.466409 887.564883 890.113501 892.603849
46.960000 884.535392 887.000989 889.423525 889.398081 891.846259 894.229377
47.060000 886.181036 888.672466 891.209226 891.122230 893.582604 895.715819
47.160000 887.929526 890.408939 892.928071 892.868981 895.349381 897.105018
47.260000 889.778813 892.358395 894.750266 894.741213 897.133662 899.352185
47.360000 891.848232 894.284829 896.684767 896.678469 899.034870 901.464232
47.460000 894.100113 896.199960 898.623105 898.644881 900.964800 903.601749
47.560000 896.664400 898.624631 900.806067 900.939142 903.276283 905.752969
47.660000 898.762888 900.912668 903.220100 903.251384 905.657875 907.838811
47.760000 900.784064 902.918481 905.492817 905.457117 907.921314 910.085900
47.860000 902.675712 905.016565 907.758321 907.578006 910.139645 912.047990
47.960000 904.474378 907.147846 909.844433 909.634300 912.048518 913.887312
48.060000 906.952862 909.638831 912.105263 911.863131 914.055336 915.651989
48.160000 909.329086 912.128052 914.387736 914.244322 916.246148 918.459966
48.260000 912.295368 914.728060 916.963427 917.005933 919.129112 922.300430
48.360000 914.890978 917.183141 919.684039 919.891334 922.464453 926.356314
48.460000 917.789945 920.074036 922.794548 922.942380 925.662142 929.161622
48.560000 920.952295 923.933856 927.133631 927.177389 930.467786 934.376067
48.660000 926.006927 928.431936 931.153903 931.379494 934.586132 937.386201
48.760000 928.955432 931.537754 934.444268 934.387505 937.123059 939.688587
48.860000 931.688805 934.564104 937.472573 937.267215 939.889406 942.051363
48.960000 934.412146 937.298409 940.035191 939.804347 942.273710 943.844246
49.060000 936.848029 939.847530 942.431003 942.097462 944.277828 945.681421
49.160000 939.773865 942.266317 944.483021 944.245070 946.167500 947.650857
49.260000 942.093430 944.517397 946.420764 946.217451 947.902924 949.276618
49.360000 944.173047 946.563734 948.249620 948.063367 949.606660 950.851629
49.460000 946.591460 948.466350 949.987679 949.887738 951.321196 952.530037
49.560000 948.644548 950.282327 951.683943 951.609051 952.922875 954.099054
49.660000 950.581738 952.025042 953.271671 953.267134 954.553181 955.635446
49.760000 952.436834 953.732161 955.073180 954.981193 956.133956 957.072977
49.860000 954.555921 956.152504 957.213918 957.204920 958.291579 959.714267
49.960000 958.088433 959.403418 960.841574 961.160937 962.984277 965.835977
50.060000 960.112700 961.753854 964.076637 964.187964 966.573360 969.349529
50.160000 962.571248 964.662640 967.074633 967.059328 969.438387 971.774191
50.260000 965.410835 967.880262 970.135674 970.128599 972.376308 974.872327
50.360000 968.313466 970.693380 972.978440 972.971190 975.389951 977.983135
50.460000 970.537705 972.905728 975.346254 975.418031 977.764329 980.822124
50.560000 972.542949 975.041728 977.664746 977.666867 980.175222 983.063504
50.660000 974.794612 977.440410 979.836784 980.014645 982.574071 985.766026
50.760000 977.035233 979.884030 982.583657 982.666834 985.495546 988.721532
50.860000 979.121948 982.110897 984.795627 984.973423 987.834263 991.659141
50.960000 981.524872 984.238547 987.041884 987.266727 990.412467 993.816759
51.060000 984.171482 986.321835 989.275222 989.558925 992.775844 996.768797
51.160000 986.131166 988.463225 991.725551 992.022303 995.682847 999.495826
51.260000 988.043683 990.506279 994.373926 994.468751 998.306938 1002.122841
51.360000 990.215999 992.871615 997.028891 996.938157 1000.780954 1004.213266
51.460000 992.727714 995.970274 999.589354 999.562191 1002.976883 1006.242289
51.560000 995.904393 999.519757 1002.710871 1002.502015 1005.486035 1008.374007
51.660000 999.702182 1003.145789 1005.616632 1005.452628 1007.879210 1010.162269
51.760000 1002.805766 1005.657952 1008.001576 1007.908954 1010.250120 1013.075319
51.860000 1005.068315 1007.955785 1010.403946 1010.384359 1012.721320 1016.151339
51.960000 1007.226787 1010.410966 1012.733666 1012.804559 1015.426088 1019.012913
52.060000 1009.664398 1012.641041 1015.082613 1015.223912 1018.131292 1021.299555
52.160000 1012.269899 1014.996814 1017.659081 1017.791480 1020.825439 1023.770909
52.260000 1015.106588 1017.656170 1020.784775 1020.679120 1023.673459 1025.844818
52.360000 1017.726530 1020.325659 1023.653551 1023.339724 1025.983510 1027.838969
52.460000 1020.478983 1023.690108 1026.477156 1026.054072 1028.423226 1029.854516
52.560000 1023.446511 1027.139542 1029.280671 1028.984882 1030.847277 1032.503048
52.660000 1029.505193 1031.539269 1033.051607 1033.316218 1035.192842 1038.035142
52.760000 1032.366847 1034.031974 1035.902220 1036.123159 1038.441456 1040.930392
52.860000 1034.172790 1036.051839 1038.427674 1038.561679 1041.008560 1043.289806
52.960000 1035.963312 1038.305937 1040.845305 1040.855665 1043.460548 1045.916980
53.060000 1037.904553 1040.322309 1042.967112 1042.934719 1045.601355 1048.279543
53.160000 1039.777379 1042.110640 1044.895819 1044.894412 1047.695301 1050.381659
53.260000 1041.391461 1044.052040 1046.841649 1046.857168 1049.714957 1052.152909
53.360000 1043.602222 1045.968777 1048.910916 1048.853540 1051.689156 1054.053238
53.460000 1045.632487 1048.053355 1050.942927 1050.928949 1053.754891 1055.900565
53.560000 1047.358447 1050.128112 1053.215478 1053.035512 1055.790655 1057.776420
53.660000 1049.715509 1052.265417 1055.494260 1055.169209 1057.827267 1059.737889
53.760000 1051.954916 1054.992653 1057.865708 1057.538543 1059.943165 1061.731990
53.860000 1055.373740 1058.176366 1060.543753 1060.289040 1062.432572 1063.897432
53.960000 1059.106370 1061.885708 1063.618910 1063.465618 1065.092461 1066.590706
54.060000 1064.442316 1065.929632 1067.407068 1067.524490 1069.097621 1071.303809
54.160000 1066.922449 1068.481558 1070.176906 1070.278446 1072.117734 1073.843078
54.260000 1068.926676 1070.929269 1072.774408 1072.754621 1074.613245 1076.087453
54.360000 1071.409651 1073.390899 1075.516703 1075.391013 1077.194010 1079.083411
54.460000 1074.354949 1076.457777 1078.590097 1078.572138 1080.626609 1083.091528
54.560000 1077.476727 1079.474563 1081.478815 1081.541578 1083.580876 1085.734166
54.660000 1080.025207 1081.771540 1083.816443 1083.908543 1086.068891 1088.321677
54.760000 1081.936999 1083.776907 1085.987121 1086.015418 1088.198282 1090.075319
54.860000 1083.627239 1085.712664 1087.878893 1087.861436 1090.037908 1091.929624
54.960000 1085.377814 1087.504019 1089.699210 1089.638953 1091.712413 1093.829528
55.060000 1087.179439 1089.301642 1091.462229 1091.400853 1093.447550 1095.573918
55.160000 1088.946584 1091.082810 1093.090814 1093.120688 1095.017548 1097.425844
55.260000 1090.945569 1092.910095 1094.938053 1094.959825 1096.805745 1099.115760
55.360000 1092.971629 1095.050999 1096.853194 1096.871317 1098.641873 1100.685152
55.460000 1095.115168 1097.145468 1098.800528 1098.870721 1100.595818 1102.965881
55.560000 1097.259411 1099.246773 1100.993153 1101.195737 1103.040173 1106.302855
55.660000 1100.015065 1101.521237 1103.381445 1103.620252 1105.732672 1108.727781
55.760000 1102.245365 1104.106223 1106.132752 1106.443672 1108.976737 1111.820116
55.860000 1104.372146 1106.523674 1109.087332 1109.124845 1111.678778 1114.099027
55.960000 1106.773478 1109.309726 1111.956453 1111.848251 1114.270930 1116.549297
56.060000 1110.297598 1113.095709 1115.408979 1115.441113 1117.915220 1120.234808
56.160000 1113.045376 1115.672028 1118.061835 1118.130150 1120.739352 1123.086602
56.260000 1115.694201 1118.048269 1120.747850 1120.720366 1123.495980 1125.814532
56.360000 1118.053537 1120.467576 1123.426662 1123.340776 1126.110588 1128.386096
56.460000 1120.021500 1122.447528 1125.688717 1125.539360 1128.280983 1130.709972
56.560000 1122.157863 1124.755311 1128.066083 1127.802814 1130.622125 1132.888579
56.660000 1124.340201 1127.276694 1130.262905 1130.054061 1132.770076 1134.911785
56.760000 1127.073050 1129.975115 1132.716220 1132.532749 1135.240204 1137.180162
56.860000 1129.740680 1132.742718 1135.605336 1135.540194 1138.442974 1140.846551
56.960000 1132.430889 1134.987934 1137.756178 1137.755576 1140.592316 1143.257864
57.060000 1134.428743 1136.741887 1139.751005 1139.840401 1142.745909 1145.985484
57.160000 1136.623140 1138.642831 1141.701227 1141.802814 1144.758219 1147.682178
57.260000 1138.406784 1140.799711 1143.804020 1143.852595 1146.913081 1149.873261
57.360000 1140.249285 1142.743434 1145.807475 1145.852872 1149.149795 1151.891591
57.460000 1142.122245 1144.756999 1148.052585 1147.965531 1151.246054 1154.327633
57.560000 1144.141518 1146.898432 1150.246424 1150.138144 1153.288503 1156.411474
57.660000 1146.678148 1149.422194 1152.512110 1152.623004 1155.744983 1159.345505
57.760000 1148.985735 1152.363482 1155.281607 1155.321088 1158.111407 1161.929891
57.860000 1152.173886 1155.178443 1158.117157 1158.156354 1161.185390 1164.261015
57.960000 1154.845961 1157.626507 1160.858748 1160.910970 1164.113578 1167.259326
58.060000 1157.107491 1160.285253 1163.715944 1163.568694 1166.805209 1170.053257
58.160000 1159.858782 1163.182431 1166.324252 1166.257440 1169.273317 1172.565379
58.260000 1163.001691 1166.193736 1169.147796 1169.031633 1171.757464 1175.219647
58.360000 1165.835426 1169.228760 1172.046189 1172.005923 1174.814050 1177.741306
58.460000 1168.855588 1171.865344 1174.690357 1174.608975 1177.277531 1180.171156
58.560000 1171.323885 1174.095307 1176.959077 1176.901965 1179.796546 1182.404217
58.685000 1173.554923 1176.547088 1179.402424 1179.378930 1182.260386 1184.681059
58.810000 1176.275013 1179.008277 1181.978686 1181.784989 1184.604706 1186.819465
58.935000 1178.589208 1181.683161 1184.330001 1184.206167 1186.866698 1188.956747
59.060000 1181.110641 1184.170980 1186.873392 1186.618220 1188.973134 1190.883831
59.160000 1184.062211 1186.762367 1189.149884 1189.052689 1191.315930 1193.381765
59.260000 1187.016535 1189.440570 1191.474802 1191.584081 1193.718888 1196.228802
59.360000 1190.502456 1192.081149 1193.766492 1193.983941 1195.832580 1198.860391
59.460000 1192.541561 1194.232004 1195.919172 1196.136055 1198.024080 1200.943036
59.560000 1194.339807 1196.025376 1197.792589 1198.047500 1200.126061 1202.778882
59.660000 1196.175300 1197.783633 1199.702638 1199.944684 1202.153722 1204.818364
59.760000 1197.910858 1199.519898 1201.640749 1201.827914 1204.063106 1206.583408
59.860000 1199.760062 1201.594038 1203.781736 1203.827699 1206.002784 1208.289411
59.960000 1201.581536 1203.698459 1205.971991 1206.034574 1208.308366 1210.656710
60.060000 1203.845455 1206.395377 1208.711440 1208.775379 1211.211162 1213.930721
60.160000 1207.047869 1209.518107 1211.966438 1212.138682 1214.821672 1217.868513
60.260000 1210.765111 1213.101566 1215.834151 1215.914017 1218.669245 1221.624400
60.360000 1213.808990 1216.627211 1219.388538 1219.334744 1222.097578 1224.545080
60.460000 1216.672042 1219.801798 1222.776906 1222.554010 1225.184923 1227.632246
60.560000 1220.717134 1223.273297 1225.718887 1225.579906 1227.856326 1230.119315
60.660000 1222.635621 1225.655358 1228.083203 1227.956360 1230.209293 1232.191120
60.760000 1224.673647 1227.540459 1230.015980 1229.862005 1232.173025 1234.019536
60.860000 1226.985923 1229.535792 1231.797899 1231.680162 1233.940857 1235.694490
60.960000 1228.952008 1231.211639 1233.568901 1233.432757 1235.677002 1237.168978
61.060000 1230.942878 1232.964790 1235.279079 1235.167108 1237.311039 1238.818092
61.160000 1232.701513 1234.841128 1237.093555 1236.938170 1238.979880 1240.367936
61.260000 1234.700904 1236.891053 1238.987227 1238.813305 1240.752104 1242.098463
61.360000 1237.044348 1239.289590 1241.285773 1241.233811 1243.268107 1245.221197
61.460000 1239.783574 1241.882747 1243.756560 1243.798913 1245.713655 1248.222403
61.560000 1243.348750 1244.659958 1246.215936 1246.427441 1248.271868 1250.655915
61.660000 1245.760992 1247.053206 1248.905647 1249.037962 1251.012299 1253.162811
61.760000 1247.279440 1248.846715 1251.341044 1251.197833 1253.432074 1254.986137
61.860000 1248.601996 1250.451487 1253.351727 1253.088880 1255.361046 1256.733819
61.960000 1249.968323 1252.161103 1255.117661 1254.792045 1257.113141 1258.556822
62.060000 1251.394314 1253.798242 1256.675089 1256.376211 1258.654668 1260.075853
62.160000 1253.428490 1255.442467 1258.341614 1257.991595 1260.166875 1261.650062
62.260000 1255.171006 1257.314738 1259.890526 1259.626683 1261.734192 1263.050203
62.360000 1256.952099 1259.232040 1261.554924 1261.317347 1263.311161 1264.646586
62.460000 1258.945027 1261.300550 1263.351240 1263.176870 1264.966026 1266.528930
62.560000 1261.126502 1263.677704 1265.513035 1265.389400 1267.031468 1269.113574
62.660000 1263.862114 1266.014424 1267.710843 1267.777891 1269.603126 1272.028460
62.760000 1266.978021 1268.423239 1270.270194 1270.438742 1272.591134 1274.783122
62.860000 1269.082500 1270.586946 1272.520270 1272.734345 1274.979978 1277.176540
62.960000 1270.932225 1272.791305 1274.786651 1274.937007 1277.194134 1278.981758
63.060000 1273.174214 1275.038035 1277.054139 1277.055690 1279.276680 1280.814049
63.160000 1275.256459 1277.071447 1279.237730 1279.154044 1281.173442 1282.609201
63.260000 1277.926404 1279.712387 1281.579638 1281.500131 1283.259927 1284.624869
63.360000 1281.104777 1282.909708 1284.439998 1284.517081 1286.112464 1288.336869
63.460000 1283.966146 1285.727996 1287.746311 1287.996116 1290.499865 1293.403905
63.560000 1285.723680 1287.551342 1290.178685 1290.520201 1293.490781 1296.768499
