depth(m) lower_95(kyr) lower_68(kyr) median(kyr) mean(kyr) upper_68(kyr) upper_95(kyr)
14.820000 702.156775 702.988433 703.919232 703.927984 704.820790 705.835005
14.920000 705.212705 706.530647 708.223109 708.489260 710.222912 713.586407
15.020000 708.502633 710.001716 711.989716 712.245365 714.292879 717.762445
15.120000 712.310524 714.361012 716.453259 716.750677 719.144066 722.124114
15.220000 715.971832 718.405816 720.942078 721.197144 723.840243 727.545280
15.320000 720.252952 723.174324 726.156575 726.784844 730.308837 737.007623
15.420000 725.353003 729.042634 732.612088 732.984828 737.216016 742.042702
15.520000 729.609563 734.972113 739.327889 739.057485 743.168891 746.762677
15.620000 735.121733 740.403555 744.343724 743.987584 747.440456 751.223815
15.720000 740.608153 744.549749 747.977709 747.862692 751.121474 754.811983
15.820000 744.491295 748.130069 751.644047 751.561577 755.014607 758.136755
15.920000 748.355482 751.964161 755.413846 755.474432 759.020496 762.913857
16.020000 752.560101 756.293348 759.836319 760.023152 763.676046 768.007145
16.120000 756.862471 760.409470 764.446456 764.525632 768.533272 772.542750
16.220000 762.003560 765.520702 770.060678 769.988350 774.249332 777.551161
16.320000 766.536245 770.575708 774.782277 774.579224 778.339039 781.655149
16.420000 770.911574 775.241042 779.038276 778.813642 782.287592 785.118075
16.520000 777.281795 780.765375 783.665982 783.336748 785.859029 787.889154
16.620000 782.591363 785.988712 788.033528 787.803914 789.833903 791.384054
16.720000 788.021568 789.824469 791.562489 791.606769 793.398344 795.809973
16.820000 791.659085 793.316337 794.985153 795.333579 797.261506 801.015667
16.920000 794.887990 796.612434 798.685212 798.995179 801.369852 804.535394
17.020000 797.622399 799.899981 802.443721 802.634055 805.296648 808.326654
17.120000 801.007579 803.628317 806.545022 806.633661 809.450303 813.171067
17.220000 804.673966 807.712482 810.850890 811.230392 814.505579 820.076628
17.320000 811.708487 814.919582 818.833157 819.207819 823.260326 829.594049
17.420000 816.552188 820.213585 824.997791 825.252617 830.466117 835.955296
17.520000 820.468182 825.489464 831.009495 830.788225 835.897716 840.262017
17.620000 825.054761 830.907842 836.654873 836.154788 841.261788 845.476323
17.720000 830.326613 836.654973 841.554810 841.158569 845.569548 849.399128
17.820000 837.881034 842.391169 846.547908 846.255615 850.099517 853.612282
17.920000 843.598188 847.299943 850.886164 850.774961 854.397012 856.832978
18.020000 848.373762 851.503581 855.153486 854.877351 858.076253 859.885930
18.120000 852.478203 856.320997 859.281468 858.928918 861.520388 863.118519
18.220000 857.634769 861.836638 863.879814 863.566840 865.455462 867.219285
18.320000 866.550037 867.999091 869.710188 870.099322 872.295831 875.525666
18.420000 870.035121 871.660363 874.125397 874.195627 876.594128 879.584118
18.520000 872.854618 874.996696 877.531011 877.708699 880.352932 883.224268
18.620000 876.066270 878.542116 881.081290 881.218186 883.999549 886.606199
18.720000 879.057080 881.509152 884.393141 884.377172 887.147351 889.864977
18.820000 881.880101 884.629007 887.426281 887.423359 890.163149 892.868683
18.920000 884.877644 887.839754 890.432908 890.429289 893.136929 895.496229
19.020000 888.568302 891.226180 893.617463 893.625706 896.112927 898.686635
19.120000 891.934557 894.541045 896.977117 897.175768 899.590073 904.009657
19.220000 895.673706 898.067366 900.498587 901.090590 904.280963 909.192677
19.320000 899.360394 901.672903 905.003271 905.484277 909.721689 913.698920
19.420000 902.592391 905.594254 910.306665 910.160069 914.562732 917.282762
19.520000 905.708803 910.110758 916.869363 915.572274 919.590438 922.227997
19.620000 909.032142 913.581525 920.421129 919.262142 923.282629 927.209899
19.720000 912.463800 917.186578 923.591987 922.748278 927.002580 930.917394
19.820000 917.080376 922.373350 926.473545 926.337598 930.641964 934.188122
19.920000 923.494767 927.225289 930.584677 930.628811 934.405911 937.341247
20.020000 928.602114 932.185433 935.689202 935.536506 938.797236 941.823658
20.120000 934.122374 938.179289 941.291441 941.127652 944.178787 946.336317
20.220000 939.549990 942.735994 945.597520 945.248675 947.647980 949.587293
20.320000 944.764299 947.347169 949.449906 949.198203 950.968027 952.421252
20.420000 949.102275 951.022653 952.472121 952.428612 953.831542 955.150948
20.520000 952.785627 954.277135 955.503283 955.436852 956.547327 957.674324
20.620000 956.672460 957.916956 958.864538 958.955525 959.925610 961.665429
20.720000 960.258780 961.319278 962.562450 962.787513 964.201479 967.015796
20.820000 962.888348 964.235965 966.001986 966.307104 968.460856 971.206372
20.920000 965.870802 967.611010 969.698906 970.035571 972.403737 975.878537
21.020000 969.414712 971.467603 974.059761 974.538239 977.774168 981.899457
21.120000 972.224243 974.743954 978.114039 978.656413 982.627986 988.565188
21.220000 975.326188 978.313747 982.291712 982.658983 987.031740 992.914920
21.320000 978.804691 982.009844 986.447760 986.641892 991.150020 995.878790
21.420000 982.482964 985.842160 990.603916 990.563098 995.028844 998.962016
21.520000 985.854254 990.749994 994.873530 994.668284 998.731326 1001.925420
21.620000 990.392199 995.449527 999.322518 998.809147 1002.148118 1005.000784
21.720000 995.694912 1000.538269 1003.560477 1003.298198 1006.209464 1008.539212
21.820000 1000.596640 1004.332942 1007.236111 1007.061571 1009.849727 1012.902173
21.920000 1005.358181 1007.880184 1010.612438 1010.818360 1013.590219 1017.770509
22.020000 1009.524668 1012.155065 1014.969561 1015.549579 1019.524278 1023.594631
22.120000 1014.080060 1016.795169 1020.932250 1020.964871 1025.182972 1027.553147
22.220000 1018.346851 1023.232792 1027.069841 1026.332762 1029.406328 1031.225044
22.320000 1026.983928 1030.190522 1032.027572 1031.942449 1033.807036 1036.783759
22.420000 1031.885428 1033.668185 1035.584359 1035.767003 1037.842554 1041.000751
22.520000 1034.451538 1036.571575 1038.643195 1039.080382 1041.651399 1045.532984
22.620000 1037.197971 1039.339958 1041.851013 1042.275700 1045.324545 1049.739201
22.720000 1040.274627 1042.757496 1045.361199 1046.030842 1050.185300 1054.060798
22.820000 1044.054695 1046.626416 1049.928924 1050.494542 1054.992044 1057.882347
22.920000 1047.635995 1051.100529 1055.222799 1055.062371 1059.152810 1061.189150
23.020000 1052.936353 1056.673453 1060.164362 1059.681298 1062.426631 1064.109663
23.120000 1060.487897 1063.453684 1064.965902 1064.780298 1066.252540 1067.668462
23.220000 1066.078483 1067.401126 1068.702251 1068.701525 1069.998594 1071.317465
23.320000 1068.880141 1070.163921 1071.442870 1071.423069 1072.645309 1073.865044
23.420000 1071.517590 1072.808441 1073.954863 1073.932398 1075.024839 1076.247399
23.520000 1074.063734 1075.452151 1076.609921 1076.608063 1077.765976 1078.898465
23.570000 1075.537589 1076.876868 1078.031609 1078.061515 1079.224907 1080.666853
23.620000 1077.106014 1078.273906 1079.549881 1079.613018 1080.899789 1082.517484
23.670000 1078.713641 1079.929949 1081.354446 1081.556280 1083.015128 1085.700316
23.720000 1080.487285 1081.956612 1083.726964 1084.053347 1086.274048 1089.353239
23.770000 1082.545702 1083.962971 1086.263082 1086.640496 1089.295711 1092.477769
23.870000 1085.512518 1088.269667 1091.338551 1091.521525 1094.938139 1098.224992
23.970000 1089.382095 1093.008065 1096.798835 1096.443742 1099.869060 1102.214704
24.070000 1093.607811 1098.121462 1101.508179 1100.991984 1103.791758 1105.702507
24.170000 1100.201920 1102.987889 1105.426877 1105.240812 1107.575534 1109.464984
24.270000 1104.160697 1106.532862 1108.793792 1108.635188 1110.711306 1112.451248
24.370000 1107.683470 1110.146540 1112.274557 1112.256570 1114.315451 1116.764967
24.470000 1112.195451 1114.084668 1116.354626 1116.699715 1119.384855 1122.725647
24.570000 1116.460061 1119.068661 1122.758793 1123.001815 1126.682724 1130.574555
24.670000 1120.336312 1124.559245 1128.916523 1128.642106 1132.576489 1135.758880
24.770000 1126.008500 1130.909488 1134.650734 1134.462540 1137.761448 1142.279269
24.870000 1134.533742 1137.605541 1141.012857 1141.357958 1145.358060 1149.509054
24.970000 1139.588072 1142.973577 1147.356674 1147.228657 1151.449060 1154.520234
25.070000 1143.540500 1148.496053 1152.473104 1152.187354 1155.902552 1158.625176
25.170000 1148.821805 1153.596907 1157.152898 1156.850751 1160.116282 1162.926603
25.270000 1153.670145 1157.475695 1160.421493 1160.317292 1163.270935 1166.214152
25.370000 1157.070167 1160.563148 1163.364437 1163.372556 1166.238201 1169.746274
25.470000 1160.361270 1163.306119 1166.128016 1166.238462 1169.233614 1173.016025
25.570000 1163.452866 1166.142869 1169.110352 1169.265844 1172.386055 1176.583131
25.670000 1166.030325 1169.119469 1172.411670 1172.621786 1176.276686 1180.154405
25.770000 1168.878275 1172.082459 1176.085233 1176.154110 1180.232261 1183.732976
25.870000 1172.296965 1176.210697 1180.485950 1180.184812 1184.399273 1186.793669
25.970000 1176.906956 1181.323167 1185.338028 1184.867306 1188.316742 1190.208070
26.070000 1184.656084 1188.056203 1190.595185 1190.406960 1192.705627 1195.729764
26.170000 1191.580143 1193.397613 1195.766171 1195.922570 1198.353924 1201.207068
26.270000 1195.432638 1197.140027 1199.689421 1199.867463 1202.600112 1205.107854
26.370000 1198.515362 1200.478276 1203.708896 1203.647366 1206.405448 1209.518195
26.470000 1202.183571 1205.028697 1208.199273 1208.138414 1211.227498 1214.051551
26.570000 1205.993477 1209.996582 1213.372847 1213.121275 1216.331147 1218.839429
26.670000 1210.342634 1213.284945 1216.666852 1216.417296 1219.369132 1221.650667
26.770000 1213.926567 1216.632109 1219.903601 1219.596984 1222.314504 1224.366434
26.870000 1217.699843 1220.907672 1223.388522 1223.191119 1225.475808 1227.524125
26.970000 1222.265150 1224.543933 1226.731495 1226.705417 1228.868001 1230.848341
27.070000 1225.883335 1228.022389 1230.086683 1229.994878 1231.993414 1233.731437
27.170000 1228.937443 1231.119050 1233.255707 1233.089939 1235.040151 1236.377436
27.270000 1232.121047 1234.088379 1236.158578 1235.951225 1237.696702 1239.063824
27.370000 1234.945721 1237.283977 1239.095155 1238.889500 1240.414431 1241.686524
27.470000 1238.996104 1241.088726 1242.375737 1242.251005 1243.543686 1244.497079
27.570000 1243.509433 1244.799483 1245.906205 1245.989232 1247.205876 1248.680417
27.670000 1246.439086 1247.727433 1248.877843 1248.993674 1250.276573 1252.039119
27.770000 1249.133942 1250.285378 1251.580496 1251.719161 1253.145283 1254.723928
27.830000 1250.878301 1252.040359 1253.317254 1253.497668 1254.937451 1256.979217
27.870000 1251.821042 1253.295173 1254.668587 1254.852201 1256.426327 1258.828036
27.930000 1253.738378 1255.100388 1256.793592 1256.978511 1258.721203 1261.427745
27.970000 1255.062502 1256.550380 1258.359509 1258.493241 1260.478019 1262.975318
28.030000 1256.988797 1258.595840 1260.607176 1260.689843 1262.728118 1265.094537
28.130000 1260.529255 1262.449710 1264.703264 1264.887361 1267.233669 1270.621720
28.230000 1264.826137 1267.370877 1270.216713 1270.503204 1273.523834 1277.965936
28.330000 1269.301225 1272.417754 1275.807179 1275.843697 1279.499034 1282.063662
28.430000 1274.300996 1277.998342 1281.571730 1281.038891 1283.754471 1285.916609
28.530000 1282.294398 1284.402865 1286.426867 1286.789130 1289.196359 1293.425731
28.630000 1286.206653 1288.090496 1290.599250 1291.041607 1294.373293 1297.630218
28.730000 1289.179331 1291.361848 1294.646046 1294.787949 1298.359129 1300.908719
28.830000 1292.196321 1294.867816 1298.543049 1298.438627 1301.929938 1304.154977
28.930000 1295.615076 1299.019277 1302.602776 1302.204858 1305.248136 1307.205301
29.030000 1299.327762 1303.520736 1306.259801 1305.897561 1308.319825 1309.991915
29.130000 1305.296572 1308.186281 1310.244862 1310.026430 1311.868962 1313.598950
29.230000 1309.811374 1311.729081 1313.355321 1313.306549 1314.862760 1316.642242
29.330000 1312.844135 1314.855795 1316.320596 1316.274083 1317.681810 1319.420915
29.430000 1316.228797 1317.959329 1319.432464 1319.452358 1320.799653 1323.466355
29.530000 1319.415495 1320.984862 1322.569941 1323.016411 1325.000219 1329.442111
29.630000 1321.933756 1323.721691 1325.946504 1326.488065 1329.550171 1333.437956
29.730000 1324.607633 1326.825989 1329.804722 1330.182712 1333.726968 1337.545005
29.830000 1327.592222 1330.399372 1333.945696 1334.097531 1337.894720 1340.428751
29.930000 1331.484900 1334.742024 1338.484008 1338.151428 1341.398067 1343.157107
30.030000 1336.269188 1339.968693 1342.990148 1342.473959 1344.756977 1346.201089
30.130000 1342.877715 1345.183349 1346.808543 1346.684586 1348.231737 1349.817296
30.230000 1347.281185 1348.788082 1350.143244 1350.171709 1351.526973 1353.160272
30.330000 1350.219112 1351.591657 1352.967833 1352.990351 1354.434170 1355.995551
30.430000 1352.842980 1354.153220 1355.657721 1355.668783 1357.120968 1358.795483
30.530000 1355.071428 1356.955652 1358.640250 1358.657699 1360.211185 1362.137425
30.630000 1359.118997 1361.081125 1362.956338 1363.396538 1365.436103 1370.994901
30.730000 1362.923261 1364.653911 1367.494284 1368.065910 1371.560348 1375.419746
30.830000 1365.904080 1368.435435 1372.105540 1372.390120 1376.437714 1379.623394
30.930000 1369.037579 1372.563694 1376.828675 1376.725437 1380.839099 1383.572260
31.030000 1373.380553 1378.134956 1381.639977 1381.377686 1384.883509 1387.658100
31.130000 1379.883488 1383.469255 1386.076302 1386.075047 1388.948316 1391.785534
31.230000 1383.917853 1387.124035 1389.909097 1389.876035 1392.600668 1395.254697
31.280000 1386.628334 1389.412240 1392.066309 1392.049701 1394.670059 1397.142186
31.355000 1389.161711 1392.033598 1394.844716 1394.671610 1397.268448 1399.482302
31.430000 1392.444757 1394.818578 1397.332940 1397.301642 1399.776285 1401.877586
31.530000 1396.018216 1398.635610 1401.013852 1400.890519 1403.146182 1405.101035
31.630000 1400.930069 1403.417471 1405.551376 1405.525466 1407.530103 1410.405705
31.730000 1405.648143 1407.629296 1409.626501 1409.943362 1412.291322 1416.264202
31.830000 1409.402871 1411.199452 1413.741056 1413.989815 1416.759845 1420.004170
31.930000 1412.689506 1415.407426 1418.306703 1418.485497 1421.577300 1424.762918
32.030000 1416.343232 1419.366302 1423.229807 1423.062139 1426.320538 1429.723685
32.130000 1421.261909 1425.068873 1427.806162 1427.769488 1430.728197 1433.510964
32.230000 1428.061106 1430.676120 1433.269061 1433.260447 1435.889619 1438.011364
32.330000 1432.107424 1434.324461 1436.810379 1436.809334 1439.146874 1441.446094
32.430000 1435.195476 1437.320849 1440.015157 1439.813738 1442.134534 1443.963132
32.530000 1438.240121 1440.515724 1442.960333 1442.744654 1444.792611 1446.432205
32.630000 1441.585245 1443.948965 1445.860869 1445.706093 1447.477727 1448.929440
32.730000 1445.768995 1447.747326 1449.285718 1449.164437 1450.503479 1452.187350
32.830000 1450.011313 1451.337727 1452.658142 1452.763109 1454.070771 1456.508283
32.930000 1453.385276 1454.634381 1456.155022 1456.456766 1458.280335 1461.269747
33.030000 1456.271221 1457.810354 1459.817917 1460.086357 1462.493057 1464.980412
33.130000 1459.363758 1461.743867 1464.537694 1464.433392 1467.013497 1469.465442
33.230000 1464.834381 1467.784831 1470.232498 1470.030206 1472.331200 1474.751861
33.330000 1469.284054 1471.849664 1473.979981 1473.997111 1476.259229 1478.290027
33.430000 1472.565742 1475.047912 1477.160040 1477.105472 1479.245018 1481.047346
33.530000 1475.469045 1477.727287 1480.051629 1479.902440 1482.000737 1483.616854
33.630000 1478.462532 1480.480771 1482.732524 1482.576986 1484.599137 1486.138505
33.730000 1481.627534 1483.542619 1485.583206 1485.381267 1487.253236 1488.536565
33.830000 1484.904477 1486.841033 1488.615674 1488.529028 1490.106416 1491.698901
33.930000 1489.490498 1490.924967 1492.415568 1492.820237 1494.360799 1499.350927
34.030000 1492.888184 1494.350504 1496.864273 1497.524137 1500.988193 1505.566966
34.130000 1495.756885 1498.445066 1502.271294 1502.293673 1505.770354 1509.448530
34.230000 1499.752649 1503.862427 1507.538295 1507.276500 1510.687833 1513.974084
34.330000 1506.907840 1509.437310 1512.500492 1512.633080 1515.890826 1518.839097
34.430000 1511.872448 1514.355218 1517.427149 1517.420896 1520.427986 1522.683105
34.530000 1516.487055 1519.032947 1521.833699 1521.689330 1524.242413 1526.512729
34.630000 1521.100775 1524.009704 1526.291824 1526.125478 1528.274238 1530.061869
34.730000 1525.863123 1527.860421 1529.734926 1529.667680 1531.492972 1533.199062
34.830000 1529.663461 1531.117389 1532.800500 1532.850368 1534.546142 1536.240085
34.930000 1532.430388 1533.919461 1535.649627 1535.623136 1537.319060 1538.809733
34.960000 1533.288822 1534.833380 1536.570463 1536.522018 1538.177948 1539.788983
35.020000 1535.056687 1536.588285 1538.373193 1538.295765 1539.868562 1541.467628
35.060000 1536.424685 1537.853109 1539.650610 1539.574332 1541.171555 1542.658807
35.120000 1538.211930 1540.010539 1541.640647 1541.692161 1543.296272 1545.807674
35.160000 1539.548549 1541.606149 1543.334592 1543.449458 1545.302896 1548.475355
35.260000 1542.955008 1544.978292 1547.150334 1547.509546 1550.186504 1553.706053
35.360000 1546.357671 1548.320340 1551.310244 1551.699726 1554.972866 1558.960772
35.460000 1549.114342 1551.743718 1555.520075 1555.522188 1559.297838 1562.618397
35.560000 1552.210426 1555.312654 1559.352786 1559.218333 1562.894212 1565.977861
35.660000 1555.380879 1559.715326 1563.437302 1563.053269 1566.290864 1568.728250
35.760000 1559.438295 1564.673318 1567.476772 1567.085285 1569.602052 1571.759842
35.860000 1565.791316 1569.481179 1571.622730 1571.566931 1573.846373 1576.417189
35.960000 1570.189954 1572.667500 1574.827105 1574.966820 1577.332199 1580.625559
36.060000 1573.126315 1575.454145 1577.872860 1578.087285 1580.624800 1584.509795
36.160000 1576.032031 1578.592186 1581.323324 1581.537720 1584.753350 1588.791775
36.260000 1579.599126 1581.975657 1584.968389 1585.387218 1588.991613 1592.955188
36.360000 1582.757417 1585.584301 1589.128056 1589.398750 1593.188606 1598.154606
36.460000 1586.430825 1589.510936 1593.584783 1593.621486 1597.297407 1602.374785
36.560000 1590.705404 1594.236068 1598.112421 1598.419984 1602.799382 1607.131325
36.660000 1594.806752 1598.389700 1602.778817 1602.887853 1607.242485 1611.555493
36.760000 1598.716130 1602.448962 1607.355809 1607.236404 1611.719335 1617.056395
36.860000 1602.749023 1607.092723 1611.332409 1611.416772 1615.706023 1620.896759
36.960000 1607.318218 1611.590318 1615.704139 1615.736662 1619.870322 1624.258956
37.060000 1611.116318 1615.633588 1620.020045 1619.838095 1624.065267 1627.479255
37.160000 1615.070554 1620.102893 1624.057292 1623.847819 1627.839965 1630.513389
37.220000 1617.720814 1622.605520 1626.744636 1626.264858 1630.040568 1632.452445
37.240000 1618.547129 1623.401543 1627.549330 1627.051878 1630.790190 1633.127696
37.320000 1622.215103 1626.506308 1630.395293 1629.986289 1633.474300 1635.900600
37.420000 1626.059399 1630.497188 1633.876969 1633.563719 1636.767971 1638.890793
37.520000 1629.548362 1634.438355 1637.416483 1637.125226 1640.114729 1642.324846
37.620000 1634.293238 1638.620843 1641.006206 1640.865463 1643.289781 1645.899280
37.720000 1640.739355 1642.801912 1645.086821 1645.108379 1647.398171 1650.459815
37.820000 1644.179947 1646.103792 1648.503947 1648.766325 1651.487818 1654.741179
37.920000 1646.903740 1648.892862 1651.674037 1651.957004 1655.115026 1658.566835
38.020000 1649.364575 1651.758610 1654.686811 1655.029231 1658.402225 1661.860393
38.120000 1652.332189 1654.811555 1658.115008 1658.166756 1661.712871 1664.378143
38.220000 1655.120610 1658.313461 1661.852697 1661.765181 1665.230371 1667.591478
38.320000 1659.851299 1663.008697 1666.314959 1666.056297 1668.829429 1671.186573
38.420000 1666.592269 1669.945256 1672.425937 1672.546456 1675.203584 1679.154531
