depth(m) lower_95(kyr) lower_68(kyr) median(kyr) mean(kyr) upper_68(kyr) upper_95(kyr)
95.590000 2114.966450 2121.769347 2124.645597 2124.233844 2127.193525 2130.326168
95.710000 2118.150644 2124.162514 2126.567690 2126.257758 2129.008698 2131.881946
95.785000 2119.599475 2125.677869 2127.957673 2127.586123 2130.134251 2132.734086
95.860000 2121.752534 2127.149902 2129.216154 2128.937395 2131.314837 2133.837044
95.935000 2123.603078 2128.514484 2130.414550 2130.225929 2132.544384 2134.752832
96.010000 2125.900700 2129.815958 2131.731884 2131.504442 2133.742358 2135.930849
96.085000 2127.437470 2131.118298 2133.022694 2132.818302 2134.943974 2136.899758
96.160000 2129.875970 2132.334996 2134.279407 2134.117708 2136.306604 2137.943810
96.235000 2131.278131 2133.639871 2135.661363 2135.463247 2137.544485 2139.264472
96.310000 2132.638344 2135.024885 2136.974817 2136.749567 2138.751908 2140.564652
96.385000 2133.995854 2136.158384 2138.112735 2137.915312 2139.916893 2141.752039
96.460000 2135.212907 2137.267853 2139.188693 2139.009248 2140.997005 2142.763173
96.535000 2136.268707 2138.318629 2140.215175 2140.040186 2141.951690 2143.578382
96.610000 2137.305026 2139.353739 2141.308516 2141.093051 2142.970957 2144.569850
96.685000 2138.427724 2140.333918 2142.311411 2142.126559 2143.978941 2145.546468
96.760000 2139.379418 2141.434054 2143.343193 2143.145304 2144.954847 2146.312818
96.835000 2140.335333 2142.542862 2144.328965 2144.184329 2145.961508 2147.291969
96.910000 2141.461881 2143.610525 2145.363171 2145.219361 2146.894293 2148.226512
96.995000 2142.733507 2144.943535 2146.613189 2146.439299 2148.010835 2149.392830
97.080000 2144.440548 2146.389752 2147.848456 2147.769708 2149.106628 2150.510506
97.155000 2146.005376 2147.774701 2149.133463 2149.050777 2150.369479 2151.577025
97.230000 2147.482498 2149.156576 2150.401150 2150.344949 2151.582804 2152.788764
97.360000 2150.253487 2151.372550 2152.503561 2152.563583 2153.793446 2155.332332
97.435000 2151.362272 2152.460668 2153.648793 2153.762871 2155.061436 2156.640114
97.510000 2152.495470 2153.542575 2154.776674 2154.891796 2156.206526 2157.901038
97.585000 2153.394343 2154.489951 2155.892773 2155.935498 2157.332518 2158.860373
97.660000 2154.289131 2155.498930 2157.011390 2156.979064 2158.345620 2159.990289
97.735000 2155.253788 2156.565814 2157.935931 2157.993580 2159.475375 2161.001395
97.810000 2156.292898 2157.580300 2158.994104 2159.049798 2160.582093 2162.015362
97.885000 2157.224145 2158.679746 2160.187553 2160.184755 2161.761435 2163.069048
97.960000 2158.202420 2159.820927 2161.413367 2161.389152 2162.996402 2164.326795
98.035000 2159.382974 2161.018089 2162.590383 2162.637377 2164.307590 2166.096879
98.110000 2160.594905 2162.227056 2163.851258 2163.940737 2165.637892 2167.673418
98.185000 2161.719887 2163.513172 2165.188347 2165.281143 2167.103483 2169.501391
98.260000 2162.917541 2164.666548 2166.352528 2166.537568 2168.534611 2170.707211
98.335000 2164.031715 2165.771886 2167.515774 2167.726377 2169.843371 2172.089711
98.410000 2165.105992 2166.771121 2168.748127 2168.878462 2170.947544 2173.410932
98.485000 2166.240281 2167.950116 2170.038386 2170.088195 2172.292422 2174.651937
98.560000 2167.389421 2169.146423 2171.276895 2171.333728 2173.580309 2175.950002
98.635000 2168.373595 2170.209975 2172.436012 2172.521491 2174.834335 2177.124391
98.710000 2169.585853 2171.601780 2173.670262 2173.771394 2176.041650 2178.056711
98.785000 2170.806855 2172.808324 2174.983420 2174.991783 2177.194168 2179.155856
98.860000 2172.065733 2174.137953 2176.280202 2176.197472 2178.192328 2180.344091
98.935000 2173.503162 2175.490862 2177.523302 2177.466206 2179.316648 2181.443295
99.010000 2174.912972 2176.785622 2178.639738 2178.655389 2180.401536 2182.399358
99.085000 2176.438062 2178.047802 2179.739673 2179.853192 2181.541618 2183.671710
99.160000 2177.717955 2179.220841 2180.935653 2180.981276 2182.730547 2184.712229
99.235000 2178.808948 2180.365391 2182.027191 2182.097969 2183.903113 2185.735027
99.310000 2179.908627 2181.466215 2183.069575 2183.157367 2185.045688 2186.954371
99.385000 2180.927503 2182.517351 2184.113247 2184.199594 2186.034508 2187.850528
99.460000 2181.867305 2183.449570 2185.135953 2185.231203 2187.016019 2189.008461
99.535000 2182.802510 2184.555808 2186.211275 2186.278690 2188.165253 2189.976361
99.610000 2183.861531 2185.590235 2187.234038 2187.317602 2189.200171 2191.093402
99.685000 2184.919013 2186.612461 2188.260327 2188.367003 2190.175144 2191.949921
99.760000 2185.945210 2187.651383 2189.368665 2189.436160 2191.264762 2193.059851
99.835000 2187.170003 2188.717915 2190.431419 2190.523650 2192.329409 2194.306710
99.910000 2188.392399 2189.804820 2191.628010 2191.647079 2193.497991 2195.473511
99.985000 2189.392412 2190.990480 2192.799593 2192.855835 2194.749991 2196.725898
100.060000 2190.426567 2192.175910 2193.986820 2194.088492 2196.081041 2198.027998
100.135000 2191.655166 2193.453917 2195.232883 2195.362942 2197.439170 2199.384366
100.210000 2192.885718 2194.720380 2196.652812 2196.775052 2198.874427 2201.121897
100.295000 2194.473990 2196.172855 2198.330156 2198.440312 2200.587735 2203.356260
100.380000 2196.099439 2197.782061 2200.051173 2200.121441 2202.387270 2204.776493
100.510000 2198.455444 2200.435355 2202.645262 2202.697150 2204.997347 2207.284864
100.585000 2199.680278 2202.001960 2204.287078 2204.234112 2206.516990 2208.639601
100.660000 2201.230220 2203.539049 2205.778676 2205.753687 2207.998951 2209.969284
100.745000 2202.878792 2205.477039 2207.516568 2207.463685 2209.592682 2211.676453
100.830000 2204.770121 2207.240615 2209.206760 2209.181721 2211.206912 2213.278697
100.960000 2207.813682 2209.603539 2211.453554 2211.562257 2213.622803 2215.450946
101.035000 2209.094448 2210.931883 2212.787889 2212.861018 2214.870217 2216.649668
101.110000 2210.295031 2212.134041 2214.041408 2214.112744 2216.069570 2217.992944
101.185000 2211.430892 2213.166054 2215.252629 2215.269891 2217.249288 2219.172940
101.260000 2212.350758 2214.437637 2216.502128 2216.446323 2218.361143 2220.345707
101.335000 2213.447581 2215.581592 2217.729638 2217.634395 2219.658322 2221.693501
101.410000 2214.753332 2216.774533 2218.854661 2218.801270 2220.733561 2222.772925
101.485000 2216.058453 2217.873728 2219.908194 2219.928817 2221.840646 2224.380625
101.560000 2217.182442 2219.046197 2220.925238 2221.041691 2222.870556 2225.682488
101.635000 2218.423593 2220.143055 2222.021054 2222.160927 2223.967891 2227.060790
101.710000 2219.674565 2221.244357 2223.195485 2223.266439 2224.880379 2228.638991
101.785000 2221.051912 2222.398715 2224.429755 2224.438305 2226.050154 2230.156239
101.860000 2222.248544 2223.510762 2225.612805 2225.631307 2227.100274 2231.958793
101.870000 2222.375378 2223.667814 2225.780222 2225.800099 2227.308822 2232.253459
101.890000 2222.770993 2223.994589 2226.120641 2226.136854 2227.688915 2232.571731
102.010000 2224.579614 2225.783528 2227.909271 2228.070373 2229.883123 2234.509212
102.020000 2224.758837 2225.958630 2228.055188 2228.244668 2230.057179 2234.724724
102.160000 2226.574854 2228.635139 2230.412806 2230.593399 2232.323646 2236.907166
102.170000 2226.704485 2228.830440 2230.591504 2230.771194 2232.503716 2237.026939
102.310000 2228.415034 2231.348694 2233.216537 2233.249755 2234.837164 2238.912786
102.320000 2228.651939 2231.489092 2233.400262 2233.432451 2235.020972 2239.064657
102.460000 2231.004657 2233.906004 2235.885320 2236.013440 2237.966006 2241.864553
102.470000 2231.240822 2234.084502 2236.063463 2236.199844 2238.177061 2241.993502
102.545000 2232.683524 2235.337168 2237.436730 2237.604921 2239.769225 2243.228076
102.620000 2234.164071 2236.698517 2238.831094 2239.038884 2241.371332 2244.551413
102.695000 2235.957612 2238.265902 2240.610716 2240.775436 2243.356402 2246.064400
102.770000 2237.592115 2239.877487 2242.429569 2242.513394 2245.171514 2247.970699
102.845000 2238.803757 2241.333421 2244.161751 2244.123360 2246.925714 2249.781707
102.920000 2240.283305 2242.690996 2245.834996 2245.654298 2248.533057 2251.093818
102.995000 2241.449812 2243.925227 2247.362095 2247.198730 2250.156091 2253.321781
103.070000 2242.677917 2245.284697 2248.749520 2248.691594 2251.913041 2255.186376
103.145000 2243.952417 2246.860846 2250.134223 2250.164033 2253.391040 2256.698676
103.220000 2245.185418 2248.276242 2251.558725 2251.579497 2254.637047 2258.094153
103.320000 2247.005093 2250.398122 2253.421781 2253.493187 2256.547217 2259.960985
103.420000 2248.815026 2252.309612 2255.315783 2255.458002 2258.561329 2262.112062
103.520000 2251.461600 2254.200862 2257.236473 2257.426851 2260.706694 2264.279664
103.595000 2253.310955 2255.731296 2258.804602 2258.993195 2262.244163 2265.822709
103.670000 2255.351150 2257.389902 2260.375047 2260.598579 2263.752502 2267.524713
103.745000 2256.784025 2259.158653 2262.138716 2262.276436 2265.338340 2269.056813
103.820000 2258.318090 2261.010162 2263.856799 2263.958409 2266.856251 2270.304239
103.895000 2260.049347 2262.729702 2265.590885 2265.660807 2268.469650 2272.072119
103.970000 2261.599112 2264.646558 2267.370676 2267.391180 2270.115421 2273.298049
104.045000 2263.319006 2266.525573 2269.472038 2269.325463 2271.936447 2274.816056
104.120000 2265.595449 2268.468736 2271.447844 2271.298788 2273.950828 2276.512573
104.195000 2267.714044 2270.730998 2273.536489 2273.384060 2276.008809 2278.248113
104.270000 2270.424412 2273.253406 2275.692601 2275.590838 2277.978787 2280.449748
104.345000 2273.106642 2275.406795 2277.698132 2277.806136 2280.195872 2283.159440
104.420000 2275.260299 2277.265133 2279.646662 2279.806530 2282.363696 2285.277221
104.495000 2276.867507 2278.915622 2281.504051 2281.598273 2284.303476 2286.922010
104.570000 2278.682268 2280.818035 2283.378325 2283.447328 2286.114356 2288.374400
104.645000 2280.207170 2282.613828 2285.166277 2285.137051 2287.814991 2289.819527
104.720000 2281.615689 2284.208079 2286.824767 2286.790129 2289.390554 2291.295882
104.795000 2283.339450 2286.141171 2288.667528 2288.479997 2290.975213 2292.708600
104.870000 2285.383100 2287.934307 2290.419217 2290.180420 2292.327526 2294.008225
104.945000 2287.328356 2289.971558 2292.046025 2291.935351 2293.877523 2295.523123
105.020000 2289.430466 2291.926401 2293.869519 2293.722565 2295.537586 2297.237936
105.095000 2291.458633 2293.588697 2295.500630 2295.422042 2297.221218 2299.269089
105.170000 2293.077758 2295.172950 2296.990160 2296.998464 2298.958298 2300.865940
105.245000 2294.435072 2296.328024 2298.221258 2298.263223 2300.261954 2302.152565
105.320000 2295.835920 2297.443106 2299.372834 2299.465115 2301.460653 2303.519829
105.395000 2296.940358 2298.581323 2300.401741 2300.598513 2302.666410 2304.868095
105.470000 2297.883136 2299.610853 2301.514544 2301.705981 2303.893611 2305.958179
105.545000 2298.844214 2300.567325 2302.610240 2302.762382 2305.016333 2307.278059
105.620000 2299.930240 2301.524448 2303.644288 2303.841271 2306.102683 2308.449479
105.695000 2300.979871 2302.526392 2304.914431 2304.944943 2307.239001 2309.853533
105.770000 2302.060430 2303.569949 2305.892503 2306.047565 2308.400997 2311.076670
105.845000 2303.092100 2304.506937 2306.992645 2307.126007 2309.495444 2312.180034
105.920000 2303.929379 2305.549505 2308.176710 2308.269987 2310.694110 2314.050595
105.995000 2304.897709 2306.529541 2309.230404 2309.446104 2311.975139 2316.315580
106.070000 2305.774908 2307.504425 2310.369741 2310.625186 2313.404924 2318.273015
106.145000 2306.814369 2308.503665 2311.476927 2311.856104 2314.834204 2320.179612
106.220000 2307.854491 2309.555708 2312.808178 2313.167925 2316.388818 2322.525706
106.295000 2309.003760 2310.743544 2314.169673 2314.606202 2317.911330 2323.922316
106.370000 2309.985052 2312.087398 2315.686756 2316.047801 2319.638492 2325.361335
106.445000 2311.164272 2313.546791 2317.219671 2317.647089 2321.744855 2326.903954
106.520000 2312.303819 2315.091220 2318.773799 2319.224112 2323.655259 2328.847927
106.595000 2313.504526 2316.474340 2320.469159 2320.868487 2325.607711 2330.617453
106.670000 2314.531265 2317.932472 2322.098809 2322.404629 2327.122968 2331.748386
106.745000 2315.713273 2319.419335 2323.632547 2324.026644 2329.043001 2333.036579
106.820000 2316.929982 2320.919420 2325.368702 2325.663423 2330.574488 2334.310301
106.895000 2318.373464 2322.580763 2327.168226 2327.390633 2332.245749 2335.796826
106.970000 2319.786848 2324.368112 2329.030680 2329.088184 2333.917596 2337.366322
107.045000 2321.419798 2325.980727 2330.785384 2330.661948 2335.510419 2338.475761
107.120000 2323.247629 2327.651452 2332.273939 2332.148199 2336.813622 2339.851211
107.195000 2324.935081 2329.193905 2333.698008 2333.619852 2338.019611 2340.966985
107.270000 2326.587456 2331.105767 2335.303213 2335.169151 2339.492441 2342.211440
107.370000 2329.864148 2334.450239 2338.120800 2337.898351 2341.600045 2344.132019
107.470000 2333.910193 2337.516128 2340.789601 2340.515935 2343.629894 2346.030117
107.570000 2337.771796 2340.581012 2343.344913 2343.172709 2345.782204 2347.661879
107.645000 2339.846775 2342.375719 2345.110512 2344.822938 2347.212258 2348.976622
107.720000 2341.624144 2344.209262 2346.742858 2346.469349 2348.656017 2350.094266
107.795000 2343.285258 2346.135614 2348.332821 2348.104969 2350.051852 2351.302507
107.870000 2345.140241 2348.143943 2349.962209 2349.694466 2351.350442 2352.646808
107.945000 2346.911020 2349.508057 2351.283815 2351.042544 2352.546605 2353.913003
108.020000 2348.858319 2350.935520 2352.403407 2352.268965 2353.590758 2354.871513
108.095000 2350.555953 2352.143275 2353.481748 2353.424077 2354.733225 2355.980622
108.170000 2351.762171 2353.198666 2354.550708 2354.501310 2355.788960 2356.983462
108.245000 2352.863111 2354.193633 2355.446747 2355.476868 2356.787448 2358.141621
108.320000 2353.824640 2355.154691 2356.405483 2356.440736 2357.770976 2359.088036
108.395000 2354.677462 2356.131352 2357.393051 2357.389215 2358.676204 2359.989902
108.470000 2355.583396 2356.998427 2358.278283 2358.317143 2359.638339 2361.037458
108.545000 2356.400923 2357.898804 2359.248635 2359.231077 2360.590795 2361.862272
108.620000 2357.309786 2358.781559 2360.157858 2360.175848 2361.620286 2362.849450
108.695000 2358.415776 2359.701259 2361.059145 2361.123482 2362.560538 2363.730513
108.770000 2359.232584 2360.736251 2362.010537 2362.058944 2363.483435 2364.676299
108.845000 2360.066517 2361.648770 2362.947242 2362.986099 2364.470574 2365.619303
108.920000 2360.997108 2362.521000 2363.882793 2363.900656 2365.323985 2366.495888
109.026667 2362.195456 2363.642052 2365.061488 2365.086367 2366.552779 2367.708128
109.133333 2363.307340 2364.896398 2366.339561 2366.302382 2367.764729 2369.096381
109.240000 2364.592748 2366.079210 2367.569185 2367.520969 2368.926844 2370.300007
109.315000 2365.384865 2366.960294 2368.443801 2368.422702 2369.852547 2371.227457
109.390000 2366.349769 2367.867428 2369.353380 2369.340661 2370.755719 2372.145702
109.465000 2367.292995 2368.789656 2370.354618 2370.287459 2371.799149 2373.083899
109.540000 2368.177024 2369.761135 2371.294787 2371.262906 2372.725206 2374.195059
109.615000 2369.085694 2370.751982 2372.277939 2372.329012 2373.746951 2375.466312
109.690000 2370.138252 2371.727400 2373.387287 2373.416255 2374.872006 2376.735366
109.765000 2371.166201 2372.834418 2374.514693 2374.594179 2376.208310 2378.682234
109.840000 2372.227036 2373.914991 2375.585620 2375.796523 2377.522146 2380.848125
109.915000 2373.174595 2374.988616 2376.753555 2377.053268 2379.051885 2382.793879
109.990000 2374.240181 2376.123611 2377.977411 2378.335922 2380.516509 2384.572985
110.070000 2375.512629 2377.436458 2379.491609 2379.856262 2382.327927 2386.452495
110.140000 2376.607418 2378.635407 2380.891560 2381.289127 2384.068341 2387.908914
110.220000 2378.068828 2379.999932 2382.624345 2382.929114 2385.768527 2389.424668
110.290000 2379.362243 2381.454869 2384.263192 2384.431982 2387.401701 2390.870031
110.365000 2380.763652 2383.030043 2385.956515 2386.145493 2389.181278 2392.536675
110.440000 2382.076085 2384.772441 2387.770069 2387.933663 2390.963851 2394.308056
110.515000 2383.647466 2386.587921 2389.761784 2389.945153 2393.221389 2396.914694
110.590000 2385.325990 2388.506783 2391.892096 2391.941667 2395.297471 2398.927313
110.665000 2387.352319 2390.340610 2393.817564 2393.887811 2397.307453 2401.332558
110.740000 2389.140915 2392.178160 2395.722261 2395.756503 2399.261871 2402.854110
110.815000 2391.596030 2394.459508 2397.935100 2397.959483 2401.281557 2405.100895
110.890000 2393.396142 2396.436824 2400.085713 2399.954580 2403.207441 2406.695853
110.965000 2395.269917 2398.764577 2402.112669 2401.993609 2405.120920 2409.001794
111.040000 2396.962268 2400.748604 2404.095278 2404.036941 2407.064087 2411.608068
111.115000 2398.680724 2402.942838 2406.289084 2406.297474 2409.663424 2413.957674
111.190000 2401.108402 2405.275645 2408.629846 2408.688594 2412.230853 2416.479615
111.265000 2403.696355 2407.818713 2411.514894 2411.578064 2415.308230 2419.029334
111.340000 2407.457665 2411.262850 2414.619677 2414.542578 2418.136574 2421.021945
111.415000 2408.977687 2413.459257 2416.929883 2416.712642 2420.105425 2422.630361
111.490000 2411.289389 2415.820561 2419.279741 2418.817008 2421.954895 2424.036220
111.565000 2412.717643 2417.768695 2421.399415 2420.814618 2423.746657 2425.889728
111.640000 2414.585081 2419.909610 2423.152944 2422.644492 2425.420678 2427.291991
111.715000 2416.592985 2421.956925 2424.782119 2424.283216 2426.810088 2428.627462
111.790000 2418.627045 2423.783192 2426.299398 2425.819490 2428.250088 2429.797198
111.865000 2421.270550 2425.528452 2427.755058 2427.360215 2429.465039 2431.061088
111.940000 2423.547566 2427.332433 2429.240499 2428.915621 2430.759286 2432.419245
112.015000 2426.592280 2429.224559 2430.953702 2430.808585 2432.398251 2434.497735
112.090000 2429.532100 2431.113905 2432.602700 2432.714437 2434.247074 2436.555922
112.165000 2431.118482 2432.780506 2434.317960 2434.508161 2436.232174 2438.836576
112.240000 2432.784573 2434.366919 2436.083931 2436.296091 2438.223503 2440.817514
112.340000 2434.260140 2436.164354 2438.211954 2438.406058 2440.578007 2443.586680
112.440000 2435.983856 2437.918878 2440.192001 2440.412871 2442.877593 2445.704927
112.540000 2437.554763 2439.747922 2442.320246 2442.476743 2445.212567 2447.965557
112.615000 2438.961599 2441.152414 2443.913390 2444.005068 2446.859386 2449.505992
112.690000 2440.249777 2442.659816 2445.541893 2445.589829 2448.516979 2451.308281
112.765000 2441.782254 2444.428561 2447.505680 2447.633449 2450.671465 2453.612833
112.840000 2443.616192 2446.546005 2449.916977 2449.836646 2452.995914 2455.745475
112.980000 2450.624912 2454.256129 2457.197980 2457.623362 2461.538988 2465.094198
112.990000 2450.977779 2454.476941 2457.485857 2457.873975 2461.812739 2465.259508
113.130000 2457.186484 2459.384585 2463.093109 2463.136147 2467.054431 2469.573811
113.140000 2457.440875 2459.644266 2463.319456 2463.380636 2467.256463 2469.809474
113.280000 2461.012006 2463.256527 2468.362518 2467.473237 2470.738505 2472.726752
113.290000 2461.299424 2463.501342 2468.605469 2467.711606 2470.938272 2472.879039
113.430000 2464.723044 2470.345614 2473.067704 2472.435520 2474.621263 2476.391210
113.440000 2464.946726 2470.599405 2473.309526 2472.680861 2474.890388 2476.649950
113.580000 2473.518724 2475.571008 2477.047227 2477.154955 2478.787671 2480.846728
113.590000 2473.703519 2475.794261 2477.308831 2477.402249 2479.084407 2481.124685
113.730000 2478.637424 2480.139265 2481.855794 2481.841863 2483.542637 2485.028350
113.740000 2478.889696 2480.358206 2482.069736 2482.083173 2483.730337 2485.324489
113.880000 2481.846573 2483.340150 2484.935086 2484.922760 2486.543842 2487.917537
113.890000 2482.080190 2483.551943 2485.119345 2485.117145 2486.708386 2488.082257
114.030000 2484.803502 2486.200693 2487.550866 2487.577230 2489.064948 2490.224812
