depth(m) lower_95(kyr) lower_68(kyr) median(kyr) mean(kyr) upper_68(kyr) upper_95(kyr)
34.600000 1531.064634 1534.560775 1538.108599 1539.129991 1544.221781 1551.847882
34.650000 1533.697928 1536.955052 1540.462080 1541.465571 1546.686441 1553.646560
34.700000 1537.439914 1540.006398 1543.478436 1544.396302 1549.529042 1555.749260
34.750000 1539.471441 1542.405237 1546.293058 1546.971967 1552.187188 1557.843775
34.800000 1541.865021 1545.012571 1549.023170 1549.616983 1554.666371 1559.393582
34.850000 1544.142259 1547.840682 1551.982430 1552.219193 1557.243815 1560.900425
34.900000 1546.208466 1550.318844 1554.856231 1554.762482 1559.560686 1562.808238
34.950000 1548.500064 1552.934215 1557.629420 1557.332512 1561.624473 1564.564889
35.000000 1551.331555 1555.934094 1560.573713 1560.070921 1563.814853 1566.524511
35.050000 1554.096736 1559.694060 1563.061284 1562.681050 1565.843473 1568.278707
35.100000 1557.831438 1562.544637 1565.430321 1565.083541 1567.797316 1570.272625
35.150000 1561.552802 1565.025878 1567.499839 1567.351559 1569.829050 1572.157740
35.200000 1564.489833 1567.307836 1569.514085 1569.482968 1571.908902 1574.250222
35.250000 1566.748567 1569.083662 1571.535364 1571.517517 1573.935709 1576.424076
35.350000 1570.293430 1572.464022 1575.198141 1575.060788 1577.624186 1579.832378
35.400000 1572.115490 1574.220891 1577.121685 1576.882821 1579.445712 1581.380703
35.500000 1575.733626 1578.439510 1580.713629 1580.541096 1582.677015 1584.558593
35.550000 1578.158462 1580.477894 1582.558826 1582.503020 1584.561738 1586.773018
35.600000 1580.661816 1582.575236 1584.739148 1584.654440 1586.677950 1589.222549
35.650000 1582.719925 1584.527342 1586.497622 1586.533000 1588.724009 1591.090611
35.700000 1584.286544 1586.149769 1588.145748 1588.237038 1590.408820 1592.833807
35.750000 1585.683919 1587.675414 1589.526882 1589.783720 1592.120387 1594.384922
35.800000 1587.092856 1588.995182 1590.973925 1591.281111 1593.850933 1596.324985
35.830000 1587.967313 1589.848665 1591.907872 1592.210414 1594.874025 1597.510323
35.880000 1589.254794 1591.237864 1593.342711 1593.629175 1596.295302 1599.375554
35.930000 1590.594467 1592.569520 1594.688277 1595.026279 1597.778258 1600.923060
36.030000 1592.894510 1595.040798 1597.177405 1597.623196 1600.333162 1603.744488
36.080000 1594.170787 1596.293404 1598.491345 1598.986015 1601.681146 1605.497391
36.130000 1595.626161 1597.651103 1599.834196 1600.389151 1603.204927 1607.308915
36.180000 1597.022079 1598.929846 1601.225492 1601.764992 1604.583956 1609.240711
36.230000 1598.221506 1600.232385 1602.731228 1603.254666 1606.466108 1611.052417
36.280000 1599.433626 1601.705211 1604.085336 1604.710048 1607.934041 1612.638310
36.380000 1602.312282 1604.332036 1606.992840 1607.538009 1610.807294 1614.966514
36.430000 1603.712837 1605.774028 1608.567783 1609.045162 1612.243791 1616.649080
36.480000 1605.248666 1607.283836 1610.074004 1610.592470 1613.689067 1618.028081
36.530000 1606.922256 1608.942610 1611.673701 1612.262060 1615.509890 1619.281237
36.580000 1608.784933 1610.685112 1613.484204 1614.062960 1617.458842 1621.050197
36.630000 1610.367144 1612.332609 1615.364526 1615.854896 1619.376689 1622.785290
36.680000 1612.135852 1614.202540 1617.262682 1617.732688 1621.176820 1624.425671
36.730000 1613.997629 1616.084118 1619.103163 1619.607819 1622.913426 1626.494353
36.780000 1615.626247 1617.991117 1621.174771 1621.518843 1624.721395 1628.429269
36.830000 1617.072742 1619.787188 1623.331778 1623.442534 1626.607340 1629.974853
36.880000 1618.542308 1621.682458 1625.227307 1625.409295 1628.483331 1631.941819
36.930000 1620.349975 1623.830027 1627.331159 1627.411370 1630.325263 1633.387281
36.980000 1621.959881 1625.968433 1629.438260 1629.423642 1632.324262 1635.661229
37.030000 1623.587251 1628.117207 1631.387023 1631.516431 1634.452825 1637.601555
37.080000 1625.736177 1630.403227 1633.653283 1633.755079 1636.791140 1639.574011
37.130000 1627.904437 1632.522668 1636.109613 1635.991475 1639.088509 1641.553062
37.180000 1629.452084 1634.693474 1638.523396 1638.133236 1641.212112 1643.316262
37.230000 1631.854571 1636.897506 1640.565422 1640.198746 1642.777227 1644.849603
37.280000 1634.364966 1639.425394 1642.526844 1642.249919 1644.521088 1646.476700
37.330000 1637.133475 1641.790338 1644.368942 1644.235036 1646.353028 1648.551130
37.380000 1641.785733 1644.392356 1646.465858 1646.738892 1648.682449 1651.420241
37.430000 1644.365784 1646.318936 1648.385999 1648.904221 1651.132670 1654.432568
37.480000 1646.283692 1648.318945 1650.782281 1651.351285 1653.978629 1658.525288
37.580000 1649.679412 1652.386750 1655.872626 1656.333074 1660.017279 1664.148399
37.630000 1651.104520 1654.597349 1658.609119 1658.839435 1662.809800 1666.382418
37.680000 1653.737089 1657.136389 1661.033839 1661.218511 1664.917789 1668.733781
37.730000 1656.291120 1659.795675 1663.357423 1663.571582 1666.928180 1670.858354
37.780000 1660.261324 1663.431601 1666.230651 1666.677449 1669.469692 1673.985175
37.830000 1663.101046 1665.915617 1668.438393 1668.956263 1671.638968 1676.244212
37.880000 1665.450249 1667.722411 1670.437531 1670.986206 1673.632397 1678.937703
37.930000 1667.677465 1669.629746 1672.268228 1672.983827 1675.882698 1682.410243
37.980000 1669.216481 1671.474010 1674.181784 1674.996672 1677.975417 1686.926302
38.030000 1670.730125 1673.148927 1676.022678 1676.992920 1680.359483 1690.366771
38.080000 1672.086236 1675.155339 1678.127528 1679.204706 1683.139526 1692.487153
38.130000 1673.784583 1677.010929 1680.492427 1681.540033 1686.219173 1694.658374
38.180000 1675.713472 1679.036828 1683.333057 1684.071065 1688.817401 1696.644776
38.230000 1677.868471 1681.571459 1686.172907 1686.642699 1691.240646 1698.523100
38.280000 1680.001994 1684.266780 1688.724903 1689.146010 1693.514188 1700.825198
38.330000 1682.142946 1686.951592 1690.825615 1691.339578 1695.641654 1703.263414
38.380000 1684.973080 1689.391614 1692.601683 1693.355816 1697.392015 1706.015270
38.430000 1688.139835 1691.299171 1694.210103 1695.277034 1698.818749 1708.928331
38.480000 1690.668307 1693.212727 1695.924813 1697.175676 1700.789045 1712.047848
38.530000 1692.635707 1694.938512 1697.365501 1699.052225 1702.574912 1723.440856
38.580000 1694.423683 1696.462701 1698.848698 1701.050156 1704.407429 1728.521915
38.630000 1696.099998 1697.975419 1700.381505 1703.294598 1707.095572 1731.536347
38.680000 1697.498956 1699.483017 1701.963536 1705.670711 1710.607661 1733.771922
38.730000 1699.021842 1700.847355 1703.373228 1708.851562 1726.468929 1735.947727
38.780000 1700.388687 1702.287216 1705.324870 1712.549393 1732.713905 1737.705244
38.830000 1701.739259 1703.841298 1707.668751 1716.445724 1735.691389 1739.347785
38.880000 1703.071628 1705.552020 1726.129868 1721.896201 1737.821584 1740.787513
38.930000 1705.023108 1708.044902 1734.729228 1727.743918 1739.588466 1741.984433
38.980000 1707.112116 1731.007477 1738.250595 1734.874627 1741.289696 1743.407423
39.030000 1717.883754 1736.762657 1740.366409 1739.137386 1742.968435 1744.979145
39.080000 1733.435665 1739.020931 1741.986614 1741.503868 1744.573956 1746.425726
39.130000 1736.931098 1740.823379 1743.684612 1743.317738 1746.128438 1748.015703
39.200000 1739.997482 1743.369308 1745.956776 1745.719358 1748.210597 1750.267410
39.250000 1742.274109 1745.081406 1747.657132 1747.471311 1749.835359 1751.984037
39.300000 1744.206166 1746.854897 1749.339110 1749.270703 1751.532399 1753.709745
39.350000 1746.253244 1748.780236 1751.335917 1751.150314 1753.356376 1755.741506
39.400000 1748.237706 1750.647341 1753.150962 1752.999318 1755.148989 1757.384186
39.450000 1750.331202 1752.566623 1755.045665 1754.956430 1757.124527 1759.613770
39.500000 1752.412712 1754.826506 1756.945884 1756.956228 1759.117363 1761.659140
39.550000 1754.451483 1756.922220 1759.067232 1759.071583 1761.375733 1763.683635
39.650000 1758.322988 1760.772039 1763.108882 1763.119307 1765.456082 1767.919369
39.700000 1759.862444 1762.491934 1765.132396 1765.090517 1767.589368 1769.787008
39.750000 1761.835423 1764.281608 1766.908919 1767.000089 1769.770552 1771.797472
39.800000 1763.524222 1766.179913 1768.855744 1768.847669 1771.647614 1773.749248
39.850000 1765.329294 1767.850026 1770.737575 1770.644143 1773.444951 1775.531433
39.900000 1767.235571 1769.622410 1772.692548 1772.484786 1775.209301 1777.454968
39.950000 1769.150836 1771.394014 1774.480462 1774.312379 1776.951753 1779.370525
40.000000 1771.028291 1773.322658 1776.400133 1776.202377 1778.848833 1781.288524
40.050000 1772.787420 1775.258387 1778.113468 1778.079341 1780.702636 1783.689444
40.100000 1774.292784 1777.116279 1780.010052 1779.911805 1782.567234 1785.435642
40.150000 1776.295052 1779.023164 1781.798416 1781.854821 1784.591700 1788.103165
40.200000 1778.357512 1780.921224 1783.833980 1783.909685 1786.662724 1790.849638
40.250000 1780.412217 1783.056334 1786.152065 1786.220735 1789.231281 1792.896752
40.300000 1782.781323 1785.680561 1788.754664 1788.945659 1792.364233 1795.866441
40.350000 1785.790741 1788.773563 1791.992506 1792.045250 1795.410912 1798.278181
40.400000 1788.632482 1792.140000 1795.501931 1795.240044 1798.223609 1800.690511
40.450000 1792.228399 1796.139547 1799.108962 1798.932735 1801.627580 1804.583539
40.500000 1796.337760 1799.763767 1802.513702 1802.483817 1805.335989 1808.148824
40.550000 1801.004974 1803.536311 1806.240223 1806.351332 1809.328998 1812.002102
40.600000 1803.904341 1806.318051 1809.321760 1809.344172 1812.365639 1815.501416
40.650000 1806.050189 1808.782044 1811.886902 1812.009803 1815.165451 1819.078745
40.700000 1808.168774 1810.996498 1814.346523 1814.577576 1818.204012 1822.005304
40.750000 1810.166946 1813.219886 1817.052811 1817.134171 1821.053555 1824.928285
40.800000 1812.125167 1815.418178 1819.819860 1819.661430 1823.727192 1827.723869
40.850000 1813.862245 1817.507695 1822.413322 1822.241533 1826.711270 1830.694121
40.900000 1815.628090 1820.098777 1824.967313 1824.931195 1829.408968 1833.562439
40.950000 1817.834363 1823.215448 1827.861978 1827.827868 1832.510881 1836.510670
41.000000 1820.142808 1826.184107 1830.922233 1830.826472 1835.533919 1839.535822
41.050000 1823.876747 1829.302395 1834.401347 1834.253179 1839.069446 1843.587320
41.100000 1827.178867 1832.370492 1838.172305 1838.177927 1843.822427 1848.986993
41.150000 1830.734251 1835.317333 1841.094853 1841.505853 1847.898612 1853.207790
41.200000 1833.582346 1838.635184 1844.762602 1844.933323 1851.197053 1856.799220
41.250000 1836.248591 1841.908217 1848.272459 1848.129194 1854.191810 1859.416328
41.300000 1839.290969 1845.267658 1851.399695 1851.257718 1857.140565 1862.257229
41.350000 1841.914846 1848.698817 1854.901183 1854.383110 1859.724067 1864.480910
41.400000 1844.480042 1852.038488 1857.575355 1857.236688 1862.633643 1866.648917
41.450000 1848.174686 1855.307795 1860.522015 1860.069079 1864.983881 1868.954242
41.500000 1851.374772 1858.795543 1863.363697 1862.925659 1867.412718 1871.192334
41.550000 1854.359444 1862.036711 1866.174338 1865.669834 1869.853381 1873.132512
41.600000 1858.095473 1864.841028 1868.742804 1868.311893 1872.100918 1875.133642
41.650000 1861.403861 1867.601364 1871.131156 1870.897295 1874.368873 1877.741976
41.700000 1866.401144 1870.512177 1873.718393 1873.625817 1876.985085 1880.018277
41.750000 1868.962733 1873.447030 1876.512075 1876.513129 1879.851667 1883.043279
41.800000 1872.545750 1876.367370 1879.420866 1879.441367 1882.745874 1885.917265
41.850000 1876.148801 1879.436009 1882.558486 1882.568686 1885.868450 1889.047810
41.900000 1879.038155 1882.226799 1885.527875 1885.464079 1888.809028 1891.845201
41.950000 1881.855862 1885.208838 1888.307663 1888.268461 1891.533697 1894.247401
42.000000 1884.472634 1887.911896 1891.215779 1891.036762 1894.078505 1896.770265
42.050000 1887.302656 1890.568015 1893.889599 1893.717929 1896.795201 1899.029543
42.100000 1889.920649 1893.463788 1896.685861 1896.329433 1899.253012 1901.136907
42.150000 1893.174536 1896.475375 1899.166771 1899.015783 1901.566980 1903.469666
42.200000 1896.552543 1899.246628 1901.773491 1901.580474 1903.848115 1905.993525
42.250000 1899.553536 1901.885153 1904.001927 1904.056710 1906.072832 1909.028480
42.300000 1901.967415 1904.116821 1906.078358 1906.316093 1908.227729 1912.441122
42.350000 1904.288891 1906.269638 1908.328964 1908.684616 1910.634225 1917.059332
42.400000 1906.826534 1908.792607 1910.832525 1911.470878 1914.450369 1919.484723
42.450000 1909.908728 1912.092417 1914.469194 1914.817782 1917.750319 1921.344456
42.500000 1912.998206 1915.996871 1918.513551 1918.557966 1921.269837 1924.163011
42.550000 1916.000428 1919.018557 1921.410868 1921.332437 1923.704138 1926.600962
42.600000 1919.099632 1921.389536 1923.679170 1923.650399 1925.833178 1928.815424
42.650000 1921.230846 1923.487126 1925.677419 1925.659025 1927.818786 1930.464753
42.700000 1923.163095 1925.272034 1927.551143 1927.537004 1929.712774 1932.185252
42.750000 1924.847958 1927.113919 1929.425509 1929.402794 1931.473876 1933.982507
42.800000 1926.962990 1928.972758 1931.236918 1931.289580 1933.441777 1936.302592
42.850000 1928.681438 1930.755229 1933.046500 1933.145601 1935.356332 1938.562361
42.900000 1930.649447 1932.494225 1934.840337 1935.049881 1937.352230 1940.706639
42.950000 1932.432138 1934.318575 1936.776462 1937.005818 1939.367885 1943.448740
43.000000 1934.050521 1936.144983 1938.723138 1938.986041 1941.541028 1945.995800
43.050000 1935.606378 1937.929071 1940.741086 1941.035883 1943.940160 1948.741316
43.100000 1937.652710 1940.012480 1942.640538 1943.199301 1946.269922 1952.150726
43.150000 1939.494678 1942.097241 1944.768065 1945.521035 1948.580139 1956.331623
43.200000 1941.518409 1944.059369 1946.934989 1947.955103 1951.457691 1963.026167
43.250000 1943.536666 1946.044732 1949.460940 1951.522483 1959.608264 1966.450237
43.300000 1945.407035 1948.223001 1951.600087 1954.694006 1964.596234 1968.548735
43.350000 1947.625237 1950.313608 1954.183231 1957.596176 1967.542418 1971.126840
43.400000 1950.397895 1952.920196 1960.779448 1961.141636 1969.855150 1973.400830
43.450000 1952.722091 1956.237145 1965.572523 1964.721864 1972.008447 1975.194173
43.500000 1955.461948 1960.528841 1969.524271 1967.966614 1974.253526 1976.853812
43.550000 1959.779246 1964.776256 1972.474537 1971.153174 1976.604506 1979.329949
43.600000 1963.568037 1967.924760 1975.079359 1973.932608 1978.858367 1981.965672
43.650000 1966.357825 1970.709357 1977.580000 1976.480256 1981.047409 1984.118341
43.700000 1968.671858 1973.766224 1979.642501 1978.877070 1983.048072 1986.691752
43.750000 1971.323823 1976.552168 1981.686960 1981.122426 1985.211525 1989.319150
43.800000 1974.045614 1979.754805 1983.858509 1983.577104 1987.410686 1991.414929
43.850000 1976.022594 1982.508870 1986.325797 1986.091184 1989.905310 1993.175285
43.900000 1978.028276 1985.037691 1988.723762 1988.446362 1992.397101 1995.431185
43.950000 1979.257136 1987.293373 1991.167188 1990.817283 1994.649779 1997.817079
44.000000 1981.078711 1990.177462 1993.987182 1993.525160 1997.267451 2000.507287
44.050000 1982.379087 1993.052080 1996.950938 1997.117378 2000.490873 2016.019511
44.100000 1983.720122 1998.336960 2002.991826 2004.882427 2015.624569 2022.388901
44.150000 1985.125279 2003.400320 2012.500843 2011.469001 2021.205937 2025.662073
44.200000 1986.529274 2014.688498 2022.922948 2019.935762 2026.581156 2029.274451
44.250000 1987.917300 2021.452973 2026.119989 2023.499945 2029.068176 2031.380404
44.300000 1989.558879 2024.451755 2028.380377 2026.070959 2031.090124 2033.082497
44.350000 1990.917218 2027.142064 2030.404283 2028.364172 2032.824753 2034.577949
44.400000 1992.259040 2029.293979 2032.378453 2030.201322 2034.445049 2036.112881
44.450000 1993.902504 2031.135679 2034.045654 2031.903078 2035.965925 2037.541262
44.500000 1995.219304 2032.875781 2035.725499 2033.533813 2037.552483 2038.963008
44.550000 1996.670973 2034.707991 2037.296717 2035.159700 2039.023389 2040.555937
44.600000 1997.990303 2036.532120 2038.895562 2036.754657 2040.521692 2042.230129
44.650000 1999.623826 2038.372328 2040.479595 2038.462724 2042.096306 2043.797356
44.700000 2001.186740 2040.129896 2042.114209 2040.110993 2043.655639 2045.292536
44.750000 2002.482289 2041.792039 2043.713724 2041.729434 2045.256526 2046.845634
44.800000 2004.950868 2043.389704 2045.251509 2043.353353 2046.791559 2048.469047
44.850000 2007.079967 2045.017545 2046.777718 2044.952348 2048.540015 2050.194153
44.900000 2009.438834 2046.468371 2048.273033 2046.486406 2049.978832 2051.764918
44.950000 2011.817628 2047.893453 2049.775700 2048.024560 2051.554594 2053.388032
45.000000 2013.866818 2049.277905 2051.283000 2049.585546 2053.087742 2054.890182
45.050000 2015.889263 2050.716679 2052.673912 2051.108205 2054.562997 2056.611764
45.100000 2018.213838 2052.146494 2054.220504 2052.745138 2056.130479 2058.385122
45.150000 2020.430651 2053.721280 2055.816223 2054.457510 2057.975437 2060.167764
45.200000 2022.526238 2055.401930 2057.468669 2056.271499 2059.813833 2062.330478
45.250000 2027.154615 2057.072279 2059.311723 2058.320719 2061.804753 2064.148232
45.300000 2038.555098 2058.786073 2061.253618 2060.300237 2063.745481 2066.042125
45.350000 2045.268423 2060.473776 2063.189124 2062.248242 2065.477023 2067.610428
45.400000 2052.662074 2062.419618 2065.176910 2064.476725 2067.439409 2069.175335
45.450000 2059.410960 2064.598782 2067.087726 2066.510149 2069.108353 2070.690493
45.500000 2062.974214 2066.479735 2068.847117 2068.386375 2070.740261 2072.058363
45.550000 2065.775554 2068.589420 2070.483116 2070.276449 2072.349704 2073.512663
45.600000 2068.505720 2070.501052 2072.235162 2072.063568 2073.858500 2075.303648
45.650000 2070.323841 2072.296133 2073.927851 2073.768501 2075.319951 2076.780316
45.700000 2072.537386 2074.082458 2075.570446 2075.479342 2076.878998 2078.284442
45.750000 2074.363477 2075.603663 2076.966756 2076.957814 2078.325436 2079.640558
45.800000 2075.699452 2077.005522 2078.328336 2078.360393 2079.691043 2080.955829
45.850000 2077.083112 2078.383659 2079.706562 2079.711222 2081.058715 2082.508570
45.900000 2078.231798 2079.591630 2080.954222 2081.000895 2082.384749 2084.143003
45.950000 2079.564842 2080.803894 2082.245245 2082.301567 2083.680646 2085.460360
46.050000 2081.705900 2083.171322 2084.652442 2084.726992 2086.318033 2088.006744
46.100000 2083.044552 2084.478810 2086.007338 2086.084274 2087.730497 2089.274040
46.150000 2084.300766 2085.872556 2087.339582 2087.443479 2089.113870 2090.913597
46.200000 2085.703504 2087.243843 2088.720591 2088.859518 2090.590521 2092.524615
46.250000 2087.116200 2088.589122 2090.046444 2090.237284 2091.937814 2094.226087
46.300000 2088.452554 2089.921207 2091.416888 2091.634196 2093.320226 2095.883799
46.350000 2089.885248 2091.342366 2092.908137 2093.097336 2094.745208 2097.491148
46.400000 2091.338213 2092.753445 2094.389035 2094.563616 2096.273150 2099.280438
46.440000 2092.608738 2093.934106 2095.685888 2095.886461 2097.774829 2100.684142
46.500000 2094.051004 2095.704994 2097.628595 2097.903483 2100.023290 2103.335100
46.550000 2095.595175 2097.330718 2099.394767 2099.709573 2102.039188 2105.808244
46.600000 2097.116795 2098.984764 2101.302372 2101.697534 2104.364903 2108.365850
46.650000 2098.518492 2100.637345 2103.329778 2103.611280 2106.596355 2110.380337
46.700000 2099.732684 2102.406201 2105.190969 2105.633490 2108.869285 2113.012715
46.750000 2101.123327 2104.208834 2107.407882 2107.718152 2111.183348 2115.559786
46.800000 2103.167511 2106.162137 2109.680404 2109.935468 2113.571940 2118.542960
46.850000 2104.954281 2108.265102 2112.087303 2112.264210 2116.298403 2121.463940
46.900000 2106.535633 2110.450542 2114.406733 2114.710870 2119.156832 2123.886162
46.950000 2108.565872 2112.736002 2117.218811 2117.258859 2121.921090 2125.887089
47.000000 2111.080603 2115.466837 2120.066529 2119.928836 2124.529631 2128.199004
