depth(m) lower_95(kyr) lower_68(kyr) median(kyr) mean(kyr) upper_68(kyr) upper_95(kyr)
14.315000 1491.963382 1494.305220 1496.089191 1496.028401 1497.778175 1499.579538
14.340000 1493.901995 1496.065010 1497.772172 1497.692843 1499.369828 1500.993887
14.365000 1495.614266 1497.761495 1499.508051 1499.429140 1501.134986 1502.929469
14.390000 1497.389937 1499.349649 1501.107548 1501.146120 1502.943482 1504.982718
14.415000 1499.546192 1501.121551 1503.046806 1503.306861 1505.631253 1508.792696
14.440000 1501.200934 1502.642737 1504.623476 1505.049749 1507.594664 1511.194501
14.465000 1503.215090 1504.691579 1506.866600 1507.254877 1510.002283 1513.487821
14.490000 1505.119399 1506.720933 1509.398712 1509.660749 1512.537960 1515.878722
14.540000 1508.695774 1511.579135 1514.776028 1514.679390 1517.886783 1520.308031
14.565000 1510.557208 1513.899617 1517.349076 1517.009053 1520.053474 1522.290300
14.615000 1516.428972 1520.234621 1522.466012 1522.128200 1524.058138 1525.774241
14.640000 1521.898554 1523.833360 1525.274484 1525.211626 1526.632647 1528.171027
14.665000 1524.528528 1525.964824 1527.272835 1527.277764 1528.624413 1530.149162
14.690000 1526.464694 1527.685408 1529.015505 1529.019113 1530.335284 1531.769681
14.715000 1527.932478 1529.091789 1530.479242 1530.486898 1531.879343 1533.149089
14.740000 1529.098085 1530.410541 1531.857572 1531.862974 1533.309342 1534.696599
14.765000 1530.305452 1531.723631 1533.135253 1533.158401 1534.656255 1536.069201
14.790000 1531.452006 1532.950951 1534.502813 1534.510980 1536.041189 1537.413278
14.815000 1532.602661 1534.323562 1535.938383 1535.962087 1537.587531 1539.494881
14.840000 1533.869721 1535.667034 1537.427131 1537.479310 1539.236241 1541.324807
14.865000 1535.163176 1537.085030 1539.010894 1539.127412 1541.094363 1543.665976
14.890000 1536.393193 1538.546062 1540.718217 1540.871788 1543.320753 1546.190193
14.915000 1537.730842 1540.062780 1542.574454 1542.847520 1545.589520 1549.508426
14.940000 1538.903167 1541.516339 1544.524060 1544.839085 1548.111557 1552.339246
14.965000 1541.081194 1543.216354 1546.720213 1547.056820 1550.692878 1554.980637
14.990000 1542.351418 1544.973284 1549.042725 1549.259035 1553.186087 1557.748341
15.015000 1543.702407 1546.898296 1551.182880 1551.346175 1555.396346 1559.736967
15.040000 1545.008000 1549.043210 1553.428805 1553.476515 1557.877357 1561.860517
15.065000 1546.666730 1551.098565 1555.553021 1555.550345 1560.152679 1563.694415
15.090000 1548.382500 1553.094669 1557.623555 1557.528893 1562.290337 1565.351805
15.115000 1550.396763 1554.947593 1559.821392 1559.576146 1564.095565 1567.111372
15.140000 1552.214436 1557.397685 1561.989565 1561.744961 1566.077633 1569.964300
15.165000 1554.401539 1559.960711 1564.236011 1564.109738 1568.444485 1573.415825
15.215000 1559.745007 1564.540228 1569.084548 1569.631971 1575.707405 1580.301077
15.240000 1563.172607 1567.318005 1572.415813 1572.763387 1578.901687 1582.246920
15.265000 1565.815084 1569.886124 1576.098799 1575.707845 1581.329961 1583.908671
15.290000 1568.253701 1573.326078 1579.637806 1578.693494 1583.476681 1585.925772
15.315000 1571.135781 1577.375613 1582.358573 1581.508566 1585.304010 1587.638375
15.340000 1574.881682 1580.622455 1584.325623 1583.878578 1587.114195 1589.882752
15.365000 1580.139997 1583.792110 1586.634225 1586.494263 1589.212593 1592.037480
15.390000 1582.867685 1585.920938 1588.585514 1588.590838 1591.349650 1593.962014
15.415000 1585.064434 1588.043451 1590.726129 1590.698863 1593.319929 1596.105716
15.440000 1587.093061 1589.968706 1592.739138 1592.613739 1595.256878 1597.684858
15.465000 1589.144578 1591.814491 1594.597356 1594.515806 1597.245960 1599.380329
15.490000 1590.681773 1593.805558 1596.447334 1596.302229 1598.858475 1600.855286
15.515000 1592.269869 1595.829013 1598.346489 1598.163930 1600.462263 1602.730736
15.540000 1594.346096 1597.734605 1600.210979 1600.062060 1602.312908 1604.563122
15.565000 1596.890479 1599.637182 1602.070428 1601.973279 1604.151892 1606.686421
15.590000 1599.528771 1601.849705 1604.169011 1604.054985 1606.156766 1608.487030
15.615000 1601.731281 1603.849723 1605.974381 1605.936055 1608.104959 1610.008074
15.640000 1603.518006 1605.781414 1607.831516 1607.739449 1609.624553 1611.550717
15.665000 1604.971397 1607.406889 1609.524663 1609.446087 1611.470204 1613.375939
15.690000 1606.660570 1609.196657 1611.197403 1611.150047 1613.195705 1615.111179
15.715000 1608.390745 1610.775650 1612.764209 1612.774553 1614.805626 1616.860071
15.740000 1610.113974 1612.171015 1614.253401 1614.249574 1616.345836 1618.392999
15.765000 1611.549750 1613.497923 1615.582354 1615.661813 1617.788935 1620.094680
15.790000 1612.858892 1614.800363 1616.986244 1617.048643 1619.147939 1621.995493
15.815000 1614.240675 1616.041004 1618.253077 1618.393902 1620.623572 1623.721356
15.840000 1615.182876 1617.305410 1619.604875 1619.739483 1622.188608 1625.042736
15.865000 1616.461124 1618.648301 1621.046845 1621.170744 1623.756684 1626.631588
15.890000 1617.594897 1619.909783 1622.623437 1622.600913 1625.229032 1627.885483
15.915000 1618.707046 1621.218590 1624.149829 1624.073607 1626.804103 1629.230194
15.940000 1620.232833 1622.628518 1625.769746 1625.590443 1628.467308 1630.759479
15.965000 1621.526989 1624.075534 1627.298727 1627.247877 1630.169375 1633.188424
15.990000 1623.210475 1625.529956 1629.166089 1629.135142 1632.144180 1636.936560
16.015000 1624.499969 1627.222397 1631.357250 1631.418465 1635.215278 1639.918665
16.040000 1625.953382 1629.034145 1633.779988 1633.705694 1637.994398 1641.756277
16.065000 1627.461649 1631.114296 1636.901996 1636.265066 1640.762793 1643.523963
16.095000 1629.636557 1635.493031 1640.686462 1639.694140 1643.426298 1645.655887
16.115000 1631.169177 1638.482414 1642.617671 1641.656725 1644.830537 1646.923538
16.140000 1633.744984 1641.850411 1644.582526 1643.906544 1646.493475 1648.525386
16.165000 1641.767978 1644.806002 1646.710749 1646.477464 1648.348776 1650.175965
16.190000 1644.713729 1647.079871 1648.760437 1648.716283 1650.464395 1652.120227
16.215000 1647.054654 1648.830099 1650.476971 1650.587079 1652.423122 1654.034501
16.240000 1648.975248 1650.359323 1652.107765 1652.144084 1653.956686 1655.564599
16.265000 1650.110902 1651.849163 1653.412512 1653.509564 1655.271471 1656.714793
16.290000 1651.327502 1653.087008 1654.732387 1654.771656 1656.501084 1658.085452
16.315000 1652.542097 1654.286479 1655.973134 1655.976754 1657.658596 1659.257607
16.365000 1654.872027 1656.626530 1658.192330 1658.236891 1659.864937 1662.010311
16.390000 1656.117413 1657.782487 1659.434284 1659.449595 1661.111600 1663.207936
16.415000 1657.252146 1659.050535 1660.738339 1660.732595 1662.362424 1664.501907
16.440000 1658.793151 1660.331353 1662.050743 1662.086652 1663.874311 1665.756359
16.465000 1660.120109 1661.748303 1663.510092 1663.612145 1665.554575 1667.651701
16.490000 1661.538955 1663.357285 1665.153936 1665.349878 1667.423625 1669.902090
16.515000 1663.448385 1665.081865 1667.111979 1667.328504 1669.621509 1672.179920
16.540000 1665.207448 1666.676037 1668.929767 1669.072199 1671.503383 1673.981908
16.565000 1666.537099 1668.229147 1670.549396 1670.677294 1673.093410 1675.307480
16.590000 1667.818615 1669.633009 1672.037913 1672.138446 1674.453585 1676.973689
16.615000 1669.289365 1671.131590 1673.421360 1673.518376 1675.794508 1679.077366
16.640000 1670.529427 1672.450373 1674.858026 1674.917947 1677.176185 1681.089342
16.665000 1671.614480 1673.758639 1676.094033 1676.243282 1678.428742 1682.867039
16.690000 1672.709083 1675.022509 1677.280349 1677.538369 1679.778919 1684.418062
16.715000 1673.988528 1676.244329 1678.490437 1678.867902 1681.308745 1686.054889
16.740000 1675.041285 1677.570827 1679.715425 1680.223407 1682.790848 1687.577712
16.765000 1676.241540 1678.798700 1680.955844 1681.556923 1684.321809 1689.470046
16.790000 1677.340691 1680.092677 1682.162197 1682.863232 1686.036037 1691.029358
16.815000 1678.636623 1681.456724 1683.392843 1684.205359 1688.051797 1692.907908
16.840000 1679.651146 1682.715659 1684.521521 1685.519094 1689.989259 1694.381401
16.865000 1681.092432 1683.766266 1685.678408 1686.869638 1691.904533 1696.598427
16.890000 1682.316040 1684.920904 1686.799908 1688.211389 1694.257235 1698.561192
16.940000 1684.765331 1687.088594 1688.767265 1690.803746 1698.459621 1703.579025
16.965000 1686.148638 1688.202821 1689.769170 1692.093340 1700.655853 1706.126870
17.010000 1687.762068 1689.945380 1691.408129 1695.096115 1706.868694 1717.889909
17.035000 1688.944971 1690.954315 1692.404069 1696.388791 1709.062553 1719.779059
17.060000 1690.168894 1692.006538 1693.433840 1697.672191 1711.048483 1722.239445
17.087500 1691.433780 1693.117325 1694.635480 1699.061895 1712.930477 1724.321158
17.112500 1692.703600 1694.295258 1695.767654 1700.365362 1714.402996 1726.652702
17.137500 1693.914034 1695.460018 1696.929589 1701.684975 1716.041595 1727.993157
17.162500 1695.306967 1696.576075 1698.144782 1703.020495 1717.812466 1729.351311
17.187500 1696.417783 1697.740898 1699.511657 1704.376009 1719.524273 1730.912745
17.212500 1697.706734 1699.018917 1700.823103 1705.758301 1721.735004 1732.785519
17.237500 1698.875691 1700.244647 1702.233021 1707.097032 1723.588418 1733.736631
17.262500 1700.018037 1701.534806 1703.563012 1708.451804 1724.993256 1735.151791
17.287500 1701.311041 1702.925276 1704.967920 1709.832701 1726.614645 1736.310372
17.312500 1702.492073 1704.130391 1706.313951 1711.143498 1728.144043 1737.442928
17.337500 1703.708033 1705.508661 1707.623734 1712.438465 1729.643350 1738.785347
17.365000 1704.976720 1706.726101 1708.902720 1713.852294 1730.871537 1740.761830
17.387500 1706.092913 1707.722958 1710.058857 1714.969638 1732.172548 1741.957719
17.412500 1707.083879 1708.963699 1711.315980 1716.255614 1734.071717 1743.353169
17.437500 1708.088651 1710.048366 1712.463391 1717.504232 1735.697493 1744.552737
17.465000 1709.258140 1711.392040 1713.738675 1718.932948 1737.556212 1746.552594
17.490000 1710.365669 1712.655858 1714.960142 1720.236732 1739.569840 1747.808892
17.515000 1711.676053 1713.965297 1716.218475 1721.582756 1741.247527 1749.122180
17.540000 1712.981390 1715.246267 1717.534872 1722.951166 1743.011294 1750.497324
17.550000 1713.513082 1715.859375 1718.051340 1723.511265 1743.701141 1751.403367
17.585000 1715.033055 1717.581484 1719.890085 1725.406975 1746.051605 1753.370649
17.610000 1716.016522 1718.831569 1721.175199 1726.778116 1747.968988 1754.757667
17.635000 1717.305761 1720.123994 1722.492467 1728.118568 1750.116695 1756.015336
17.660000 1718.505670 1721.238212 1723.721726 1729.453367 1751.906768 1758.087595
17.685000 1719.628350 1722.327341 1724.994465 1730.824368 1753.729023 1760.191425
17.710000 1720.846256 1723.474331 1726.175923 1732.169273 1755.481045 1762.678035
17.735000 1721.790062 1724.638359 1727.414333 1733.733025 1758.115608 1765.598074
17.760000 1723.074590 1725.758871 1728.577918 1735.152235 1760.314745 1768.534281
17.785000 1724.387240 1726.998122 1729.909696 1736.659851 1762.369679 1771.461232
17.810000 1725.582794 1728.154735 1731.324768 1738.155223 1764.791521 1773.290797
17.835000 1726.938091 1729.495044 1732.689623 1739.726170 1767.201244 1775.270396
17.860000 1728.343755 1730.844680 1734.209608 1741.380988 1769.515825 1777.509166
17.885000 1729.874681 1732.463311 1735.734266 1743.154681 1772.455771 1779.489855
17.910000 1731.395208 1734.054686 1737.201510 1744.947291 1774.738809 1782.550334
17.935000 1733.311912 1736.032179 1739.016653 1747.446465 1780.482839 1786.634576
17.960000 1735.019105 1737.764598 1740.872380 1749.274772 1782.836551 1788.252986
17.985000 1736.624758 1739.373403 1742.605866 1751.024913 1784.840241 1790.309135
18.020000 1738.827739 1741.671528 1745.000867 1753.358490 1787.318391 1793.379001
18.035000 1740.082848 1742.629005 1745.864495 1754.367537 1788.447035 1794.448991
18.085000 1742.916587 1745.757738 1749.415717 1757.807732 1792.499800 1797.322260
18.110000 1744.561925 1747.577397 1751.412161 1759.678155 1794.633750 1798.839291
18.135000 1746.914093 1749.780631 1754.005963 1762.032040 1796.895283 1800.824290
18.160000 1749.216833 1752.568362 1757.015512 1765.179980 1799.039312 1802.777521
18.185000 1751.962481 1756.261522 1761.253298 1768.565587 1800.709430 1804.163124
18.210000 1754.463808 1758.853365 1764.047607 1770.990604 1802.226655 1805.644155
18.235000 1756.942892 1761.587328 1767.123458 1773.486063 1803.415015 1807.105254
18.260000 1759.183360 1764.342812 1769.946604 1775.784329 1804.387941 1808.535792
18.285000 1761.324327 1767.458433 1772.391949 1778.078108 1805.438957 1809.652964
18.310000 1764.077719 1770.181184 1774.431605 1780.088233 1806.447593 1810.736369
18.335000 1767.058478 1772.567211 1776.443808 1781.991650 1807.583375 1812.074713
18.360000 1769.961586 1774.466396 1778.205746 1783.842063 1808.692840 1813.059702
18.385000 1773.128012 1776.570328 1780.039986 1785.794142 1810.216103 1814.299580
18.410000 1775.394473 1778.763937 1782.090632 1787.972512 1811.628107 1815.353013
18.435000 1776.910656 1780.536908 1783.899570 1789.840466 1812.802726 1816.473844
18.460000 1778.185541 1781.948587 1785.950664 1791.821261 1814.163582 1817.658370
18.485000 1779.455151 1783.442648 1787.935906 1793.637910 1815.395640 1818.639762
18.510000 1780.638922 1784.825106 1790.263698 1795.400996 1816.454736 1819.651727
18.535000 1781.810329 1786.242201 1792.953987 1797.145579 1817.564526 1820.433406
18.560000 1782.899585 1787.734905 1795.432187 1798.803466 1818.588742 1821.538329
18.585000 1783.937544 1789.263223 1797.520422 1800.384742 1819.456275 1822.490166
18.610000 1785.248168 1790.910928 1798.909373 1801.901358 1820.544002 1823.423626
18.635000 1787.004565 1793.338149 1800.293729 1803.486649 1821.454497 1824.225608
18.660000 1789.209777 1795.464912 1801.430878 1805.003596 1822.560978 1825.083326
18.685000 1791.492486 1797.315588 1802.811241 1806.512240 1823.520576 1826.228101
18.710000 1794.133825 1798.952232 1803.992096 1807.939425 1824.471374 1827.241020
18.735000 1797.286473 1800.526808 1805.323125 1809.339344 1825.345806 1827.989592
18.760000 1799.279192 1802.235972 1806.814848 1810.836343 1826.411945 1828.965993
18.785000 1800.705493 1803.525473 1808.101520 1812.245982 1827.326784 1829.909474
18.810000 1802.114976 1804.856292 1809.599488 1813.611222 1828.185417 1831.017158
18.835000 1803.412848 1806.243985 1811.281012 1815.022916 1829.064856 1831.977414
18.860000 1804.826432 1807.577339 1812.937013 1816.385818 1830.003783 1832.738052
18.885000 1805.981105 1808.892885 1814.820756 1817.783096 1830.960380 1833.821147
18.910000 1807.418270 1810.358945 1816.505448 1819.234342 1832.062650 1834.751885
18.935000 1808.971622 1811.639251 1818.233631 1820.647746 1833.102988 1835.862885
18.985000 1811.652423 1814.476436 1823.505915 1824.055043 1834.971387 1837.674766
19.010000 1812.841491 1816.113564 1825.732350 1825.631065 1836.102342 1838.632819
19.035000 1814.161260 1817.536842 1828.006341 1827.238167 1837.178985 1839.668511
19.085000 1816.778856 1820.234730 1832.852289 1830.492528 1839.466200 1841.677442
19.110000 1818.055089 1821.522000 1834.953914 1832.021746 1840.690334 1842.917189
19.135000 1819.723103 1822.851007 1836.778941 1833.513633 1842.007974 1844.060954
19.160000 1820.976311 1824.148863 1838.383189 1834.946469 1843.198566 1845.268617
19.185000 1822.252860 1825.321804 1839.924135 1836.220111 1844.270183 1846.479809
19.210000 1823.564635 1826.651184 1841.324257 1837.495292 1845.407629 1847.499558
19.235000 1824.656253 1827.790907 1842.567448 1838.731090 1846.578806 1848.554137
19.260000 1825.985358 1828.951250 1843.963001 1839.924513 1847.627629 1849.703883
19.285000 1827.308498 1830.380190 1845.349974 1841.176775 1848.698875 1850.544099
19.310000 1828.639621 1831.734165 1846.775171 1842.387060 1849.718529 1851.821185
19.335000 1829.930816 1833.182502 1848.006355 1843.604062 1850.707905 1853.125381
19.360000 1831.044826 1834.536861 1849.276770 1844.783337 1851.645498 1854.288387
19.385000 1832.266430 1835.873493 1850.452648 1845.977289 1852.578001 1855.607420
19.410000 1833.591003 1837.280328 1851.446730 1847.173469 1853.477116 1856.898023
19.435000 1835.051929 1838.759067 1852.466905 1848.413198 1854.375875 1857.988262
19.460000 1836.775351 1840.458826 1853.439782 1849.691683 1855.267663 1859.327141
19.485000 1838.549802 1842.184225 1854.364967 1850.947657 1856.104778 1860.526661
19.510000 1840.229966 1844.234988 1855.271093 1852.241968 1857.062102 1861.789942
19.535000 1841.689607 1846.334241 1856.150035 1853.484674 1857.971793 1862.787179
19.560000 1843.398072 1848.189688 1857.025691 1854.776366 1858.875423 1863.885985
19.585000 1844.929650 1849.892591 1857.955947 1856.027565 1859.769231 1865.123165
19.610200 1846.637103 1851.477254 1858.878427 1857.236560 1860.592912 1866.113841
19.635000 1848.047573 1852.960758 1859.813912 1858.349258 1861.505933 1866.972945
19.660000 1849.606952 1854.488506 1860.697528 1859.472874 1862.369679 1868.436085
19.685000 1851.151457 1856.021852 1861.637580 1860.586533 1863.261300 1869.537092
19.710000 1852.593946 1857.466601 1862.598764 1861.679493 1864.224292 1870.818226
19.735000 1854.017056 1858.854230 1863.570692 1862.774922 1865.096798 1872.560453
19.760000 1855.132101 1860.424894 1864.494840 1863.860917 1865.962208 1873.462611
19.785000 1856.216029 1861.736504 1865.515540 1864.969360 1866.959083 1874.403252
19.810000 1857.554093 1863.096845 1866.467438 1866.059873 1867.943442 1875.282525
19.835000 1859.179664 1864.571012 1867.480578 1867.205415 1868.946436 1876.084547
19.860000 1860.667465 1866.069801 1868.488064 1868.352762 1870.079548 1877.063752
19.885000 1862.702716 1867.316203 1869.584077 1869.548372 1871.200636 1877.761019
19.910000 1864.189609 1868.734365 1870.697874 1870.768369 1872.354208 1878.717821
19.935000 1866.020196 1870.029667 1871.864623 1872.018593 1873.615875 1879.685698
19.960000 1867.633210 1871.358003 1873.114527 1873.350744 1874.980296 1880.722828
19.985000 1869.250081 1872.650630 1874.439872 1874.720438 1876.409237 1881.839216
20.010000 1871.510827 1874.119329 1875.972659 1876.276331 1878.136072 1883.300611
20.035000 1873.122227 1875.442838 1877.454735 1877.714220 1879.736056 1884.693661
20.060000 1874.373572 1876.752683 1878.874016 1879.145711 1881.211222 1886.147006
20.085000 1875.583218 1878.204438 1880.217745 1880.609606 1882.829036 1887.871927
20.110000 1877.099754 1879.644524 1881.871525 1882.238400 1884.587367 1889.633432
20.135000 1878.659663 1881.145841 1883.540663 1883.901068 1886.672582 1890.986661
20.160000 1879.884569 1882.538071 1885.225653 1885.552837 1888.507863 1892.734471
20.185000 1881.521812 1884.082351 1887.059453 1887.331330 1890.579703 1894.328006
20.210000 1882.931689 1885.629126 1888.937608 1889.125854 1892.714652 1896.146813
20.235000 1884.192816 1887.100284 1890.771963 1890.805706 1894.586375 1897.551020
20.260000 1885.565682 1888.846289 1892.801223 1892.582720 1896.267129 1899.062976
20.285000 1886.848286 1890.664890 1894.711081 1894.320361 1897.978931 1900.180975
20.310000 1888.073215 1892.475197 1896.565815 1896.024529 1899.320989 1901.304919
20.335000 1889.834073 1894.586962 1898.475257 1897.789878 1900.685887 1902.348674
20.360000 1891.772639 1896.582660 1900.061653 1899.356637 1901.851785 1903.355988
20.385000 1893.424669 1898.279798 1901.439098 1900.760081 1903.003767 1904.295645
20.411000 1895.369786 1899.964693 1902.631558 1902.029765 1904.014952 1905.236875
20.460000 1898.932632 1902.267580 1904.490631 1904.052599 1905.643709 1906.888005
20.485000 1900.347657 1903.261857 1905.431929 1905.021695 1906.527733 1907.803207
20.510000 1901.454672 1904.290848 1906.308423 1905.935527 1907.393449 1908.749090
20.535000 1902.634274 1905.256118 1907.182812 1906.829926 1908.169595 1909.615357
20.560000 1903.675236 1906.156242 1908.032327 1907.701057 1909.016012 1910.414448
20.585000 1904.670329 1906.927668 1908.803075 1908.514242 1909.829824 1911.188348
