depth(m) lower_95(kyr) lower_68(kyr) median(kyr) mean(kyr) upper_68(kyr) upper_95(kyr)
103.930000 3711.132129 3733.309523 3749.045268 3747.129384 3759.774425 3769.906544
104.053333 3713.845977 3738.097988 3752.677906 3750.984204 3763.117477 3773.288535
104.176667 3719.790949 3743.423756 3756.384600 3754.756817 3766.347534 3776.898567
104.300000 3724.228639 3747.776945 3760.104670 3758.552819 3769.123983 3779.925370
104.435000 3730.591681 3752.625977 3764.035084 3762.670255 3772.329783 3783.388235
104.570000 3736.231570 3758.156191 3767.750829 3766.802248 3775.855244 3786.839563
104.645000 3738.760362 3760.810444 3770.102914 3769.185274 3778.204697 3790.870271
104.720000 3742.421932 3763.811249 3772.608925 3771.512504 3780.534070 3793.007778
104.830000 3747.069929 3767.149996 3775.827643 3774.845705 3783.614416 3796.264876
104.940000 3750.147083 3771.180543 3779.205735 3778.288006 3786.251126 3799.722850
105.080000 3756.958178 3775.434640 3783.333418 3782.450219 3789.940380 3802.859098
105.180000 3760.400885 3778.047891 3786.258145 3785.367123 3792.759416 3805.151105
105.280000 3764.489962 3780.716353 3789.062715 3788.218517 3795.215292 3807.702844
105.395000 3767.754186 3783.977163 3792.096735 3791.457840 3798.197928 3810.630474
105.510000 3773.042120 3787.076756 3795.309665 3794.764343 3801.645040 3814.035658
105.595000 3776.608108 3789.311188 3797.627915 3797.283289 3804.291330 3816.836977
105.680000 3781.626838 3791.912739 3799.972296 3799.830201 3806.712629 3819.234852
105.820000 3787.392183 3796.965345 3803.792574 3803.906428 3810.737732 3822.646272
105.950000 3790.630470 3801.033836 3807.538642 3807.776377 3814.580620 3826.599358
106.090000 3795.274542 3805.259653 3811.707538 3812.204775 3819.152712 3831.640468
106.170000 3798.096972 3807.572261 3813.902775 3814.749230 3821.899963 3835.181686
106.250000 3800.990598 3810.233183 3816.445972 3817.322511 3824.642515 3837.108426
106.325000 3803.513868 3813.038533 3819.067978 3819.762247 3826.942449 3839.003043
106.400000 3806.287768 3815.519276 3821.520609 3822.325970 3829.260949 3840.916905
106.540000 3814.300153 3821.353824 3826.532393 3827.372819 3833.645732 3845.060175
106.670000 3819.146078 3826.253420 3831.612634 3832.087173 3837.899820 3848.404929
106.780000 3823.977550 3830.377846 3836.278387 3836.447911 3842.002368 3852.480182
106.890000 3828.966767 3834.913198 3840.765537 3840.865441 3846.239562 3856.496565
107.020000 3833.409704 3839.876156 3845.588973 3845.558748 3850.937971 3861.627631
107.105000 3835.485664 3842.682950 3848.398686 3848.391570 3853.961077 3864.598628
107.190000 3837.813919 3845.173545 3850.999849 3851.129766 3856.998314 3867.109474
107.290000 3840.722013 3847.976460 3854.111503 3854.527777 3860.522115 3872.501800
107.390000 3843.500148 3851.165781 3857.496005 3857.953392 3864.528110 3876.656654
107.490000 3846.445562 3854.533902 3860.923706 3861.629019 3868.907054 3881.970565
107.590000 3849.063775 3857.659271 3864.398666 3865.198604 3872.718459 3885.644271
107.670000 3850.941413 3860.814134 3867.671252 3868.218167 3876.260809 3889.455242
107.750000 3853.587800 3863.316803 3870.930357 3871.385725 3879.433271 3891.898561
107.890000 3857.461067 3868.320367 3876.907158 3876.850179 3885.737007 3896.583193
108.000000 3859.482358 3872.401128 3881.543192 3881.495535 3891.401820 3901.398969
108.110000 3862.288071 3876.158581 3885.797052 3885.827881 3895.808635 3906.233673
108.220000 3865.363322 3879.800947 3890.299537 3889.863980 3899.884533 3911.164795
108.350000 3868.774175 3884.785418 3894.728362 3894.430317 3904.528467 3916.279768
108.480000 3872.968043 3889.564583 3898.978710 3898.723828 3908.361992 3919.802823
108.555000 3875.739413 3891.959304 3901.358270 3901.122920 3910.577434 3923.100533
108.630000 3878.307029 3894.339077 3903.439891 3903.525131 3913.628995 3925.347078
108.710000 3880.820241 3896.963475 3905.749734 3906.057782 3915.936661 3927.527167
108.790000 3882.755012 3899.277257 3908.607478 3908.427638 3917.962548 3929.622754
108.880000 3885.628724 3902.282707 3911.230216 3911.127177 3920.631159 3933.072371
108.970000 3888.860724 3904.854635 3913.970677 3913.869242 3923.287708 3936.251485
109.060000 3891.416990 3908.002974 3916.923748 3916.634925 3925.812555 3938.926078
109.150000 3895.046512 3911.023711 3919.492750 3919.461549 3929.237425 3942.464310
109.235000 3898.518721 3913.560081 3922.374068 3922.200247 3932.033199 3945.267772
109.320000 3901.946551 3916.088195 3924.989526 3924.981511 3934.833666 3948.328077
109.400000 3904.362998 3918.646594 3927.489731 3927.631394 3937.613328 3950.484922
109.480000 3907.740757 3921.384445 3929.954782 3930.206279 3940.010363 3952.689616
109.620000 3911.999580 3925.611406 3934.088773 3934.733006 3944.767926 3957.693887
109.695000 3914.967888 3927.922957 3936.478081 3937.162383 3946.824161 3959.713141
109.770000 3917.418669 3930.585680 3939.054133 3939.674700 3949.314295 3962.030336
109.910000 3922.594035 3935.405851 3943.580881 3944.272690 3953.989671 3965.960367
110.050000 3927.336254 3940.024465 3948.068090 3948.768290 3959.123951 3969.437641
110.190000 3933.334162 3944.100025 3952.264745 3953.095302 3964.122654 3974.101974
110.265000 3935.412268 3946.245107 3954.340770 3955.338910 3966.639737 3976.613499
110.340000 3937.985752 3948.322367 3956.633815 3957.524432 3968.481862 3978.365245
110.420000 3941.077025 3950.790699 3958.964043 3959.988906 3970.625714 3981.138224
110.500000 3942.936500 3952.814273 3961.211246 3962.386179 3973.460397 3983.271374
110.585000 3946.049174 3954.850375 3964.051828 3964.916338 3976.021715 3985.751375
110.670000 3948.791735 3957.263289 3966.741377 3967.473265 3978.674330 3988.143859
110.760000 3951.529472 3959.641939 3969.062899 3970.193119 3982.303139 3990.387278
110.850000 3953.535323 3961.814230 3971.795960 3972.833699 3985.343161 3993.145747
110.935000 3956.510544 3963.987438 3974.269248 3975.184429 3987.818117 3995.849148
111.020000 3959.027927 3966.010666 3976.435486 3977.460896 3990.652152 3998.471999
111.100000 3960.588637 3967.933290 3978.471877 3979.557036 3992.940671 4001.558222
111.180000 3962.418610 3970.032964 3980.174965 3981.619936 3995.759195 4003.936312
111.310000 3965.731460 3972.764066 3983.177712 3984.849647 3999.927886 4009.188599
111.440000 3968.828276 3975.578843 3985.971608 3988.080296 4003.651940 4014.073266
111.550000 3971.611460 3978.366668 3988.509409 3990.924559 4006.562923 4017.214009
111.670000 3974.241647 3981.429745 3991.327166 3993.988151 4009.089690 4020.605483
111.800000 3977.745799 3985.115655 3994.624248 3997.480068 4012.498400 4024.109790
111.880000 3980.145501 3987.561112 3997.135982 3999.673477 4014.619923 4026.100934
111.960000 3983.026455 3989.664998 3999.124885 4001.757191 4016.760509 4027.949373
112.045000 3986.122462 3992.568119 4001.114888 4004.050889 4018.378489 4030.074836
112.130000 3988.228841 3995.108099 4003.142699 4006.211847 4020.727895 4031.731323
112.210000 3990.226329 3997.348599 4005.338883 4008.313065 4022.342218 4033.672231
112.290000 3992.060329 3999.914457 4007.490230 4010.362384 4024.131406 4035.039385
112.430000 3996.207776 4004.349530 4011.283025 4014.167580 4027.379181 4037.639435
112.570000 4000.435239 4008.175631 4015.649372 4017.874346 4030.111753 4039.942575
112.686667 4004.158175 4010.976028 4019.041221 4020.876831 4032.795457 4042.262069
112.803333 4007.005744 4014.170626 4022.596269 4023.947403 4035.567774 4044.463631
112.920000 4010.362571 4017.879187 4025.973292 4026.948910 4037.900262 4046.212783
113.020000 4012.641925 4020.969473 4028.800064 4029.619964 4040.515883 4048.457734
113.120000 4016.103785 4023.691167 4031.396473 4032.250784 4043.053386 4050.238808
113.230000 4019.141257 4026.577367 4034.241892 4034.999985 4044.954671 4052.029113
113.330000 4021.841861 4029.249668 4036.843924 4037.449963 4047.258849 4054.118865
113.430000 4024.411578 4031.949715 4039.104178 4039.747631 4049.633790 4055.909350
113.530000 4026.140704 4034.545534 4041.460886 4042.193031 4051.638154 4058.074104
113.630000 4028.065458 4036.810653 4043.795075 4044.599474 4054.047135 4060.514866
113.730000 4031.256054 4039.676481 4046.270276 4047.147294 4056.485047 4062.243918
113.820000 4033.487886 4041.853156 4048.488692 4049.397794 4058.841814 4064.297216
113.920000 4035.792645 4044.663551 4050.801472 4051.841585 4061.283118 4066.684762
114.010000 4038.658189 4046.767016 4053.303136 4054.072606 4063.206503 4068.644243
114.090000 4040.372417 4048.614432 4055.287923 4056.037231 4065.055984 4070.241472
114.180000 4043.342870 4050.537012 4057.685216 4058.260207 4067.366794 4072.396324
114.260000 4045.304820 4052.311499 4059.787558 4060.175812 4069.166805 4074.405855
114.340000 4047.105702 4054.118766 4061.939333 4062.078131 4071.075125 4075.701990
114.420000 4049.569203 4055.740370 4063.785634 4064.003140 4072.867772 4077.648889
114.510000 4051.889333 4057.778655 4066.130645 4066.062078 4074.595214 4079.483382
114.640000 4055.055969 4060.834722 4069.201162 4068.996465 4077.127283 4081.909166
114.755000 4057.723808 4063.664940 4072.074056 4071.651556 4079.451528 4083.972268
114.870000 4060.436782 4066.379339 4075.163249 4074.470020 4081.755315 4085.806310
115.000000 4063.403397 4069.786161 4078.847170 4077.616701 4084.468130 4088.009583
115.130000 4066.859363 4073.234365 4081.994292 4080.768720 4087.268998 4091.345587
115.230000 4068.673251 4075.622558 4084.339737 4083.160359 4089.612342 4094.209868
115.330000 4070.906117 4078.419419 4086.521495 4085.609019 4092.137694 4097.675404
115.405000 4072.489911 4080.597031 4088.604049 4087.525160 4093.681054 4099.813547
115.480000 4074.797410 4082.598889 4090.361933 4089.409808 4095.460227 4101.392008
115.620000 4077.643313 4087.079286 4093.602856 4092.999976 4098.649874 4104.922502
115.700000 4079.233011 4089.355813 4096.010613 4095.296647 4100.882315 4107.252958
115.780000 4080.588666 4092.327458 4098.301809 4097.565520 4103.213921 4109.100068
115.910000 4084.299859 4095.710336 4101.418068 4100.945094 4106.439220 4113.270482
115.985000 4086.197055 4097.751306 4103.384783 4102.931141 4108.421931 4115.868535
116.060000 4088.536902 4099.422987 4105.122171 4104.866007 4110.646301 4117.968395
116.160000 4091.456735 4102.097606 4107.679546 4107.466651 4113.326215 4120.434373
116.260000 4094.463828 4104.455237 4110.296856 4110.011440 4115.798115 4123.036754
116.350000 4097.180114 4106.515255 4112.442709 4112.251697 4118.203462 4125.783071
116.440000 4098.916992 4108.645618 4114.528358 4114.444263 4120.671329 4128.077338
116.570000 4101.611873 4111.853222 4117.434299 4117.472145 4123.850615 4131.232566
116.700000 4104.386206 4114.785230 4120.549880 4120.604756 4127.429672 4133.701663
116.780000 4106.660915 4116.886155 4122.584584 4122.571455 4129.101479 4135.637251
116.860000 4108.475642 4118.528636 4124.350071 4124.517484 4131.495389 4137.250955
116.935000 4110.847830 4120.179376 4126.422147 4126.349232 4133.359089 4138.990868
117.010000 4113.156642 4122.131445 4128.073565 4128.239573 4135.203108 4141.259041
117.085000 4113.886041 4123.828654 4129.954872 4130.059732 4137.020260 4142.619142
117.160000 4116.506141 4126.112084 4131.675915 4131.876679 4138.687843 4143.887750
117.235000 4118.547104 4128.060869 4133.388479 4133.708103 4140.268728 4145.442951
117.310000 4120.753212 4129.918224 4135.334624 4135.583476 4142.072423 4146.986998
117.385000 4123.370478 4131.665963 4137.315130 4137.442034 4143.730391 4148.362504
117.460000 4125.035782 4133.481471 4139.109615 4139.254027 4145.283375 4149.854102
117.535000 4127.371999 4135.233481 4141.276271 4141.136309 4147.177639 4151.905014
117.610000 4130.051064 4136.900833 4143.434032 4143.013659 4148.885844 4153.549146
117.685000 4132.309177 4138.774481 4145.242614 4144.843116 4150.438113 4154.943770
117.760000 4133.921600 4140.510417 4147.120263 4146.645056 4152.150665 4156.397590
117.835000 4136.391755 4142.420028 4149.064801 4148.504403 4153.660825 4158.409872
117.910000 4138.116697 4144.510841 4150.869495 4150.428659 4155.534533 4160.608789
117.985000 4140.299766 4146.655628 4152.888492 4152.408413 4157.389457 4162.733519
118.060000 4142.516150 4148.517854 4154.862744 4154.350457 4159.049119 4164.453121
118.135000 4144.375679 4150.275362 4156.656385 4156.235852 4160.756271 4165.937592
118.210000 4146.496769 4152.494358 4158.563146 4158.201550 4162.761961 4168.660097
118.350000 4149.486409 4156.067536 4161.803530 4161.700344 4166.248736 4173.382787
118.407000 4150.756009 4157.360623 4163.231704 4163.133452 4167.746341 4176.035361
118.533500 4153.341652 4161.111710 4166.125071 4166.567106 4171.502434 4182.094961
118.660000 4156.315738 4163.939746 4169.268351 4169.986677 4175.536398 4190.019284
118.735000 4158.244979 4165.636678 4170.922836 4171.963533 4177.570060 4193.285972
118.810000 4160.369363 4167.861531 4172.715021 4174.023000 4179.816736 4197.029166
118.885000 4162.265862 4169.571963 4174.450174 4176.012739 4182.128444 4200.191836
118.960000 4165.085651 4171.388105 4176.055391 4178.002526 4184.518962 4202.886763
119.035000 4167.591162 4173.016549 4177.920533 4179.946993 4187.129672 4206.357962
119.110000 4169.449169 4174.743847 4179.671446 4181.961248 4189.569430 4208.710246
119.185000 4171.147816 4176.405961 4181.603278 4183.987862 4191.564096 4211.197246
119.260000 4172.871607 4178.016725 4183.531814 4186.015451 4194.352694 4214.724551
119.335000 4174.343987 4179.800898 4185.605690 4188.041765 4196.575599 4217.069165
119.410000 4175.726503 4181.428945 4187.699561 4190.224251 4199.512772 4220.088388
119.485000 4177.348900 4183.102374 4190.071215 4192.346520 4201.679412 4221.965426
119.560000 4178.791639 4184.683125 4192.185124 4194.491383 4204.366755 4223.894440
119.635000 4180.288668 4186.186532 4194.735316 4196.621444 4207.016408 4226.035234
119.710000 4182.149941 4187.970049 4197.125967 4198.843409 4209.277520 4227.584003
119.785000 4183.390071 4189.686035 4199.982866 4201.030453 4211.585162 4229.376317
119.860000 4185.066721 4191.398927 4202.333241 4203.318050 4214.125911 4230.971998
119.935000 4186.136306 4193.014428 4204.742926 4205.497567 4216.499101 4232.754275
120.010000 4188.277394 4194.826973 4207.325223 4207.771953 4218.776075 4234.122288
120.085000 4189.934802 4196.859755 4209.488027 4209.882088 4221.083183 4236.187838
120.160000 4191.325118 4198.791850 4211.561548 4211.968952 4223.191461 4237.893527
120.240000 4192.862395 4200.667603 4213.715805 4214.159255 4225.870802 4239.632805
120.320000 4194.446184 4202.879651 4215.792528 4216.338243 4228.091288 4241.955600
120.460000 4197.092625 4206.948481 4219.318526 4219.943255 4231.550660 4245.543526
120.535000 4198.560835 4208.954228 4221.124425 4221.854126 4233.505962 4247.950668
120.610000 4200.057751 4211.236859 4222.972629 4223.764784 4235.886261 4250.794920
120.685000 4201.922477 4213.319232 4224.596929 4225.715630 4237.808042 4252.981139
120.760000 4203.973483 4214.672853 4226.665140 4227.603394 4239.983719 4255.520345
120.835000 4205.003636 4216.367293 4228.220679 4229.469424 4241.925980 4258.913602
120.910000 4206.506333 4218.522687 4230.262303 4231.387615 4244.315990 4262.008822
120.985000 4208.039573 4220.486495 4232.815853 4233.371609 4246.360517 4263.176479
121.060000 4209.675183 4222.285630 4234.698790 4235.327716 4249.151966 4265.225642
121.140000 4212.042973 4224.102982 4236.684139 4237.384786 4251.149128 4266.813779
121.220000 4213.784262 4225.918356 4239.173959 4239.398023 4253.184773 4269.602153
121.360000 4216.462571 4228.965849 4243.493221 4243.142618 4256.713472 4273.996622
121.435000 4217.678537 4230.653534 4245.409736 4245.130994 4258.866065 4276.408236
121.510000 4219.247754 4232.302905 4247.428040 4247.085273 4260.828922 4277.744800
121.585000 4221.346356 4234.297915 4249.564095 4249.066553 4262.643426 4279.927648
121.660000 4222.611248 4236.197657 4251.721997 4251.002794 4265.211505 4282.116776
121.735000 4223.994817 4237.746517 4253.440257 4252.892930 4267.068324 4284.642539
121.810000 4225.438177 4239.254250 4255.474588 4254.801979 4268.947900 4286.242234
121.922500 4227.373172 4241.425405 4258.959494 4257.681833 4272.136207 4289.466134
122.035000 4229.456810 4243.640437 4261.987515 4260.570706 4275.834918 4293.176293
122.147500 4231.625430 4245.627972 4264.861865 4263.388599 4279.054354 4297.886014
122.260000 4233.529151 4247.966565 4267.973708 4266.321388 4282.120997 4303.063207
122.335000 4234.909413 4249.125918 4269.653776 4268.236387 4284.693330 4304.480455
122.410000 4236.386676 4251.104686 4271.361165 4270.092073 4287.019216 4306.376200
122.485000 4237.889430 4252.425418 4273.032216 4271.901428 4288.855013 4308.897601
122.560000 4239.683748 4254.180023 4274.878680 4273.799293 4290.803640 4310.873777
122.635000 4241.460887 4255.702741 4276.896901 4275.718224 4292.704261 4312.834503
122.710000 4243.071367 4257.557684 4278.991445 4277.650190 4294.619333 4315.504478
122.785000 4245.043688 4259.482131 4281.118699 4279.504478 4296.553084 4316.360953
122.860000 4247.836464 4261.588927 4282.808410 4281.456503 4298.397997 4318.293147
122.963333 4250.054621 4264.117070 4285.336711 4284.129165 4301.111885 4320.052164
123.066667 4252.314754 4266.465329 4287.702227 4286.834763 4303.748040 4321.979621
123.170000 4254.853955 4268.893841 4290.886306 4289.627458 4305.866177 4324.221666
123.300000 4257.404686 4272.920540 4294.625445 4292.977391 4309.843346 4326.528918
123.380000 4259.190743 4274.698973 4296.518063 4294.895075 4311.882895 4329.046066
123.460000 4261.494907 4276.597731 4298.435485 4296.841176 4313.486355 4331.265976
123.604643 4264.524900 4280.257934 4302.088367 4300.171669 4316.316104 4334.552826
123.749286 4269.010893 4283.900177 4305.044478 4303.514913 4319.669931 4338.106914
123.893929 4272.543749 4287.895018 4308.031900 4306.841736 4323.987835 4341.012860
124.038571 4276.430478 4291.283864 4311.139709 4310.175131 4326.975375 4342.827129
124.183214 4281.163287 4295.891670 4314.429178 4313.683444 4329.809338 4345.042060
124.327857 4283.607209 4299.988784 4317.645195 4316.957393 4333.534858 4346.869697
124.472500 4287.656009 4303.402989 4320.704096 4320.216736 4336.819239 4349.395723
124.617143 4290.750073 4307.956580 4324.118637 4323.565359 4339.870190 4352.004042
124.761786 4294.069663 4311.041428 4327.699126 4326.808801 4342.745287 4354.394655
124.906429 4296.059742 4314.740770 4330.872760 4330.064449 4345.613163 4356.908939
125.051071 4301.298295 4318.420449 4334.234603 4333.374871 4348.848821 4360.359427
125.195714 4304.645396 4321.766591 4337.176658 4336.591291 4351.746555 4363.527657
125.340357 4307.331193 4325.847387 4340.185771 4339.846512 4354.623858 4365.787341
125.485000 4310.486184 4329.525539 4343.798381 4343.142165 4356.939038 4369.284829
125.629643 4312.954900 4332.924033 4347.345561 4346.403114 4360.063321 4371.459654
125.774286 4316.301066 4336.765523 4350.570501 4349.689162 4363.412580 4374.516177
125.918929 4319.124015 4340.103597 4354.097076 4352.968661 4366.350619 4378.483782
126.063571 4320.841293 4343.497983 4357.061844 4356.294019 4370.458392 4382.766606
126.208214 4323.525686 4346.882007 4360.112407 4359.452475 4373.387961 4386.179973
126.352857 4325.615210 4350.258651 4363.485456 4362.648297 4376.917672 4389.252862
126.497500 4327.945466 4353.689106 4366.917212 4365.969587 4380.221290 4393.536576
126.642143 4330.486755 4357.219455 4369.937203 4369.239230 4383.645257 4396.626470
126.786786 4333.020582 4360.765582 4373.515276 4372.517837 4386.310022 4399.719459
126.931429 4335.045022 4364.298134 4376.639414 4375.838266 4389.449109 4403.863750
127.076071 4338.552706 4367.928083 4380.367391 4379.238561 4393.541797 4408.218991
127.220714 4340.899588 4371.525241 4383.713759 4382.589158 4397.206645 4411.182499
127.365357 4342.715589 4375.070133 4386.923658 4385.892393 4400.486924 4414.223663
127.510000 4344.679929 4378.436043 4389.996547 4389.164462 4403.731716 4418.159306
127.610000 4346.369904 4380.320975 4392.597360 4391.455766 4406.097435 4420.170828
127.710000 4349.818886 4382.167504 4394.650179 4393.878797 4408.523545 4422.722887
