depth(m) lower_95(kyr) lower_68(kyr) median(kyr) mean(kyr) upper_68(kyr) upper_95(kyr)
51.300000 2721.351411 2727.100572 2734.158082 2736.280527 2745.248706 2761.386032
51.400000 2726.867304 2731.045725 2738.543391 2740.420474 2749.245176 2765.511398
51.500000 2730.699617 2734.713240 2742.502759 2744.230013 2752.816221 2769.798794
51.600000 2733.814213 2738.117677 2746.433000 2747.893480 2756.052497 2773.954034
51.700000 2736.663822 2741.431688 2750.612418 2751.684403 2759.960749 2778.077154
51.800000 2739.636911 2744.590845 2754.589472 2755.432055 2763.810646 2782.184004
51.900000 2742.434782 2748.055947 2758.861171 2759.153912 2767.239562 2786.512418
52.000000 2745.477100 2751.650467 2762.465863 2762.987917 2770.823878 2792.607972
52.080000 2748.118074 2754.032954 2765.250313 2766.114185 2773.774110 2796.972466
52.200000 2751.948636 2758.101440 2769.741340 2770.848225 2778.141009 2828.828236
52.300000 2755.411643 2761.769474 2773.319834 2774.823980 2781.241215 2838.557052
52.400000 2758.610378 2766.592280 2776.870263 2778.912701 2784.359536 2846.848150
52.500000 2762.335446 2770.797158 2780.106174 2783.045913 2787.723180 2854.633495
52.600000 2766.245999 2775.193133 2783.488844 2787.484256 2791.494019 2861.970851
52.700000 2769.384647 2779.172965 2787.195402 2792.082351 2795.508469 2866.966300
52.800000 2773.770673 2783.566818 2791.280928 2797.338400 2801.603763 2872.978876
52.900000 2777.952855 2787.972433 2796.208475 2803.268149 2817.132029 2881.503796
53.000000 2783.104622 2792.362880 2802.911751 2810.573423 2829.650907 2886.362789
53.100000 2787.115166 2796.088485 2812.270707 2817.780719 2840.983015 2893.168033
53.200000 2790.507965 2799.967526 2819.192569 2824.744441 2851.560571 2900.293431
53.300000 2793.945672 2805.808915 2824.749481 2830.915897 2859.423808 2905.437280
53.400000 2798.061988 2812.494501 2829.571326 2836.830126 2867.315029 2912.402832
53.500000 2803.455098 2819.326938 2834.562631 2842.813959 2877.333352 2920.168239
53.580000 2807.464737 2824.464850 2838.375691 2847.441821 2882.085485 2924.896782
53.690000 2812.173297 2830.470147 2843.188348 2853.495188 2889.592853 2937.849524
53.800000 2817.268605 2836.068396 2847.939920 2859.783479 2898.628116 2944.881784
53.900000 2821.586040 2841.405766 2852.112761 2865.325587 2906.251875 2953.136191
54.000000 2825.970336 2846.815499 2856.589821 2871.251614 2917.008353 2959.632239
54.100000 2831.051700 2852.231946 2860.901515 2877.202900 2927.411662 2965.765072
54.200000 2836.645653 2857.813279 2865.094305 2883.308084 2937.270726 2971.385997
54.300000 2841.996996 2863.049375 2869.748331 2888.870618 2944.944982 2975.596109
54.400000 2847.869384 2867.710556 2874.346766 2894.251908 2952.724474 2984.850949
54.500000 2851.918673 2872.452911 2878.924730 2899.324563 2958.665646 2990.601611
54.600000 2856.488036 2877.172955 2883.570415 2904.548323 2965.419913 2997.990766
54.733333 2862.247420 2883.107713 2889.286001 2911.328823 2974.989526 3005.942315
54.866667 2867.954667 2888.933599 2894.825909 2917.754080 2982.428294 3013.383107
55.000000 2873.526784 2894.777389 2900.935368 2924.201602 2991.422794 3019.622981
55.080000 2878.673074 2898.526132 2904.372676 2928.280540 2997.142045 3023.578737
55.200000 2886.757568 2903.243792 2909.461305 2934.159686 3003.781189 3030.004825
55.300000 2894.923655 2907.117629 2913.766181 2939.082097 3010.319933 3034.781214
55.400000 2900.383659 2911.464207 2918.270099 2944.047736 3017.305653 3039.449514
55.525000 2907.320030 2917.074821 2924.128299 2950.003648 3025.038464 3044.450573
55.650000 2913.419814 2922.140759 2929.512724 2956.078720 3032.664193 3049.377278
55.775000 2920.314937 2927.428578 2935.109618 2961.900535 3040.266093 3054.007216
55.900000 2926.079585 2933.021828 2940.774817 2967.627175 3046.428891 3059.113298
56.000000 2930.060776 2937.477811 2945.390713 2972.313980 3051.350431 3063.227431
56.100000 2934.426454 2941.274622 2949.781079 2976.645980 3056.142325 3067.699837
56.200000 2937.818709 2945.170907 2954.029362 2980.792610 3060.685920 3070.665053
56.300000 2941.818525 2948.939966 2958.218426 2984.822017 3064.521858 3073.746128
56.400000 2945.218954 2953.003402 2962.712539 2988.868518 3067.779538 3077.592283
56.500000 2949.327276 2956.524218 2967.134633 2992.911449 3071.238404 3080.877293
56.600000 2952.918504 2960.464151 2971.611043 2997.025584 3074.620332 3085.007601
56.700000 2956.070622 2964.666949 2976.593469 3001.272039 3077.777828 3088.217744
56.800000 2959.777393 2968.317950 2981.393467 3005.523867 3080.862281 3092.539917
56.900000 2963.397621 2972.353608 2985.915491 3009.759456 3084.931753 3097.409514
57.000000 2967.346262 2976.724402 2990.259447 3014.167620 3089.491894 3101.252987
57.100000 2971.291936 2980.502731 2994.328457 3018.631304 3094.366176 3107.613986
57.180000 2974.670627 2984.503870 2997.899641 3022.152853 3097.647667 3112.958818
57.300000 2978.680350 2989.605340 3002.542703 3027.163093 3102.822922 3122.248609
57.400000 2982.903478 2994.190869 3006.793942 3031.300129 3106.148116 3128.136759
57.500000 2987.042192 2998.517982 3010.588435 3035.472930 3109.887318 3132.557567
57.600000 2990.853847 3002.828746 3014.495858 3039.395098 3113.100296 3136.587722
57.700000 2995.120236 3007.130987 3017.895826 3043.219393 3116.459790 3140.641473
57.800000 2998.893882 3010.945933 3021.711839 3046.989160 3119.490488 3144.538757
57.900000 3003.811111 3014.819951 3025.236737 3050.623762 3122.334341 3148.762695
58.000000 3007.356875 3018.771873 3028.707486 3054.366120 3125.301229 3152.370392
58.100000 3011.530337 3022.879228 3032.290949 3057.975790 3128.517027 3156.523349
58.200000 3016.212072 3026.565338 3035.593409 3061.665174 3131.990395 3162.252201
58.300000 3020.140545 3030.198037 3038.681266 3065.372075 3135.299936 3167.303204
58.400000 3023.923896 3033.682188 3042.095832 3069.038872 3138.628633 3171.302633
58.500000 3028.397800 3036.931716 3045.530257 3072.587573 3141.541740 3176.342609
58.600000 3032.428244 3040.569468 3048.555475 3076.248325 3144.545296 3182.286372
58.680000 3035.863983 3043.433493 3051.221188 3079.288372 3147.160307 3186.248751
58.800000 3040.542318 3047.552418 3054.775808 3083.728779 3151.181306 3193.712236
58.880000 3043.866315 3050.517235 3057.371018 3086.712221 3153.791309 3197.099156
59.000000 3048.142429 3054.296395 3060.949507 3090.938996 3157.910856 3201.244578
59.100000 3052.348949 3057.563143 3064.147271 3094.665137 3161.512451 3206.811233
59.200000 3056.461157 3060.936753 3067.416933 3098.483767 3164.914206 3210.631948
59.300000 3060.059213 3064.497567 3070.735684 3102.338645 3168.592359 3214.737860
59.380000 3062.869119 3067.336857 3073.517921 3105.518525 3171.655052 3220.066986
59.490000 3066.323295 3070.770124 3077.282012 3109.820341 3175.673681 3227.046129
59.600000 3069.941793 3074.435938 3082.218611 3113.999470 3179.711286 3233.458863
59.690000 3072.810712 3077.607829 3086.870814 3117.521301 3182.296723 3239.009243
59.780000 3075.569143 3080.904924 3092.020065 3121.245646 3185.317975 3242.358744
59.785000 3075.850912 3081.049785 3092.270569 3121.470660 3185.612337 3242.575852
59.900000 3079.876707 3085.102997 3097.106804 3126.227906 3189.250957 3247.109685
59.980000 3082.560042 3088.037083 3099.867604 3129.509120 3191.688676 3250.284352
60.100000 3086.946205 3092.430006 3105.065564 3134.465010 3195.614814 3256.392022
60.180000 3090.332811 3095.673418 3109.257617 3138.049754 3198.080915 3261.429169
60.300000 3094.295082 3101.114836 3114.476065 3143.182408 3201.797410 3267.663237
60.425000 3099.442014 3108.079156 3120.448248 3149.141602 3205.937509 3276.221893
60.550000 3105.301516 3115.370657 3126.210334 3155.350317 3209.943327 3285.216107
60.675000 3112.475820 3122.468573 3131.206687 3161.420616 3213.582865 3292.650760
60.800000 3120.446545 3128.859619 3136.568438 3167.155964 3217.478943 3298.752272
60.900000 3124.975809 3133.331337 3140.625090 3171.486460 3220.966193 3303.136041
61.000000 3129.357413 3137.309904 3144.708036 3175.721568 3224.711695 3307.409018
61.100000 3132.862436 3141.914044 3148.902451 3179.876773 3227.721930 3311.362977
61.200000 3137.030343 3145.898972 3152.395664 3183.918879 3231.486150 3315.556242
61.280000 3141.270778 3148.497755 3155.343075 3186.924025 3234.334602 3318.174594
61.400000 3146.891040 3152.903393 3159.658078 3191.332160 3238.876152 3322.441027
61.480000 3149.895497 3155.624399 3162.601967 3194.221882 3241.818072 3326.218367
61.600000 3153.606193 3159.152353 3166.770177 3198.312564 3246.145695 3331.980511
61.695000 3155.988872 3162.193738 3169.951222 3201.586479 3249.660856 3336.845424
61.790000 3159.007027 3165.388427 3173.380507 3204.925730 3252.680564 3341.444082
61.870000 3161.468913 3167.763626 3176.256773 3207.687962 3255.036218 3343.472445
61.990000 3164.232766 3171.385015 3180.291797 3211.731790 3259.860136 3348.956910
62.090000 3168.031377 3174.493635 3183.739680 3215.164757 3264.478938 3351.466113
62.170000 3171.151259 3176.987867 3186.577491 3218.000569 3267.616660 3353.659906
62.300000 3175.044062 3181.508742 3191.229473 3222.722500 3274.171055 3357.879898
62.390000 3178.048625 3184.240455 3194.449231 3226.212174 3279.249941 3361.082256
62.485000 3181.734137 3187.637522 3197.953111 3230.046005 3286.751852 3365.871584
62.580000 3185.141962 3191.016499 3201.183163 3233.939529 3296.839966 3369.897001
62.690000 3189.124799 3194.875471 3205.269481 3238.580426 3308.113298 3372.933690
62.760000 3192.090963 3197.431827 3207.989560 3241.389732 3311.577113 3375.567834
62.890000 3196.514995 3202.327534 3213.011991 3246.415032 3315.748188 3378.835407
62.970000 3199.329432 3205.631174 3216.395723 3249.625030 3318.150297 3381.015634
63.090000 3203.891859 3210.220580 3221.058985 3254.746913 3321.978014 3384.472235
63.180000 3206.703276 3214.392221 3224.956819 3258.903000 3325.032958 3387.034397
63.300000 3211.936415 3220.334874 3230.809258 3265.000889 3327.902075 3392.577499
63.400000 3216.982581 3224.958574 3235.692550 3269.618849 3330.462988 3396.296754
63.490000 3220.869385 3229.022618 3240.261711 3273.640998 3333.186357 3399.991746
63.600000 3226.058857 3234.027233 3246.095505 3278.441824 3336.178974 3404.205235
63.700000 3230.095424 3239.323332 3251.749509 3282.809566 3338.521629 3407.678005
63.800000 3234.665918 3243.774831 3257.499187 3287.251170 3341.081800 3410.513596
63.900000 3239.829621 3248.770686 3263.268713 3291.727961 3344.310094 3413.133511
64.000000 3243.903040 3253.040039 3268.634744 3295.774608 3347.147708 3416.580429
64.135714 3248.755587 3258.688909 3277.075845 3301.621205 3350.589662 3420.666151
64.271429 3253.471211 3264.789915 3285.049896 3307.492645 3353.805471 3423.297419
64.407143 3259.537299 3270.655693 3291.542896 3313.271035 3357.608196 3427.124464
64.542857 3264.649487 3277.789084 3298.509806 3318.917265 3360.941932 3431.851686
64.678571 3269.476795 3283.480569 3305.345028 3324.586252 3363.800590 3437.715397
64.814286 3273.551610 3290.010341 3312.730336 3330.227660 3367.124521 3442.867101
64.950000 3277.927569 3296.060576 3319.531681 3335.557318 3370.935402 3446.861309
65.085714 3282.052316 3302.429850 3326.313149 3341.023222 3373.778516 3452.395626
65.221429 3286.098370 3309.198605 3333.499971 3346.516592 3376.718954 3455.687542
65.357143 3290.581378 3315.720030 3341.044720 3352.035154 3379.863781 3460.318879
65.492857 3294.575189 3321.893548 3348.081455 3357.578212 3382.919322 3466.224396
65.628571 3299.714060 3327.377824 3354.986861 3362.809273 3386.806027 3472.326095
65.764286 3304.040061 3333.411108 3361.886766 3368.087494 3389.203111 3482.274649
65.900000 3308.325581 3339.300485 3367.396098 3373.391852 3392.209577 3489.179101
66.033333 3313.985041 3344.528475 3372.421527 3378.779161 3397.295843 3497.642886
66.166667 3317.868731 3350.094028 3378.342818 3384.264072 3402.850889 3502.337418
66.300000 3323.439407 3356.960531 3383.237249 3389.389935 3408.245254 3506.620305
66.433333 3327.624501 3363.606665 3387.739982 3394.586315 3417.103607 3511.319887
66.566667 3332.023721 3370.268787 3391.790680 3399.717865 3423.144214 3516.147866
66.700000 3339.185617 3376.059789 3395.902833 3404.946756 3429.947315 3521.204060
66.840000 3344.748932 3382.386324 3401.842534 3410.909303 3436.680839 3526.735098
66.980000 3350.525297 3389.834445 3407.490066 3416.759173 3446.547444 3529.744056
67.120000 3355.841181 3394.961111 3412.439882 3422.282749 3454.974587 3535.787552
67.260000 3361.275261 3400.288295 3416.936120 3427.807240 3461.908585 3541.873915
67.400000 3366.205592 3404.816512 3422.143290 3433.460750 3470.218594 3548.675587
67.533333 3370.868811 3409.062751 3427.276398 3438.675761 3475.162342 3555.653282
67.666667 3377.532708 3414.102001 3431.999386 3444.110652 3481.330059 3563.385116
67.800000 3385.752896 3418.306285 3437.016669 3449.481539 3487.415231 3573.405294
67.933333 3393.659475 3422.182435 3442.679797 3454.985582 3492.358743 3579.330316
68.066667 3399.231155 3426.820407 3448.399959 3460.326733 3498.349515 3584.825257
68.200000 3403.659682 3430.702701 3454.340043 3465.757112 3502.931642 3589.634988
68.340000 3411.863855 3435.596244 3460.614783 3471.475052 3507.130123 3595.590692
68.480000 3417.366747 3439.993118 3465.534977 3477.438197 3513.070850 3601.576090
68.620000 3425.302699 3445.287170 3471.492609 3483.285194 3517.930419 3606.501117
68.760000 3430.563731 3450.635221 3478.274834 3489.284466 3525.899750 3611.684160
68.900000 3436.631180 3455.264727 3484.076103 3495.111602 3531.682289 3615.760994
69.033333 3441.082760 3459.639886 3491.125308 3500.745180 3538.835821 3619.450786
69.166667 3445.367603 3464.041335 3499.110294 3506.251632 3545.962256 3625.151414
69.300000 3448.809115 3468.925693 3506.848690 3511.926301 3554.083228 3630.359240
69.433333 3452.989751 3473.673522 3513.550985 3517.606471 3559.646229 3634.092808
69.566667 3457.331660 3479.096788 3519.336584 3523.178767 3565.568606 3636.626875
69.700000 3461.079307 3484.860425 3525.002188 3528.782218 3571.830241 3640.936844
69.840000 3468.626554 3490.581677 3531.034104 3534.521544 3578.441549 3646.294599
69.980000 3472.607296 3494.949396 3536.867827 3540.227822 3585.335142 3649.510721
70.120000 3478.124382 3501.275025 3543.401333 3546.036840 3591.851579 3653.525074
70.260000 3482.784844 3507.779833 3548.934068 3551.909590 3597.864008 3655.754383
70.400000 3487.197211 3512.523347 3555.884044 3557.812250 3605.319354 3661.377326
70.523333 3490.838601 3517.680729 3560.767522 3562.840365 3609.742605 3664.700856
70.646667 3494.284290 3522.609874 3565.153947 3567.580307 3615.002237 3671.393771
70.770000 3500.301783 3528.109091 3569.853664 3572.599400 3619.198152 3675.339992
70.913333 3505.672360 3534.315917 3574.929778 3578.355659 3624.496523 3680.513710
71.056667 3511.250094 3540.508433 3580.920216 3584.240365 3628.705736 3684.431343
71.200000 3516.930611 3547.470650 3585.918367 3590.072479 3631.962673 3694.537451
71.340000 3521.378809 3553.264890 3590.827147 3595.322014 3636.465456 3701.387916
71.480000 3527.217264 3558.955524 3595.104408 3600.893688 3640.633555 3707.056609
71.620000 3535.995216 3565.665735 3599.763605 3606.343658 3644.725058 3713.382201
71.760000 3538.720845 3570.696942 3603.538249 3611.418683 3650.184944 3720.029009
71.900000 3543.518813 3576.020927 3607.862682 3616.571191 3654.914829 3724.307733
72.033333 3548.080128 3581.381934 3612.167541 3621.696731 3659.504626 3729.577442
72.166667 3557.909063 3586.711725 3616.866569 3626.868417 3665.979552 3736.727025
72.300000 3564.607655 3593.182186 3621.165931 3631.755486 3670.975987 3741.161734
72.433333 3572.309114 3599.930241 3625.896921 3636.782916 3676.548302 3744.368091
72.566667 3576.970869 3605.305147 3630.505210 3641.636499 3681.802635 3752.366778
72.700000 3581.963120 3609.811313 3635.434727 3646.473443 3686.349269 3758.348704
72.840000 3586.431922 3615.194511 3642.815829 3651.810551 3694.957594 3763.573372
72.980000 3590.418949 3620.217750 3650.722135 3656.993591 3701.464356 3769.602922
73.120000 3595.554968 3624.340311 3657.153072 3662.333985 3706.207794 3774.144285
73.260000 3599.407483 3628.431265 3663.200186 3667.489789 3710.920849 3776.585490
73.400000 3603.750882 3632.395846 3668.099903 3672.628190 3716.820865 3780.353789
73.528000 3607.134925 3636.012462 3673.214292 3677.407688 3721.405342 3784.887433
73.656000 3609.751618 3639.359152 3679.184828 3681.810519 3725.241367 3790.053632
73.793000 3613.982693 3643.052284 3683.436261 3686.298090 3729.632653 3794.444939
73.930000 3618.096757 3646.341294 3687.746621 3690.635198 3733.772033 3798.882082
74.067000 3621.721016 3650.562757 3692.037620 3694.875155 3738.159675 3802.312051
74.204000 3625.613665 3653.848990 3695.772063 3699.163135 3742.301047 3807.219442
74.341000 3629.614985 3657.036928 3699.422931 3703.246683 3747.360356 3815.025023
74.478000 3632.639508 3660.139847 3703.559269 3707.514715 3751.325006 3818.041493
74.615000 3636.818762 3664.550640 3707.839863 3711.812433 3755.569911 3822.094638
74.752000 3641.167496 3668.234001 3711.981905 3716.208762 3762.201282 3826.161949
74.889000 3643.988353 3671.674000 3715.861385 3720.347957 3767.331628 3832.492116
75.026000 3649.322085 3675.610000 3719.560192 3724.574035 3771.372026 3836.761377
75.163000 3653.304500 3678.931381 3723.880693 3728.955182 3776.497302 3841.361368
75.300000 3656.671665 3682.585241 3728.694284 3733.192556 3780.380924 3845.035766
75.433333 3660.773424 3686.402887 3732.388935 3737.478026 3785.155284 3851.015024
75.566667 3664.560986 3690.406593 3736.692868 3741.692976 3788.914283 3856.558413
75.700000 3668.256628 3694.335881 3740.654921 3746.127851 3795.281016 3861.693661
75.833333 3671.609640 3698.643702 3744.945393 3750.646946 3801.338557 3865.695021
75.966667 3675.120974 3702.902381 3749.434410 3755.057468 3807.604749 3869.344682
76.100000 3678.780057 3706.872784 3752.925208 3759.374421 3811.687717 3874.253462
76.240000 3686.312424 3711.079098 3758.475064 3764.057622 3817.041999 3877.347098
76.380000 3689.765299 3716.653269 3763.465493 3769.061478 3822.349066 3881.448379
76.520000 3692.984913 3722.666967 3767.065566 3773.931920 3830.775334 3885.985339
76.660000 3697.275513 3728.439586 3771.154526 3778.723818 3835.275609 3888.644695
76.800000 3701.833587 3733.701304 3775.781976 3783.755722 3842.705512 3892.349180
76.933333 3706.877533 3738.914153 3779.862702 3788.323609 3851.417418 3895.052474
77.066667 3711.366834 3742.790067 3783.574626 3792.913481 3857.915138 3896.784168
77.200000 3715.823306 3748.941818 3787.483627 3797.601596 3864.200233 3900.803504
77.333333 3719.032560 3755.600292 3792.081330 3802.234205 3870.903721 3903.782952
77.466667 3723.571867 3759.914780 3796.810496 3806.826737 3878.843144 3908.327700
77.600000 3728.344865 3765.378805 3800.774553 3811.439080 3885.366318 3911.347247
77.700000 3732.461603 3769.546378 3803.818208 3814.856464 3888.522597 3913.852937
77.790000 3735.574513 3772.413920 3806.586232 3818.087937 3891.262973 3915.987767
77.880000 3737.868199 3775.398383 3809.560059 3821.155676 3894.250972 3917.981004
78.020000 3741.521986 3779.259023 3813.879333 3826.191076 3898.684280 3922.127681
78.160000 3745.490083 3784.138634 3818.677849 3831.003430 3902.070541 3925.890922
78.300000 3749.931298 3787.908007 3823.716966 3835.901116 3906.300626 3930.601357
78.433333 3754.989484 3791.890435 3830.114961 3840.651992 3909.323430 3934.010494
78.566667 3757.599547 3795.188493 3836.352767 3845.167495 3914.343800 3935.815987
78.700000 3763.035581 3798.764353 3841.682677 3849.633342 3918.311690 3939.799951
78.833333 3769.064728 3803.410260 3846.282498 3854.147894 3923.427217 3943.616273
78.966667 3772.359362 3807.274111 3850.922757 3858.689227 3927.226025 3946.188011
79.100000 3779.362460 3810.959604 3857.204862 3863.224969 3930.959905 3948.965854
79.220000 3783.471801 3814.703636 3861.887806 3867.302605 3934.253502 3951.520350
79.340000 3788.849175 3818.705580 3865.766739 3871.537703 3938.058166 3953.644964
79.455000 3793.604520 3822.016629 3870.823686 3875.305522 3941.246872 3955.904517
79.570000 3797.811540 3825.167892 3874.429513 3879.061988 3944.768741 3958.646426
