depth(m) lower_95(kyr) lower_68(kyr) median(kyr) mean(kyr) upper_68(kyr) upper_95(kyr)
12.100000 2684.656357 2690.487635 2695.308623 2694.814061 2699.030679 2702.361743
12.120000 2687.087202 2692.725299 2697.057425 2696.663266 2700.600786 2703.649851
12.140000 2689.163080 2694.944535 2698.929004 2698.505161 2702.276139 2705.193020
12.160000 2691.497376 2696.705587 2700.730658 2700.311515 2704.054268 2706.620399
12.180000 2693.953039 2698.522183 2702.601294 2702.196835 2705.886348 2708.407247
12.200000 2696.065235 2700.516447 2704.356276 2704.057899 2707.698075 2710.411608
12.220000 2698.339904 2702.416695 2706.139572 2705.960898 2709.488936 2712.402001
12.240000 2700.318275 2704.376822 2708.042081 2707.843761 2711.285569 2714.279697
12.280000 2704.869102 2708.157567 2711.577240 2711.490820 2714.877622 2718.027642
12.320000 2708.949627 2711.913052 2714.872285 2715.051793 2718.410776 2721.484504
12.340000 2711.218173 2714.191508 2717.016238 2717.196864 2720.493030 2723.407110
12.360000 2713.371485 2716.287204 2719.562212 2719.676195 2723.108502 2726.427275
12.380000 2716.055242 2718.963924 2722.269302 2722.433895 2725.772755 2729.573315
12.400000 2718.169485 2721.546005 2725.190997 2725.248477 2728.627790 2733.009149
12.420000 2721.184896 2724.440864 2728.211233 2728.335806 2732.003103 2736.797583
12.440000 2723.663301 2727.104016 2731.114075 2731.308108 2735.390074 2740.581666
12.460000 2726.213716 2729.916538 2734.060943 2734.367692 2738.898871 2744.424602
12.480000 2728.766084 2732.193729 2736.949396 2737.219706 2742.264888 2747.577428
12.500000 2730.910135 2734.564522 2739.618800 2739.940615 2745.123714 2750.616791
12.520000 2732.708435 2737.053332 2742.341915 2742.684137 2748.294527 2753.760578
12.540000 2734.864618 2739.448444 2745.182785 2745.257919 2750.976701 2756.966284
12.560000 2736.612474 2741.998547 2747.938906 2747.930827 2754.016093 2760.001098
12.580000 2738.814707 2744.347935 2750.265309 2750.528547 2756.687392 2762.767507
12.600000 2741.274167 2746.355192 2752.851083 2753.049948 2759.639975 2765.784691
12.620000 2743.276815 2748.682079 2755.711006 2755.634110 2762.341653 2768.096908
12.640000 2745.574412 2751.051292 2758.572822 2758.164575 2764.698878 2770.578412
12.660000 2748.036739 2753.409062 2761.494346 2760.879448 2767.856546 2773.345942
12.680000 2750.400340 2756.051960 2764.034291 2763.650554 2770.666251 2775.277955
12.700000 2752.528000 2758.581858 2766.972932 2766.390143 2773.517842 2777.672223
12.720000 2754.956624 2761.845957 2769.645110 2769.110816 2775.764173 2780.003684
12.740000 2757.014782 2764.979846 2772.461708 2771.717875 2778.205159 2782.664231
12.760000 2759.908084 2768.010727 2775.096748 2774.458155 2780.645776 2785.298383
12.780000 2762.773473 2771.176234 2777.959194 2777.135328 2783.133042 2787.740778
12.800000 2765.573599 2773.845143 2780.734893 2779.791941 2785.389844 2790.131365
12.820000 2768.230052 2776.451773 2783.545735 2782.633949 2788.162492 2793.689270
12.840000 2771.071925 2779.058212 2786.274652 2785.510889 2790.894121 2797.703027
12.860000 2773.101796 2781.431519 2788.819754 2788.495728 2793.935518 2805.223507
12.880000 2775.433820 2784.191066 2791.344763 2791.547750 2797.266980 2816.341697
12.900000 2777.983851 2786.830660 2794.305267 2795.000986 2801.037119 2820.983963
12.920000 2780.179310 2789.785176 2797.954160 2799.530032 2811.893329 2825.090143
12.940000 2782.209813 2792.191988 2804.312633 2805.539767 2819.017756 2828.913786
12.960000 2784.264510 2794.946704 2816.780162 2811.987162 2824.275055 2833.917680
12.980000 2787.064061 2798.431884 2821.954941 2817.540645 2829.134372 2837.659110
13.000000 2789.306464 2804.560575 2825.964182 2822.328577 2833.670245 2843.846519
13.020000 2791.863459 2815.951976 2829.725317 2826.999547 2838.832891 2849.544449
13.040000 2794.050050 2821.597295 2833.651205 2831.708239 2843.596344 2853.773472
13.060000 2797.164154 2827.240829 2837.921977 2836.179304 2847.924591 2856.401317
13.080000 2800.339397 2831.898036 2843.512438 2840.984526 2852.108590 2860.030300
13.100000 2810.539495 2835.691568 2848.276939 2845.679611 2855.845297 2863.825922
13.120000 2817.003970 2840.588055 2852.541452 2849.785576 2859.183628 2867.154732
13.140000 2821.584830 2845.249425 2856.117230 2853.767611 2862.605265 2870.057930
13.160000 2826.394663 2849.438009 2859.419404 2857.381373 2865.889244 2873.634266
13.180000 2830.893583 2853.180656 2862.695003 2861.053024 2869.259007 2877.587716
13.200000 2837.204992 2856.657719 2865.774899 2864.461784 2872.737836 2881.785089
13.220000 2841.608944 2860.234218 2868.552379 2867.569459 2875.444425 2885.585593
13.240000 2847.575271 2863.934199 2871.457994 2870.865453 2878.702203 2889.905349
13.260000 2851.975992 2867.553666 2874.517559 2874.138779 2881.755739 2892.455707
13.280000 2854.451822 2871.542721 2878.166762 2877.770090 2885.757388 2895.486786
13.300000 2857.003101 2875.476092 2881.868312 2881.611140 2889.946706 2897.509555
13.320000 2859.505065 2878.853298 2885.912143 2885.418897 2893.566336 2899.914404
13.340000 2862.919725 2882.913821 2890.480070 2889.394031 2896.908076 2902.848509
13.360000 2867.059573 2886.840032 2894.885700 2893.411057 2900.651144 2905.070536
13.380000 2872.383652 2890.418749 2898.593408 2896.804852 2903.890680 2907.651097
13.400000 2877.095908 2893.869455 2901.863315 2899.969668 2906.936622 2910.064895
13.420000 2879.950769 2897.079647 2904.674535 2902.849158 2909.393851 2912.229301
13.440000 2882.731760 2899.848246 2907.618548 2905.706160 2911.653637 2914.495233
13.460000 2888.197153 2902.920035 2910.258174 2908.444541 2914.007769 2916.422575
13.480000 2891.908935 2905.727853 2912.773211 2911.012474 2916.242335 2918.488118
13.500000 2896.203476 2908.819801 2915.263163 2913.589278 2918.372410 2920.779160
13.520000 2901.333235 2911.282785 2917.583767 2916.001618 2920.599118 2922.594602
13.540000 2904.682555 2913.958967 2919.711420 2918.319087 2922.685346 2924.768632
13.560000 2908.165172 2917.018002 2921.865683 2920.608536 2924.591336 2926.743002
13.600000 2913.090137 2921.561190 2925.649300 2924.599448 2928.143453 2930.265797
13.620000 2915.693096 2923.706050 2927.622098 2926.672443 2930.029357 2932.505538
13.640000 2918.229390 2925.977252 2929.628219 2928.767258 2931.984389 2934.586017
13.660000 2920.654415 2928.236246 2931.626648 2930.939774 2934.132424 2936.592881
13.680000 2923.813448 2930.441218 2933.720837 2933.145215 2936.178132 2939.198812
13.700000 2926.422094 2932.708265 2935.770933 2935.519758 2938.755087 2943.166661
13.720000 2929.092181 2934.817678 2938.119842 2938.136696 2941.613238 2947.537541
13.740000 2932.518640 2937.299815 2940.532059 2940.850863 2944.797176 2951.490232
13.760000 2934.720561 2939.628743 2942.935633 2943.452362 2947.827429 2954.799798
13.780000 2937.625405 2941.793408 2945.134586 2945.953378 2950.628443 2957.700623
13.800000 2939.540387 2944.221267 2947.669456 2948.616895 2953.505010 2961.159077
13.820000 2941.963148 2946.725221 2950.190812 2951.192011 2956.657195 2963.855265
13.840000 2944.565332 2948.795295 2952.794589 2953.875508 2959.875575 2967.488687
13.860000 2947.181977 2950.992460 2955.589345 2956.506915 2962.629253 2970.201256
13.880000 2949.951144 2953.369198 2958.603878 2959.159728 2965.128258 2972.676026
13.900000 2952.410022 2955.486723 2961.533481 2961.927249 2968.129927 2975.247888
13.920000 2954.514506 2957.822614 2964.371727 2964.699760 2970.894180 2977.811909
13.940000 2956.513510 2960.362522 2967.458799 2967.571746 2974.001965 2980.806498
13.960000 2958.764488 2963.038023 2970.911408 2970.591226 2977.413170 2983.363251
13.980000 2961.024761 2965.889270 2974.461055 2973.803802 2980.833274 2986.293761
14.000000 2962.958281 2968.456628 2977.696312 2976.874362 2983.974204 2989.736340
14.020000 2964.742038 2971.322385 2980.867133 2979.905153 2986.623866 2992.825755
14.040000 2967.241928 2974.390654 2983.987732 2982.908255 2989.349447 2996.816484
14.060000 2970.190858 2977.639960 2986.978693 2985.854132 2992.207905 2999.837037
14.080000 2972.501714 2981.029580 2989.815525 2988.725325 2994.894021 3003.218320
14.100000 2975.289663 2984.587870 2992.348350 2991.573725 2997.605820 3006.373284
14.120000 2977.814829 2988.131938 2995.114347 2994.413737 3000.303424 3009.416536
14.140000 2979.967110 2991.456547 2997.618722 2997.244796 3003.030553 3012.151819
14.160000 2982.762719 2994.410705 2999.987139 2999.988994 3005.743141 3015.031550
14.180000 2986.030179 2997.686891 3002.362679 3002.838451 3009.083348 3018.766782
14.200000 2989.652525 3000.521970 3005.186284 3005.823957 3012.745801 3022.254051
14.220000 2994.008611 3003.163149 3007.994598 3008.646212 3015.639947 3024.691123
14.240000 2996.762084 3005.701645 3010.819930 3011.504205 3018.390689 3027.866377
14.260000 3000.246635 3008.295149 3013.689080 3014.468898 3021.677400 3031.624378
14.280000 3003.418800 3011.007466 3016.573777 3017.443310 3024.760589 3034.991860
14.300000 3006.646958 3013.309770 3019.490479 3020.585280 3028.825813 3039.278536
14.320000 3009.653128 3015.685997 3022.727017 3023.946788 3032.584550 3043.027999
14.340000 3012.290434 3018.170042 3026.080167 3027.404855 3037.098400 3047.892750
14.360000 3015.042658 3020.847715 3029.528857 3031.147074 3042.811456 3051.307065
14.380000 3017.887598 3024.170966 3033.774031 3035.282045 3047.747484 3056.657793
14.400000 3020.328350 3027.756631 3039.283121 3039.982128 3052.607830 3062.436213
14.420000 3024.916030 3032.179439 3045.476526 3045.336431 3058.161576 3071.207859
14.460000 3032.358560 3043.901402 3059.938834 3059.443389 3074.188730 3085.850807
14.480000 3035.902635 3049.785719 3066.131510 3065.617729 3080.972893 3091.662519
14.500000 3040.282677 3055.675656 3073.730769 3071.927342 3086.796717 3095.986572
14.520000 3046.417727 3061.858085 3081.058139 3078.103497 3092.958393 3100.953407
14.540000 3051.468251 3068.071008 3087.032361 3083.732019 3097.664273 3105.960909
14.560000 3057.576093 3074.304295 3091.972849 3089.075891 3102.159727 3110.083795
14.580000 3064.674876 3080.550015 3097.043264 3094.423959 3106.811429 3114.098341
14.600000 3069.780132 3087.866683 3101.909120 3099.737867 3111.085690 3117.896207
14.620000 3075.784723 3095.272803 3107.150217 3105.183329 3115.740932 3122.390414
14.640000 3083.372849 3101.480591 3112.145591 3110.541474 3120.428592 3127.768253
14.660000 3088.958445 3107.001357 3117.655723 3115.808097 3124.925084 3132.321512
14.680000 3095.135543 3112.976488 3122.440237 3121.054396 3130.013443 3136.771427
14.700000 3098.014538 3118.073275 3127.850317 3126.568343 3135.994695 3142.281237
14.720000 3103.186530 3123.216250 3133.403913 3131.896928 3141.713664 3147.731325
14.740000 3106.834534 3128.669775 3139.243275 3137.218498 3147.085721 3153.069714
14.760000 3112.644910 3133.447270 3144.756544 3142.431925 3151.592198 3158.422907
14.780000 3118.861850 3139.541846 3149.076274 3147.086313 3155.408966 3163.812742
14.800000 3125.125940 3145.345426 3153.024906 3151.715870 3159.732330 3167.916391
14.820000 3130.694290 3149.524767 3156.521786 3155.709749 3163.358578 3171.703193
14.840000 3138.765556 3153.369897 3160.385609 3159.538569 3167.081081 3174.401292
14.860000 3144.648704 3157.277892 3164.135785 3163.285516 3170.547430 3178.072238
14.880000 3148.955686 3161.104081 3167.688156 3166.860824 3174.138122 3180.917518
14.900000 3152.441911 3164.466510 3171.150581 3170.399771 3177.434503 3184.468415
14.920000 3157.225593 3167.424662 3174.744256 3173.810297 3181.210970 3187.784248
14.940000 3161.098649 3170.552043 3177.967037 3177.143365 3184.328741 3191.347500
14.960000 3164.106238 3173.806609 3181.020800 3180.375014 3187.597412 3195.133435
14.980000 3166.852865 3176.910531 3184.359091 3183.563360 3190.563701 3198.469177
15.000000 3169.535005 3179.737646 3187.351265 3186.603458 3193.817792 3202.278543
15.020000 3171.860676 3182.870397 3190.410720 3189.597277 3196.970762 3204.989049
15.040000 3176.643389 3185.909854 3193.261512 3192.642985 3200.263841 3209.105122
15.060000 3179.007622 3188.738625 3195.864188 3195.600953 3203.159465 3211.859792
15.080000 3181.378499 3191.732302 3198.797594 3198.537357 3206.074369 3214.931393
15.100000 3183.867293 3194.257181 3201.571755 3201.433249 3209.063522 3217.915797
15.120000 3186.598759 3196.984313 3204.503517 3204.310123 3211.935317 3220.452641
15.140000 3189.166854 3199.568252 3207.231503 3207.125108 3215.147295 3223.311226
15.160000 3192.214637 3202.546966 3209.986631 3210.057667 3218.888568 3225.460130
15.180000 3195.958331 3205.616650 3213.065753 3213.159513 3222.028308 3228.102840
15.200000 3198.925889 3208.844358 3216.291112 3216.435514 3225.344517 3230.742126
15.220000 3203.348644 3212.046789 3219.666524 3219.631707 3228.301952 3233.689821
15.240000 3206.232913 3215.295192 3222.758507 3222.808521 3231.120707 3236.791189
15.260000 3208.986940 3218.747151 3226.374071 3226.016023 3234.405493 3239.301025
15.280000 3212.626415 3221.526164 3229.659144 3229.159208 3237.340531 3241.764061
15.300000 3214.965441 3224.647026 3233.317222 3232.379284 3240.486041 3244.581054
15.320000 3217.838942 3227.956824 3236.879939 3235.826005 3243.499266 3247.854458
15.340000 3220.902272 3231.205665 3240.557964 3239.187493 3246.545169 3251.099950
15.360000 3223.861259 3234.386101 3243.691231 3242.462545 3249.579383 3254.970822
15.380000 3226.993765 3238.486892 3247.177955 3245.834300 3252.686048 3257.837482
15.400000 3231.136150 3242.630505 3250.375707 3249.243897 3255.660962 3260.594339
15.420000 3236.013549 3246.444564 3253.377535 3252.533699 3258.723161 3263.892514
15.460000 3245.790935 3254.136680 3259.794809 3259.361064 3264.857472 3269.535633
15.480000 3248.926734 3257.303003 3262.653048 3262.425696 3267.818335 3272.499870
15.520000 3256.212673 3262.874097 3267.842695 3267.868801 3273.185162 3277.162810
15.540000 3259.731079 3266.027698 3270.927843 3270.739660 3275.979621 3280.093360
15.560000 3262.270105 3268.926968 3273.936390 3273.665539 3278.744976 3282.934560
15.580000 3265.911864 3271.957973 3277.324661 3276.964215 3282.041681 3285.838314
15.600000 3268.994893 3275.360912 3280.608920 3280.311848 3285.177104 3289.070841
15.620000 3272.965548 3279.310614 3284.399655 3284.203849 3289.100566 3294.108673
15.640000 3277.203284 3283.328801 3287.916874 3287.955846 3292.381192 3299.135164
15.660000 3282.613297 3287.738195 3292.137937 3292.306228 3296.918154 3302.253433
15.680000 3287.112916 3292.278598 3296.528399 3297.003897 3302.354183 3308.362233
15.700000 3289.790842 3296.104374 3302.916900 3304.631143 3314.421332 3324.601038
15.720000 3293.848708 3299.387091 3307.169354 3310.139452 3323.664048 3333.314615
15.740000 3296.828705 3302.167294 3309.920881 3315.013786 3331.646171 3340.849664
15.760000 3301.249674 3305.502106 3314.858585 3319.995927 3336.721659 3346.958186
15.780000 3304.123640 3308.530161 3322.304171 3324.888139 3342.278974 3352.345499
15.800000 3306.715277 3311.439475 3330.268475 3329.741882 3347.695117 3359.345370
15.820000 3309.797619 3314.760462 3336.963296 3334.602478 3352.984349 3365.130881
15.860000 3316.164749 3322.954502 3346.384037 3344.794521 3364.580127 3375.485171
15.880000 3319.864071 3328.473843 3351.604459 3350.132729 3370.276749 3381.535619
15.900000 3324.461620 3333.830126 3356.314333 3355.835906 3376.957047 3387.112388
16.000000 3340.461921 3358.807973 3394.391354 3387.642042 3406.788130 3416.639472
16.020000 3344.668725 3362.151280 3398.402447 3391.830847 3410.878358 3420.166614
16.040000 3348.306864 3365.270751 3401.532971 3395.482880 3414.188551 3423.521566
16.060000 3352.367603 3368.830802 3404.172609 3399.065844 3417.872837 3426.610403
16.080000 3356.114288 3374.080961 3406.618037 3402.417218 3420.897039 3429.391802
16.100000 3359.846481 3379.268471 3408.947156 3405.469841 3423.359840 3432.795517
16.120000 3363.355797 3386.269263 3411.245077 3408.461621 3425.862327 3435.609735
16.140000 3366.997365 3393.725353 3413.205337 3411.297102 3428.022942 3437.527318
16.160000 3370.180300 3398.048490 3415.092149 3414.268003 3430.278261 3439.796341
16.180000 3373.046991 3402.357993 3416.916996 3417.126799 3432.292427 3441.809867
16.200000 3379.428420 3406.111246 3418.920161 3419.905536 3434.521969 3444.339415
16.220000 3385.921732 3409.627599 3420.998117 3422.404398 3436.535335 3446.262398
16.240000 3391.712516 3412.437988 3422.830563 3424.852566 3438.574373 3448.032347
16.260000 3397.080629 3415.683947 3425.297569 3427.227368 3440.877320 3450.429462
16.280000 3400.259807 3418.147257 3427.376068 3429.587201 3443.358185 3452.846528
16.300000 3403.422467 3420.708665 3429.901233 3431.935383 3445.456448 3454.804736
16.320000 3407.355779 3423.252672 3432.435746 3434.255737 3447.642604 3456.379339
16.340000 3410.437561 3425.471377 3434.911248 3436.481296 3449.791817 3457.878625
16.360000 3413.974150 3428.308040 3437.309829 3438.895621 3451.925602 3459.561071
16.380000 3416.526901 3430.618253 3440.506475 3441.225809 3454.048783 3462.576761
16.400000 3418.890989 3433.220767 3443.662473 3443.660931 3456.065093 3464.442759
16.420000 3421.366203 3435.547177 3446.133185 3446.053978 3458.291218 3466.724065
16.440000 3424.795125 3437.892186 3448.624017 3448.514133 3460.410375 3469.841327
16.460000 3428.574101 3440.222126 3451.126757 3450.901146 3462.217690 3471.780687
16.480000 3431.087241 3442.636922 3453.847485 3453.350772 3464.148848 3473.785590
16.500000 3435.534412 3445.272012 3456.497088 3455.902130 3466.454489 3476.595176
16.520000 3439.263959 3448.117375 3459.047472 3458.569586 3468.349068 3479.445023
16.540000 3443.588685 3451.120281 3461.709851 3461.301603 3470.232711 3481.121775
16.560000 3446.290530 3454.142867 3464.345756 3463.977761 3472.588104 3482.633438
16.580000 3449.656799 3457.029041 3466.815957 3466.552825 3474.804001 3485.073150
16.600000 3452.874730 3459.865981 3469.250021 3469.194355 3477.585152 3487.393497
16.620000 3456.437041 3462.499915 3471.883633 3471.836085 3479.525724 3489.679558
16.640000 3459.237705 3465.610490 3474.302426 3474.305765 3482.382377 3492.511167
16.660000 3461.520346 3468.986964 3476.485182 3476.861836 3485.461271 3494.272100
16.680000 3464.935783 3471.768052 3478.753876 3479.288428 3487.785494 3495.681991
16.700000 3468.176826 3474.356508 3480.792328 3481.591198 3489.671492 3497.313813
16.740000 3473.657615 3479.736938 3484.587035 3486.020610 3493.945134 3501.383154
16.760000 3477.347993 3482.124913 3486.573464 3488.193387 3495.884057 3503.245351
16.780000 3479.939003 3484.296165 3488.406206 3490.240352 3498.026527 3505.427748
16.800000 3481.809266 3486.198926 3490.385931 3492.223680 3499.959816 3507.354094
16.820000 3484.036096 3488.098127 3492.352953 3494.157143 3501.790572 3509.160856
16.840000 3486.362281 3489.958589 3494.401659 3496.222804 3504.245365 3512.617297
16.860000 3488.522287 3491.830068 3496.319214 3498.254658 3506.015027 3514.697083
16.880000 3490.771435 3493.714732 3498.655398 3500.351534 3508.326620 3516.695137
16.900000 3492.677533 3495.458167 3500.869885 3502.488594 3510.471874 3518.938319
16.920000 3494.378469 3497.356126 3503.327278 3504.652200 3512.875391 3521.010394
16.940000 3496.189910 3499.099274 3505.622360 3506.891976 3515.733234 3523.172129
16.960000 3497.662139 3501.018870 3507.731859 3509.105396 3518.185735 3525.767084
16.980000 3499.556411 3503.406481 3510.059991 3511.420460 3520.236362 3527.852893
17.000000 3501.273834 3505.910653 3512.394241 3513.698852 3522.707088 3530.440414
17.020000 3502.839592 3508.395169 3514.862588 3515.980680 3525.258391 3532.704232
17.040000 3505.437948 3510.709844 3517.104642 3518.338384 3527.584502 3535.076028
17.060000 3507.185213 3513.278067 3519.276410 3520.685612 3529.917135 3537.139065
17.080000 3509.215693 3515.695624 3521.520912 3522.971021 3531.715433 3538.835182
17.100000 3511.165101 3518.329446 3524.037149 3525.311816 3534.168158 3540.487792
17.120000 3513.239672 3520.873860 3526.368975 3527.595535 3536.205136 3542.563581
17.140000 3514.865062 3523.230981 3528.649541 3529.910224 3538.246858 3544.289961
17.160000 3516.258907 3525.722992 3530.913753 3532.147078 3540.253253 3546.232266
