depth(m) lower_95(kyr) lower_68(kyr) median(kyr) mean(kyr) upper_68(kyr) upper_95(kyr)
151.030000 2680.405623 2682.168928 2685.221782 2684.837823 2686.968679 2688.547313
151.130000 2681.169550 2682.926500 2685.880864 2685.502838 2687.489122 2689.172822
151.230000 2681.836168 2683.602271 2686.525052 2686.145435 2688.044023 2689.820829
151.330000 2682.330492 2684.249438 2687.126668 2686.768873 2688.528491 2690.320682
151.430000 2682.863683 2684.972171 2687.832773 2687.384409 2689.075824 2690.710489
151.530000 2683.409585 2685.681493 2688.438976 2687.991302 2689.619691 2691.169284
151.630000 2683.863783 2686.556896 2689.036525 2688.597396 2690.138421 2692.226625
151.754000 2684.662678 2687.621647 2689.717440 2689.321668 2690.760015 2693.139164
151.878000 2685.249748 2688.406945 2690.350277 2690.000882 2691.352151 2693.759315
152.002000 2685.911253 2689.211132 2690.993822 2690.683647 2692.033149 2694.438662
152.126000 2686.649253 2690.197724 2691.627339 2691.377041 2692.638610 2695.165526
152.250000 2687.436417 2691.033317 2692.252843 2692.057378 2693.237610 2695.842905
152.350000 2688.025646 2691.634911 2692.774498 2692.602031 2693.733510 2696.355669
152.450000 2688.600405 2692.234804 2693.306535 2693.148908 2694.212711 2696.857493
152.550000 2689.278083 2692.778436 2693.842148 2693.697680 2694.645780 2697.405034
152.650000 2689.766489 2693.337833 2694.299584 2694.215821 2695.183691 2697.961067
152.750000 2690.327774 2693.795197 2694.769592 2694.722902 2695.724257 2698.417070
152.850000 2690.995498 2694.370978 2695.265709 2695.243748 2696.202270 2698.956819
152.950000 2691.643206 2694.901527 2695.746038 2695.765100 2696.709707 2699.438556
153.050000 2692.315598 2695.403758 2696.257550 2696.284903 2697.209315 2699.911272
153.150000 2693.048017 2695.916898 2696.761550 2696.797821 2697.716506 2700.460040
153.250000 2693.753258 2696.401018 2697.231567 2697.302611 2698.145014 2700.985910
153.350000 2694.353106 2696.908247 2697.692368 2697.795974 2698.659831 2701.606200
153.450000 2694.946515 2697.409060 2698.164538 2698.291887 2699.120976 2702.272262
153.553333 2695.388411 2697.926437 2698.643536 2698.790669 2699.582558 2702.784229
153.656667 2696.002341 2698.395888 2699.126745 2699.287616 2700.118196 2703.256077
153.760000 2696.429886 2698.879447 2699.593517 2699.772374 2700.654367 2703.816556
153.860000 2696.866663 2699.343011 2700.055540 2700.240042 2701.104340 2704.511558
153.960000 2697.325941 2699.811782 2700.512297 2700.716672 2701.522786 2705.183099
154.060000 2697.846200 2700.254486 2700.970654 2701.181551 2702.031383 2705.793684
154.160000 2698.372261 2700.701413 2701.421733 2701.649851 2702.518504 2706.353589
154.260000 2698.933089 2701.188761 2701.859526 2702.106872 2702.990584 2706.863483
154.360000 2699.410416 2701.643107 2702.310962 2702.578294 2703.461095 2707.566923
154.460000 2699.925797 2702.093340 2702.779805 2703.045915 2704.018053 2708.207300
154.560000 2700.422637 2702.566637 2703.210110 2703.506938 2704.539228 2708.552061
154.660000 2700.881857 2703.012089 2703.648489 2703.974960 2705.014624 2709.013618
154.782000 2701.509311 2703.499152 2704.190791 2704.521268 2705.535959 2709.657588
154.904000 2702.012243 2704.028776 2704.735850 2705.083277 2706.167662 2710.314616
155.026000 2702.569487 2704.537729 2705.300638 2705.645426 2706.707569 2711.157620
155.148000 2703.201724 2705.051811 2705.837545 2706.205625 2707.312760 2711.805487
155.270000 2704.029615 2705.566418 2706.394844 2706.770969 2707.840977 2712.481781
155.370000 2704.536698 2706.040968 2706.823637 2707.256878 2708.373511 2713.478026
155.470000 2704.950811 2706.497246 2707.284826 2707.751062 2708.878625 2713.809025
155.570000 2705.383145 2706.964651 2707.792510 2708.257830 2709.429210 2714.516060
155.670000 2705.856428 2707.427831 2708.333821 2708.787030 2710.016721 2715.133491
155.770000 2706.358219 2707.893139 2708.846381 2709.333939 2710.679581 2715.764445
155.870000 2706.900964 2708.392389 2709.380157 2709.898104 2711.304356 2716.441089
155.970000 2707.527328 2708.879915 2709.978880 2710.492044 2712.025914 2717.134743
156.070000 2708.178594 2709.407247 2710.495775 2711.086136 2712.870868 2717.785551
156.170000 2708.776054 2709.915346 2711.088790 2711.703319 2713.605604 2718.420918
156.270000 2709.222080 2710.376347 2711.711729 2712.375083 2714.471733 2719.037772
156.370000 2709.673318 2710.929392 2712.414646 2713.101309 2715.342215 2719.858136
156.470000 2710.190929 2711.575118 2713.125282 2713.882357 2716.463091 2720.849039
156.576667 2710.919062 2712.297749 2713.887456 2714.747158 2717.502413 2722.061737
156.683333 2711.557484 2713.032787 2715.062494 2715.761110 2718.959244 2723.075228
156.790000 2712.185870 2713.795246 2716.179167 2716.809314 2719.952376 2724.491944
156.890000 2712.919585 2714.629903 2717.359501 2717.934451 2721.483198 2725.808215
156.990000 2713.680967 2715.669872 2718.664832 2719.141723 2722.792325 2727.239773
157.090000 2714.368209 2716.811961 2720.061716 2720.484354 2724.074784 2728.805523
157.231250 2715.896488 2718.833149 2722.688718 2722.886544 2726.829172 2732.038238
157.372500 2717.558992 2721.000528 2725.254058 2725.347028 2729.505586 2734.826578
157.513750 2719.469010 2723.194683 2727.890863 2727.984469 2732.560739 2737.720748
157.655000 2721.850454 2725.878231 2730.415750 2730.706131 2735.505578 2741.027959
157.796250 2724.153023 2728.396478 2733.247796 2733.489673 2738.496809 2744.023508
157.937500 2725.975912 2731.264707 2736.082654 2736.252792 2741.287706 2746.907181
158.078750 2728.548024 2733.886362 2739.008414 2739.122973 2744.477796 2749.888627
158.220000 2730.816799 2736.988252 2741.987217 2741.989095 2747.242205 2752.268803
158.361250 2734.153712 2739.838023 2745.123473 2744.908926 2749.999950 2755.625537
158.502500 2736.465596 2742.706466 2747.995117 2747.782442 2752.880905 2758.328353
158.643750 2738.324225 2745.640471 2750.876200 2750.839527 2756.433352 2761.274485
158.785000 2741.943884 2748.297801 2753.932084 2753.713070 2759.513787 2764.415124
158.926250 2744.542568 2751.255010 2757.083051 2756.697298 2762.693146 2767.095799
159.067500 2746.326901 2754.165077 2760.233067 2759.693578 2765.582892 2770.538486
159.208750 2749.082432 2757.253950 2762.988668 2762.583646 2768.571450 2773.488539
159.350000 2752.907833 2759.964664 2765.779036 2765.382443 2771.213033 2776.012645
159.491250 2754.943603 2762.794551 2768.761910 2768.167541 2774.150427 2779.232761
159.632500 2756.745788 2765.578694 2771.426239 2770.927849 2777.051279 2782.052657
159.773750 2759.119012 2768.384315 2774.135777 2773.740680 2779.889073 2785.176462
159.915000 2762.844415 2771.231131 2776.707765 2776.461498 2782.724416 2787.565144
160.056250 2765.995419 2774.133708 2779.559148 2779.177845 2785.543798 2789.758547
160.197500 2768.647091 2776.839884 2782.242057 2781.825428 2788.113610 2792.506237
160.338750 2771.488580 2779.577360 2784.817940 2784.439198 2790.588297 2794.313664
160.480000 2773.860947 2782.294526 2787.373593 2786.902102 2792.769837 2796.162470
160.580000 2776.271539 2783.695781 2788.896501 2788.279640 2793.983527 2797.531211
160.680000 2777.470983 2785.228258 2790.243314 2789.581011 2795.188573 2798.488468
160.780000 2778.762741 2786.571393 2791.515280 2790.859143 2796.380131 2799.592434
160.880000 2780.221627 2788.109120 2792.883829 2792.122060 2797.617407 2800.291682
160.980000 2781.704277 2789.608070 2793.917363 2793.311660 2798.592846 2801.179016
161.080000 2783.536453 2790.969809 2795.250644 2794.533194 2799.498650 2801.895635
161.180000 2785.192835 2792.321571 2796.307712 2795.702339 2800.484785 2802.829597
161.280000 2787.308772 2793.652534 2797.353945 2796.798925 2801.386226 2803.583564
161.380000 2788.993620 2794.940937 2798.573504 2797.949678 2802.372022 2804.280679
161.480000 2790.913751 2796.106156 2799.760695 2799.022039 2803.207794 2805.295471
161.580000 2792.264040 2797.199091 2800.965185 2800.052832 2803.982322 2806.285889
161.680000 2793.545261 2798.147182 2802.075754 2801.037940 2804.803190 2807.087478
161.783333 2795.693535 2799.322408 2803.218137 2802.140320 2805.776419 2807.962299
161.886667 2796.981779 2800.419094 2804.280897 2803.218754 2806.675620 2808.856444
161.990000 2798.566857 2801.569042 2805.419007 2804.273721 2807.616714 2809.430579
162.090000 2799.503862 2802.555264 2806.281277 2805.212417 2808.579761 2810.196455
162.190000 2800.234965 2803.438340 2807.152000 2806.088854 2809.367950 2810.856959
162.290000 2801.131031 2804.365316 2808.080207 2806.907866 2810.062900 2811.497166
162.390000 2801.550133 2805.021010 2808.880442 2807.685303 2810.780996 2812.176374
162.490000 2802.308556 2805.669887 2809.630719 2808.420164 2811.468628 2812.810933
162.590000 2803.048181 2806.393164 2810.322896 2809.123799 2812.153306 2813.530696
162.690000 2803.773692 2807.078120 2811.070074 2809.848216 2812.829761 2814.452091
162.790000 2804.447446 2807.736457 2811.729522 2810.500944 2813.426422 2815.345543
162.890000 2805.055170 2808.489571 2812.411937 2811.155316 2814.065656 2815.925257
162.990000 2805.733542 2809.125781 2813.105967 2811.836056 2814.721459 2816.835153
163.090000 2806.201665 2809.955789 2813.739703 2812.514870 2815.306206 2817.765987
163.190000 2806.759999 2810.900414 2814.387302 2813.217508 2815.964784 2818.738015
163.296667 2807.317743 2811.668969 2815.043078 2813.970879 2816.781234 2820.090641
163.403333 2807.749576 2812.421212 2815.700338 2814.742639 2817.665155 2821.411654
163.510000 2808.306818 2813.101936 2816.230953 2815.489995 2818.499865 2822.578400
163.610000 2808.793547 2813.635171 2816.760474 2816.212238 2819.385647 2823.596892
163.710000 2809.361858 2814.230600 2817.368578 2816.952507 2820.471531 2824.462649
163.810000 2810.095975 2814.682342 2817.955290 2817.691510 2821.567160 2825.459910
163.910000 2810.752869 2815.196045 2818.584903 2818.402800 2822.529618 2826.324966
164.010000 2811.418934 2815.792693 2819.219359 2819.089212 2823.567436 2827.623560
164.110000 2812.155015 2816.345319 2819.846900 2819.745976 2824.468842 2828.513873
164.210000 2812.596291 2816.868723 2820.438050 2820.378704 2825.259968 2829.243765
164.310000 2813.492589 2817.478149 2821.051756 2821.001606 2825.997394 2829.885138
164.410000 2814.111254 2817.961365 2821.671681 2821.606239 2826.608096 2830.325751
164.510000 2814.796114 2818.367948 2822.147714 2822.192025 2827.598293 2830.714483
164.610000 2815.175648 2818.935196 2822.652601 2822.765452 2828.347598 2831.184481
164.710000 2815.754486 2819.345993 2823.200272 2823.309452 2829.160622 2831.583937
164.816667 2816.319928 2819.712538 2823.662315 2823.894057 2829.950777 2832.001482
164.923333 2816.945609 2820.087961 2824.128335 2824.476566 2830.749583 2832.413209
165.030000 2817.504354 2820.460062 2824.632457 2825.049863 2831.581378 2832.854020
165.130000 2817.937487 2820.893719 2825.083321 2825.549230 2831.969907 2833.287884
165.230000 2818.283063 2821.476445 2825.508965 2826.050927 2832.410976 2833.745646
165.330000 2818.763870 2821.940605 2825.901070 2826.548935 2832.884639 2834.360728
165.430000 2819.135247 2822.451484 2826.261111 2827.026474 2833.328718 2835.036784
165.530000 2819.537449 2822.882139 2826.675028 2827.495089 2833.718648 2835.698883
165.630000 2819.871380 2823.381682 2827.019537 2827.954854 2834.130028 2836.342653
165.730000 2820.243398 2823.947122 2827.397131 2828.411351 2834.491713 2836.996286
165.830000 2820.895701 2824.505270 2827.755234 2828.852859 2834.841962 2837.348347
165.930000 2821.378937 2825.046726 2828.139613 2829.289365 2835.192883 2837.970551
166.030000 2821.654259 2825.606627 2828.564021 2829.714528 2835.576729 2838.529134
166.130000 2821.968137 2826.170293 2828.912298 2830.117336 2835.843694 2838.907321
166.230000 2822.417752 2826.575179 2829.348968 2830.516493 2836.197686 2839.579609
166.373182 2822.864353 2827.122524 2829.830010 2831.048225 2836.700160 2840.368015
166.516364 2823.365524 2827.617783 2830.375757 2831.605615 2837.191007 2841.256163
166.659545 2823.901610 2828.142455 2830.968930 2832.149785 2837.669248 2842.378860
166.802727 2824.364069 2828.661490 2831.411683 2832.690021 2838.166449 2843.039598
166.945909 2824.836299 2829.068273 2831.924324 2833.219376 2838.685189 2843.589714
167.089091 2825.260958 2829.544623 2832.461475 2833.743494 2839.242152 2844.217792
167.232273 2825.691281 2830.034190 2832.997036 2834.269091 2839.728328 2845.331054
167.375455 2826.048604 2830.381412 2833.568176 2834.790264 2840.268946 2846.354303
167.518636 2826.458099 2830.863583 2834.087870 2835.318948 2840.824872 2847.116235
167.661818 2827.031473 2831.342794 2834.650708 2835.853600 2841.332677 2848.101143
167.805000 2827.421989 2831.634339 2835.180600 2836.369454 2841.850151 2849.228994
167.948182 2827.923586 2832.105688 2835.689360 2836.908350 2842.419475 2849.898978
168.091364 2828.490113 2832.467941 2836.298737 2837.438390 2843.047016 2850.556210
168.234545 2828.988154 2833.001297 2836.861816 2837.968083 2843.583853 2851.367394
168.377727 2829.349271 2833.441485 2837.250202 2838.481262 2844.083645 2852.488489
168.520909 2830.063083 2833.816099 2837.796956 2839.008255 2844.611085 2853.869426
168.664091 2830.557822 2834.197173 2838.320574 2839.515331 2845.215494 2854.846793
168.807273 2830.879143 2834.592239 2838.924328 2840.036347 2845.773856 2855.700952
168.950455 2831.432897 2835.014104 2839.369764 2840.557817 2846.388554 2856.717185
169.093636 2832.051540 2835.363153 2839.843137 2841.074860 2846.823899 2857.715610
169.236818 2832.575828 2835.875409 2840.160243 2841.606527 2847.349758 2858.462920
169.380000 2833.073344 2836.291076 2840.587324 2842.118098 2847.921192 2859.751962
169.523182 2833.465606 2836.726191 2841.011294 2842.640789 2848.376008 2860.751430
169.666364 2834.074159 2837.100362 2841.442280 2843.152883 2848.873965 2861.689396
169.809545 2834.450723 2837.511224 2841.894631 2843.650806 2849.497416 2862.745784
169.952727 2834.931913 2837.933020 2842.407219 2844.182759 2850.049180 2863.877974
170.095909 2835.540026 2838.392747 2842.844567 2844.711889 2850.565538 2864.582712
170.239091 2836.010393 2838.833951 2843.290151 2845.234466 2851.213190 2865.601643
170.382273 2836.526406 2839.293314 2843.789908 2845.762240 2851.722878 2866.757485
170.525455 2837.013265 2839.795906 2844.232900 2846.273962 2852.351230 2867.492285
170.668636 2837.301270 2840.155191 2844.591413 2846.779697 2852.833236 2868.807010
170.811818 2837.683678 2840.569468 2844.951632 2847.298798 2853.367140 2869.619790
170.955000 2837.924138 2840.979951 2845.361963 2847.827125 2853.831761 2870.544389
171.098182 2838.321032 2841.373648 2845.833633 2848.354804 2854.368461 2871.761955
171.241364 2838.633264 2841.791719 2846.311572 2848.877113 2854.868554 2872.585111
171.384545 2839.082351 2842.265116 2846.788305 2849.414296 2855.456036 2873.681384
171.527727 2839.658942 2842.640101 2847.456895 2849.938733 2856.009869 2874.655799
171.670909 2840.147567 2843.132778 2848.109367 2850.485743 2856.521702 2875.484069
171.814091 2840.672028 2843.570049 2848.541753 2851.031929 2857.104098 2876.746641
171.957273 2841.375473 2843.880879 2849.117330 2851.581512 2857.616137 2878.054162
172.100455 2841.850442 2844.323696 2849.822490 2852.131243 2858.282042 2879.006063
172.243636 2842.341206 2844.856458 2850.422615 2852.704804 2858.957599 2880.000232
172.386818 2842.954712 2845.240509 2850.944695 2853.266423 2859.466562 2881.000370
172.530000 2843.582727 2845.664031 2851.633148 2853.845832 2860.101692 2881.828231
172.630000 2844.019143 2846.005953 2852.029495 2854.270424 2860.487945 2882.331645
172.730000 2844.508739 2846.395583 2852.462332 2854.723227 2860.908726 2882.771974
172.830000 2844.957814 2846.799200 2853.156767 2855.185379 2861.371629 2883.329387
172.952000 2845.395311 2847.374821 2853.781057 2855.791034 2861.798691 2883.815646
173.074000 2845.892382 2848.134478 2854.495667 2856.427152 2862.306028 2884.408072
173.196000 2846.391412 2848.878602 2855.657366 2857.081585 2862.839901 2884.874527
173.318000 2846.735923 2849.474047 2856.644024 2857.736870 2863.405564 2885.323797
173.440000 2847.138612 2850.109974 2857.350060 2858.401591 2864.171014 2885.805725
173.540000 2847.518618 2850.757616 2857.961380 2858.947497 2864.656166 2886.226425
173.640000 2847.798920 2851.239193 2858.602988 2859.479994 2865.112801 2886.505893
173.740000 2848.241371 2851.804007 2859.159502 2860.022808 2865.551609 2886.814666
173.840000 2848.579818 2852.343430 2859.601291 2860.558720 2866.141248 2887.253804
173.940000 2848.952461 2852.895131 2860.096922 2861.085138 2866.820942 2887.587126
174.040000 2849.221478 2853.362517 2860.687442 2861.614979 2867.577555 2888.014530
174.140000 2849.592921 2853.885290 2861.231216 2862.167684 2868.815237 2888.370193
174.240000 2849.952162 2854.397022 2862.033500 2862.718761 2869.444072 2888.731706
174.340000 2850.280809 2855.074468 2862.726111 2863.281910 2870.033562 2889.083385
174.440000 2850.569640 2855.612664 2863.431635 2863.819974 2870.725972 2889.405719
174.540000 2850.922176 2856.207764 2864.135464 2864.381430 2871.243403 2889.669206
174.640000 2851.260894 2856.785504 2864.719467 2864.911257 2871.862610 2890.008544
174.743333 2851.633276 2857.379797 2865.347124 2865.496056 2872.396452 2890.351696
174.846667 2851.931442 2857.991333 2865.969026 2866.077383 2872.758338 2890.781065
174.950000 2852.312921 2858.606336 2866.567385 2866.646659 2873.292858 2891.117675
175.050000 2852.596928 2858.977728 2867.244260 2867.197859 2873.846759 2891.527228
175.150000 2852.913734 2859.383198 2867.945802 2867.732323 2874.265838 2891.840838
175.250000 2853.389463 2859.891415 2868.500596 2868.282799 2874.690060 2892.198568
175.350000 2853.630093 2860.457852 2869.085205 2868.802128 2875.219281 2892.557964
175.450000 2854.027593 2861.041326 2869.701139 2869.338430 2875.620406 2892.952637
175.550000 2854.439433 2861.720350 2870.152450 2869.915560 2876.037928 2893.349490
175.670000 2854.768800 2862.680967 2870.747580 2870.643866 2876.563663 2893.983199
175.790000 2855.218074 2863.634660 2871.184382 2871.369182 2877.024109 2894.642491
175.910000 2855.664243 2864.491605 2871.662104 2872.071971 2877.523798 2895.253376
176.030000 2856.104616 2865.434658 2872.128448 2872.798760 2878.004144 2895.711934
176.150000 2856.651990 2866.423239 2872.673698 2873.508791 2878.752177 2896.117609
176.256667 2857.595149 2866.913707 2873.102504 2874.106661 2879.674254 2896.444001
176.363333 2858.664300 2867.801334 2873.683705 2874.723331 2880.180120 2896.791158
176.470000 2859.037388 2868.331231 2874.300670 2875.365751 2880.911094 2897.227366
176.570000 2859.670758 2869.332208 2874.873452 2875.959569 2881.460718 2897.551675
176.670000 2860.778113 2869.912544 2875.569392 2876.580111 2882.006334 2897.900362
176.770000 2861.641831 2870.567325 2876.197961 2877.195738 2882.638139 2898.222724
176.870000 2862.062966 2871.492237 2876.862434 2877.805151 2883.094877 2898.615292
176.970000 2862.650979 2872.300672 2877.504347 2878.407737 2883.532988 2898.979538
177.070000 2862.936763 2873.107731 2878.247019 2879.033413 2884.150344 2899.332442
177.170000 2863.640793 2873.662932 2878.900121 2879.636666 2884.750630 2899.627293
177.270000 2864.312888 2874.664844 2879.542580 2880.224745 2885.216392 2899.945656
177.370000 2864.721346 2875.323281 2880.329726 2880.813936 2885.675209 2900.278606
177.470000 2865.454452 2875.828458 2880.963255 2881.384744 2886.026898 2900.553028
177.570000 2866.004680 2876.499701 2881.523517 2881.966116 2886.576015 2900.911300
177.670000 2866.467774 2876.977035 2882.151122 2882.510696 2887.134157 2901.172147
177.815238 2867.576351 2877.406688 2882.966317 2883.308067 2888.162626 2901.655891
177.960476 2868.771718 2878.184391 2883.815403 2884.099361 2888.750969 2902.166691
178.105714 2869.669820 2878.795752 2884.637839 2884.884750 2889.492094 2902.546771
178.250952 2870.947046 2879.429335 2885.243064 2885.625068 2890.182731 2903.005000
178.396190 2872.835296 2880.051722 2885.980435 2886.393311 2890.921700 2903.530801
178.541429 2873.415070 2880.668790 2886.658370 2887.110510 2891.561401 2903.929446
