depth(m) lower_95(kyr) lower_68(kyr) median(kyr) mean(kyr) upper_68(kyr) upper_95(kyr)
228.085000 2688.467871 2692.933856 2697.413748 2697.170844 2701.259386 2705.322231
228.185000 2690.777180 2695.456053 2699.310860 2699.100468 2702.944201 2706.535119
228.285000 2693.546813 2697.587599 2701.125045 2701.002409 2704.540130 2707.914584
228.385000 2695.536173 2699.522749 2702.817211 2702.797373 2706.286506 2709.482384
228.485000 2697.609828 2701.229878 2704.537677 2704.552513 2707.950953 2710.904957
228.585000 2699.722150 2703.040510 2706.298540 2706.326588 2709.542655 2712.589194
228.685000 2701.804908 2704.921431 2708.212878 2708.211548 2711.603543 2714.661654
228.785000 2703.878953 2706.955940 2710.154680 2710.220165 2713.508719 2716.670191
228.885000 2706.199243 2709.119611 2712.396281 2712.391653 2715.795976 2718.759273
228.985000 2708.444399 2711.688922 2714.944006 2714.883109 2718.134205 2721.336561
229.085000 2710.963192 2714.541730 2717.658580 2717.700406 2720.963828 2724.044522
229.185000 2714.300802 2717.587924 2720.811184 2720.794211 2724.075560 2727.174875
229.285000 2717.038256 2720.532511 2723.830372 2723.764632 2726.954133 2730.318045
229.385000 2720.514269 2723.828153 2727.122975 2727.106090 2730.396445 2733.580837
229.485000 2723.271258 2726.945928 2729.882993 2730.045275 2733.545799 2737.611093
229.585000 2725.750562 2729.049540 2732.592308 2732.653169 2736.220990 2740.291603
229.685000 2727.849868 2731.378331 2734.849684 2735.027298 2739.059102 2742.661244
229.785000 2729.733345 2733.480609 2737.172793 2737.331097 2741.465958 2744.797408
229.885000 2731.571467 2735.373510 2739.415272 2739.450089 2743.491677 2746.702732
229.985000 2733.819460 2737.392335 2741.969083 2741.650818 2745.675388 2748.949397
230.085000 2735.578622 2739.471772 2744.081258 2743.678465 2747.853711 2751.126885
230.185000 2737.592748 2741.481679 2746.202351 2745.716138 2749.587223 2753.085273
230.285000 2739.803457 2743.697908 2748.166587 2747.818420 2751.533538 2755.247461
230.385000 2741.677477 2745.908924 2750.017893 2749.760430 2753.185184 2757.206625
230.485000 2743.521902 2748.214456 2752.106443 2751.701803 2754.825638 2758.907317
230.585000 2745.401905 2750.132302 2753.887177 2753.527814 2756.532714 2760.898044
230.685000 2748.019542 2752.225046 2755.436920 2755.261865 2757.945085 2762.730774
230.785000 2750.651533 2754.168754 2756.951653 2756.984778 2759.466978 2764.366157
230.885000 2752.414476 2755.970630 2758.428914 2758.616400 2761.022885 2766.006752
230.985000 2755.105880 2757.653353 2760.008537 2760.230477 2762.491346 2767.749474
231.005000 2755.405990 2757.956448 2760.329098 2760.552238 2762.820859 2767.969781
231.141111 2757.510616 2759.751883 2761.965822 2762.273821 2764.553320 2769.795068
231.277222 2759.237926 2761.367970 2763.567640 2763.984388 2766.554939 2771.657780
231.413333 2760.858129 2763.110872 2765.171027 2765.658407 2768.391424 2773.543089
231.549444 2762.463761 2764.770789 2766.724277 2767.268516 2770.176941 2775.258839
231.685556 2763.946368 2766.399300 2768.290491 2768.912293 2771.974348 2776.891377
231.821667 2765.632215 2768.030652 2769.833174 2770.575842 2773.977143 2778.401087
231.957778 2767.501061 2769.677347 2771.449819 2772.277326 2775.987831 2779.991996
232.093889 2769.200374 2771.420912 2773.062740 2774.003337 2778.071189 2781.916448
232.230000 2770.952251 2773.126956 2774.616947 2775.733582 2780.281535 2783.790163
232.280000 2771.608267 2773.826983 2775.298533 2776.465042 2781.125823 2784.589247
232.330000 2772.523426 2774.578361 2776.018774 2777.243100 2782.114015 2785.357973
232.380000 2773.214010 2775.320469 2776.764886 2778.063168 2783.109102 2786.109526
232.430000 2773.948394 2776.106267 2777.532894 2778.915394 2784.248674 2787.029906
232.480000 2774.800326 2776.942216 2778.377238 2779.816193 2785.386840 2787.959854
232.530000 2775.918539 2777.747528 2779.255013 2780.747454 2786.293387 2789.028082
232.580000 2776.940083 2778.580819 2780.260011 2781.712532 2787.261683 2789.988804
232.630000 2777.724175 2779.453854 2781.349441 2782.695684 2788.213863 2790.800806
232.680000 2778.535503 2780.380523 2782.472994 2783.727075 2789.269856 2791.665941
232.730000 2779.378816 2781.414090 2783.679192 2784.798507 2790.192048 2792.469205
232.780000 2780.351666 2782.418606 2784.936839 2785.934335 2791.276999 2793.368588
232.830000 2781.355596 2783.368987 2786.151111 2787.087513 2792.101720 2794.243459
232.880000 2782.396537 2784.597747 2787.463852 2788.254882 2793.052923 2795.014462
232.980000 2784.741407 2787.061525 2790.047438 2790.561290 2794.784707 2796.366126
233.030000 2785.985366 2788.222880 2791.349125 2791.742549 2795.779915 2797.163639
233.080000 2787.207155 2789.554823 2792.892239 2792.949947 2796.583227 2797.963617
233.130000 2788.383009 2790.890087 2794.134010 2794.128583 2797.576851 2798.788610
233.180000 2789.466012 2792.097082 2795.306571 2795.205010 2798.353383 2799.547621
233.230000 2790.857504 2793.424686 2796.585731 2796.345802 2799.317036 2800.322915
233.280000 2792.144594 2794.619658 2797.751018 2797.421248 2800.100505 2801.253629
233.330000 2793.689635 2795.937610 2798.814613 2798.494244 2800.918725 2801.999222
233.380000 2794.995891 2797.134354 2799.901109 2799.565339 2801.694132 2802.805323
233.430000 2796.360459 2798.450524 2801.013021 2800.625802 2802.605676 2803.531097
233.480000 2797.972040 2799.788150 2802.090174 2801.755622 2803.454470 2804.431154
233.530000 2799.357955 2801.177933 2803.157917 2802.874037 2804.389998 2805.279915
233.575000 2800.528923 2802.257118 2804.017554 2803.805928 2805.246335 2806.170889
233.625000 2801.555988 2803.486274 2805.016701 2804.834503 2806.179187 2807.233439
233.675000 2802.919799 2804.585597 2806.012300 2805.899819 2807.182783 2808.317657
233.725000 2804.153463 2805.675843 2806.952631 2806.899373 2808.124287 2809.331711
233.775000 2805.220697 2806.667212 2807.910261 2807.845046 2809.034573 2810.395394
233.825000 2806.176197 2807.618306 2808.793216 2808.749068 2809.906597 2811.292481
233.875000 2807.009981 2808.459202 2809.644541 2809.654493 2810.806770 2812.441186
233.925000 2808.141230 2809.318028 2810.548452 2810.597111 2811.896902 2813.364329
233.975000 2808.989587 2810.325827 2811.499667 2811.560386 2812.962331 2814.313891
234.025000 2809.755090 2811.166547 2812.417627 2812.558697 2814.082076 2815.835753
234.075000 2810.628998 2812.069008 2813.495895 2813.635551 2815.297899 2817.272446
234.125000 2811.501938 2813.023130 2814.490520 2814.717149 2816.468184 2818.691958
234.175000 2812.544211 2813.966693 2815.730429 2815.915915 2817.849779 2820.612269
234.225000 2813.622046 2814.976879 2816.978642 2817.270565 2819.546762 2823.014518
234.275000 2814.596511 2816.035479 2818.315097 2818.725610 2821.532730 2825.229646
234.325000 2815.794994 2817.464778 2819.995657 2820.502831 2823.641062 2828.058865
234.375000 2816.783924 2818.838883 2821.930560 2822.415264 2825.943449 2830.855595
234.425000 2817.859622 2820.673713 2824.187454 2824.493576 2828.229989 2833.207980
234.475000 2819.617433 2822.668794 2826.577855 2826.809895 2830.856394 2835.447326
234.525000 2821.186518 2824.779236 2829.008134 2828.951392 2833.277183 2837.318900
234.575000 2822.630256 2826.703410 2831.195572 2831.144980 2835.615005 2839.258996
234.625000 2824.471008 2828.863631 2833.502210 2833.348776 2837.776019 2841.142925
234.725000 2831.635085 2835.357270 2838.852664 2838.655830 2842.198514 2844.526470
234.775000 2833.481588 2837.409381 2840.945044 2840.672928 2843.916756 2846.145759
234.825000 2836.398738 2839.608831 2842.740450 2842.495061 2845.391948 2847.483187
234.875000 2838.432928 2841.528442 2844.620279 2844.274702 2846.876672 2848.828578
234.925000 2840.358635 2843.424660 2846.249100 2845.965645 2848.345547 2850.356181
234.975000 2842.419388 2845.041680 2847.634040 2847.477813 2849.726970 2851.820653
235.025000 2844.061124 2846.811015 2849.198226 2849.017481 2851.150571 2853.053777
235.075000 2845.601259 2848.586047 2850.644879 2850.490796 2852.447259 2854.554658
235.125000 2847.089428 2849.980849 2852.054965 2851.943174 2853.845665 2856.324870
235.175000 2848.971583 2851.368031 2853.295514 2853.287080 2855.117478 2857.742494
235.225000 2850.504927 2852.691165 2854.554523 2854.667864 2856.569558 2859.547892
235.275000 2852.026297 2854.121410 2855.938114 2856.067205 2858.077832 2860.902627
235.325000 2853.536004 2855.437915 2857.378271 2857.518355 2859.716015 2862.545291
235.375000 2855.043787 2856.789259 2858.845471 2859.021186 2861.214871 2863.919733
235.425000 2856.331490 2858.212851 2860.325498 2860.572505 2862.838820 2865.756981
235.475000 2857.484516 2859.624000 2861.852212 2862.043915 2864.417013 2868.378739
235.525000 2858.994526 2860.952548 2863.323006 2863.501469 2865.905094 2869.871060
235.575000 2860.101908 2862.358236 2864.809461 2864.981899 2867.526631 2872.025860
235.625000 2861.462041 2863.723659 2865.987826 2866.414023 2868.885999 2874.011191
235.675000 2862.798809 2865.193611 2867.434863 2867.884097 2870.442957 2875.573408
235.725000 2864.120942 2866.563124 2868.700167 2869.354309 2872.119956 2877.665674
235.775000 2865.657872 2868.026338 2870.000823 2870.845880 2873.900560 2879.673268
235.825000 2867.251844 2869.342506 2871.462031 2872.429006 2875.664767 2883.074835
235.875000 2868.677410 2870.635963 2872.900053 2873.961938 2877.683312 2886.674998
235.925000 2869.935388 2871.931313 2874.188466 2875.555191 2879.612429 2888.821627
235.975000 2871.151781 2873.194213 2875.556631 2877.221582 2881.756740 2891.458894
236.025000 2872.551135 2874.532863 2877.033092 2878.917275 2884.300614 2893.991268
236.075000 2873.967117 2875.975335 2878.604541 2880.708482 2886.755244 2896.395618
236.125000 2875.358394 2877.369249 2880.198230 2882.511575 2889.414734 2898.362834
236.175000 2876.928247 2878.893164 2882.118283 2884.433468 2891.550794 2900.620007
236.225000 2878.360289 2880.427880 2884.200030 2886.331220 2893.666042 2902.532113
236.325000 2880.837814 2883.286129 2888.129144 2890.617350 2900.696111 2906.424732
236.375000 2882.040998 2884.782053 2890.030433 2892.667305 2903.270375 2908.229807
236.425000 2883.312459 2886.481165 2892.070099 2894.702581 2905.568095 2910.193892
236.475000 2884.669669 2888.221474 2894.793240 2896.883533 2907.678833 2911.892893
236.525000 2886.100650 2889.910323 2898.282272 2899.168883 2909.347680 2913.009673
236.630000 2889.236858 2895.097707 2908.319162 2905.795106 2913.124178 2915.943383
236.680000 2890.972675 2898.556490 2910.765384 2908.062457 2914.734988 2917.534358
236.750000 2893.496172 2903.497596 2913.625070 2911.121164 2916.816834 2919.315198
236.780000 2894.251858 2905.021199 2914.706744 2912.265272 2917.752880 2920.387273
236.850000 2897.355861 2909.128025 2916.923731 2914.965565 2919.631511 2922.247632
236.880000 2899.642865 2910.529634 2917.916267 2915.993457 2920.582223 2923.216111
236.950000 2903.744072 2913.559461 2919.877450 2918.408197 2922.537994 2925.172583
236.980000 2904.955686 2914.794160 2920.843219 2919.424414 2923.435050 2926.086139
237.050000 2908.995119 2917.282706 2922.765582 2921.688602 2925.541932 2927.787519
237.080000 2910.732484 2918.275092 2923.717658 2922.673788 2926.389545 2928.697885
237.150000 2913.781842 2920.486591 2925.729527 2924.767823 2928.355964 2930.623759
237.180000 2915.124832 2921.492885 2926.687727 2925.729811 2929.306854 2931.477737
237.230000 2916.942958 2922.898099 2928.072755 2927.368701 2931.006494 2933.907522
237.280000 2918.885567 2924.731270 2929.707451 2929.046790 2932.850234 2936.625962
237.330000 2920.824734 2926.723591 2931.450687 2930.933667 2934.713390 2939.755181
237.430000 2925.152218 2929.702786 2935.009267 2934.789069 2939.237862 2945.613436
237.480000 2926.813546 2931.783085 2936.951498 2936.999560 2942.159688 2948.563218
237.530000 2928.522458 2933.628509 2939.014289 2939.372841 2945.127978 2951.018456
237.580000 2930.779747 2935.596359 2941.460718 2941.770408 2947.763468 2953.652118
237.630000 2932.642295 2937.947462 2944.115029 2944.360140 2950.693020 2956.798651
237.680000 2934.584510 2940.387623 2946.956472 2946.973316 2953.637208 2959.900123
237.730000 2936.043340 2942.565464 2949.728253 2949.632174 2956.445014 2961.852897
237.780000 2938.132719 2945.371968 2952.260297 2952.150438 2958.952925 2963.955575
237.830000 2939.859747 2947.771479 2954.923491 2954.585532 2961.377636 2965.895223
237.930000 2944.779432 2953.261350 2959.967359 2959.358085 2965.652766 2969.360764
237.980000 2947.384841 2955.352184 2962.491060 2961.720881 2968.117132 2971.570392
238.030000 2949.993905 2957.743637 2964.983317 2964.057381 2970.314469 2973.610930
238.080000 2952.859324 2960.332564 2967.738310 2966.571840 2972.687009 2976.077373
238.130000 2956.092368 2962.357850 2970.646335 2969.018346 2974.851117 2978.148694
238.175000 2958.923432 2964.420901 2973.111599 2971.411144 2977.056422 2980.117726
238.190000 2959.700589 2965.071069 2974.069042 2972.227051 2977.799390 2980.702165
238.225000 2961.653253 2966.835101 2976.114686 2974.190000 2979.641729 2983.127948
238.240000 2962.047501 2967.660873 2977.205284 2975.067349 2980.567539 2984.231433
238.275000 2963.227413 2969.480240 2979.218369 2977.098151 2982.614095 2986.635898
238.290000 2963.963439 2970.253850 2979.991996 2977.961992 2983.636870 2987.625937
238.325000 2965.854616 2971.918492 2981.911233 2980.035201 2985.810288 2990.044805
238.340000 2966.463799 2972.697964 2982.747361 2980.955560 2986.811637 2991.184793
238.375000 2968.040695 2974.797300 2984.903068 2983.208777 2989.768442 2993.609601
238.390000 2969.157122 2975.721796 2985.887117 2984.150886 2990.773362 2994.675345
238.425000 2970.632328 2977.914307 2988.099588 2986.591911 2993.553086 2996.834091
238.440000 2971.530228 2978.646198 2989.263712 2987.552000 2994.576036 2997.897266
238.475000 2974.220224 2980.790138 2991.896564 2990.054507 2997.011425 3000.466080
238.525000 2977.081948 2984.015225 2996.151939 2993.643486 3000.792431 3003.287137
238.540000 2977.582608 2984.975822 2997.257244 2994.699654 3001.841169 3004.429275
238.575000 2980.006202 2986.837665 2999.967464 2997.015999 3004.044849 3006.336815
238.590000 2980.675880 2987.620439 3000.964101 2998.008844 3005.051595 3007.256938
238.625000 2982.434949 2990.085235 3003.607483 3000.264780 3007.184060 3009.480993
238.640000 2983.752297 2990.849496 3004.409767 3001.190824 3008.096877 3010.440279
238.690000 2986.242282 2993.741005 3007.134438 3004.141713 3010.782000 3012.901689
238.725000 2988.091541 2995.705948 3009.123658 3006.190519 3012.511729 3014.705247
238.740000 2989.171751 2996.591966 3010.000327 3007.111342 3013.325280 3015.532465
238.775000 2991.137075 2998.709210 3012.175159 3009.120894 3015.022573 3017.665073
238.790000 2991.903246 2999.709180 3013.068932 3010.006852 3015.846341 3018.580290
238.825000 2994.243975 3001.334332 3014.915053 3012.000532 3017.663363 3020.895848
238.840000 2995.174533 3002.348830 3015.779889 3012.832625 3018.331348 3021.582914
238.875000 2997.140142 3005.380937 3017.604175 3014.811430 3019.976811 3023.537128
238.890000 2997.705609 3006.877240 3018.369130 3015.697146 3020.758193 3024.814471
238.925000 2999.898872 3009.677308 3020.131642 3017.616691 3022.336890 3027.183518
238.940000 3000.961206 3010.732013 3020.939830 3018.456488 3022.992915 3028.166339
238.975000 3002.863457 3013.118153 3022.619775 3020.329723 3024.628358 3030.328752
238.990000 3003.401562 3014.608013 3023.333552 3021.123266 3025.253481 3031.503573
239.025000 3005.995695 3017.908252 3024.995067 3022.959970 3026.904052 3033.709323
239.040000 3006.919438 3018.894324 3025.753072 3023.793826 3027.612017 3034.680452
239.075000 3009.300122 3021.737771 3027.342890 3025.730101 3029.405719 3036.932466
239.090000 3010.245680 3022.548350 3028.042841 3026.559870 3030.220550 3037.659699
239.125000 3012.217067 3025.014825 3029.803605 3028.387381 3031.935427 3039.813334
239.140000 3013.246088 3025.503629 3030.533239 3029.238287 3032.881379 3040.969440
239.180000 3015.714652 3029.204403 3032.453860 3031.492048 3035.148530 3043.219978
239.190000 3016.397507 3029.686346 3032.946444 3032.089469 3035.866360 3043.827872
239.230000 3018.676354 3032.146592 3034.940013 3034.424153 3038.484816 3046.888299
239.240000 3019.347724 3032.663994 3035.517552 3035.051245 3039.224648 3047.618559
239.280000 3021.629193 3034.751419 3037.640555 3037.586982 3041.873492 3050.885881
239.290000 3022.259708 3035.383301 3038.279451 3038.254233 3042.849035 3051.822601
239.330000 3024.980516 3037.468878 3040.625031 3040.826972 3045.757340 3054.819335
239.340000 3025.414996 3037.977031 3041.188583 3041.489106 3046.431234 3055.430400
239.380000 3027.748759 3039.961611 3043.954794 3044.053576 3049.161931 3057.585882
239.390000 3028.451451 3040.537030 3044.742464 3044.749793 3049.966067 3058.230398
239.430000 3031.163274 3042.507404 3047.338797 3047.373798 3053.295083 3060.374114
239.480000 3035.023061 3044.926122 3050.507233 3050.566771 3058.009970 3062.737812
239.490000 3035.567221 3045.557298 3051.174249 3051.255390 3058.887336 3063.234292
239.530000 3038.986831 3047.988248 3053.743479 3053.898178 3061.910689 3065.275845
239.540000 3039.893300 3048.479653 3054.525524 3054.582061 3062.522887 3065.798354
239.580000 3042.245645 3050.945224 3057.112838 3057.308151 3065.053261 3068.058973
239.590000 3042.885694 3051.686637 3057.839097 3058.007869 3065.574290 3068.797814
239.630000 3046.705405 3054.903966 3060.578518 3060.908107 3067.903713 3070.962986
239.680000 3052.070854 3058.740881 3064.960225 3064.707418 3070.875313 3074.046200
239.690000 3052.768446 3059.495105 3065.740827 3065.466755 3071.492256 3074.502776
239.730000 3057.029970 3063.166743 3070.209042 3069.022882 3074.435123 3077.523658
239.740000 3057.644589 3063.922685 3071.152201 3069.797709 3075.264569 3078.205333
239.780000 3060.709767 3067.613641 3075.513892 3073.842311 3078.820141 3080.740232
239.790000 3061.558910 3068.377194 3076.341756 3074.649591 3079.595464 3081.353569
239.830000 3064.352033 3074.187001 3079.719754 3078.222229 3082.151543 3083.622997
239.840000 3064.749479 3075.283350 3080.497197 3078.959266 3082.677676 3084.162011
239.880000 3067.205987 3080.081857 3083.310460 3081.840806 3084.749158 3085.861965
239.890000 3067.813128 3081.015525 3083.879490 3082.500705 3085.326811 3086.474836
239.930000 3070.574778 3083.788937 3086.009267 3084.790087 3087.246176 3088.352078
239.940000 3071.169267 3084.517198 3086.492044 3085.355593 3087.731857 3088.954821
239.980000 3073.689978 3086.651993 3088.316837 3087.348907 3089.486442 3090.710389
239.990000 3074.284225 3087.173615 3088.773904 3087.871381 3090.004297 3091.299877
240.040000 3078.773071 3089.278767 3090.813340 3090.163456 3092.027694 3093.491375
240.080000 3081.705963 3091.035175 3092.451773 3092.026147 3093.849819 3095.380050
240.090000 3082.883599 3091.584233 3092.932118 3092.544161 3094.369751 3095.924149
240.130000 3086.547107 3093.318202 3094.831607 3094.561038 3096.419599 3097.927802
240.140000 3087.217270 3093.826180 3095.362315 3095.124722 3096.978871 3098.511645
240.180000 3090.254852 3095.756445 3097.398425 3097.265629 3099.163193 3100.849853
240.190000 3091.034069 3096.249967 3097.967642 3097.829146 3099.705514 3101.547158
240.230000 3095.707180 3098.300239 3100.088186 3099.975468 3101.772460 3103.502097
240.240000 3096.494543 3098.873476 3100.720256 3100.547075 3102.270620 3103.967431
240.280000 3098.525965 3100.968462 3102.777458 3102.712558 3104.288606 3106.467200
240.290000 3099.283337 3101.593385 3103.398399 3103.263237 3104.847294 3107.171930
240.330000 3101.937987 3103.732982 3105.378490 3105.315283 3106.626928 3109.356640
240.340000 3102.381597 3104.326565 3105.943739 3105.844000 3107.088327 3109.903761
240.380000 3104.536245 3106.440407 3107.729363 3107.737156 3108.795874 3111.620583
240.390000 3105.226542 3106.939560 3108.203046 3108.242076 3109.284703 3112.471269
240.430000 3107.224155 3108.770408 3109.915713 3110.055263 3111.203499 3114.412402
240.440000 3107.865878 3109.239203 3110.343282 3110.557199 3111.691828 3115.245559
