depth(m) lower_95(kyr) lower_68(kyr) median(kyr) mean(kyr) upper_68(kyr) upper_95(kyr)
117.310000 1550.432642 1555.092468 1559.566757 1558.954639 1562.436905 1564.606941
117.390000 1552.658777 1557.418586 1561.124282 1560.603558 1563.838893 1565.879048
117.490000 1555.124691 1559.521990 1563.011830 1562.609329 1565.581856 1567.562507
117.610000 1559.151618 1562.389688 1565.357338 1565.073124 1567.591387 1569.632711
117.700000 1561.550523 1564.841820 1567.379431 1567.115936 1569.414549 1571.582614
117.790000 1564.136514 1567.294281 1569.522659 1569.442703 1571.560277 1574.021636
117.910000 1567.882922 1570.307392 1572.377246 1572.483425 1574.958513 1577.733641
117.990000 1570.110374 1572.142873 1574.364574 1574.495199 1576.969433 1579.537445
118.090000 1572.604071 1574.630801 1576.866520 1576.925388 1579.230330 1581.950277
118.220000 1575.497845 1577.893920 1580.258284 1580.316367 1582.820426 1585.716691
118.300000 1577.762885 1580.171435 1582.787086 1582.938905 1585.636725 1589.134555
118.390000 1580.284109 1582.857565 1585.747794 1585.893856 1588.951967 1592.342952
118.510000 1583.424545 1586.275087 1589.603197 1589.659778 1592.983304 1596.101944
118.590000 1585.293059 1588.624291 1591.846281 1591.929668 1595.384690 1598.660655
118.660000 1587.059123 1590.374488 1593.910047 1593.901094 1597.266384 1600.941931
118.735000 1589.064968 1592.602869 1596.091054 1596.049003 1599.443681 1603.061722
118.810000 1590.822614 1594.777129 1598.280994 1598.154582 1601.592539 1604.880337
118.890000 1593.368745 1597.228835 1600.582770 1600.513941 1603.848048 1606.677538
118.990000 1595.534122 1600.299598 1603.766450 1603.492160 1606.668609 1609.272301
119.110000 1599.866758 1604.262184 1607.532866 1607.203655 1610.183404 1612.950471
119.200000 1602.627459 1606.796531 1609.705211 1609.509509 1612.294254 1615.210243
119.290000 1604.620489 1608.516062 1611.644067 1611.471955 1614.471787 1617.598304
119.410000 1607.302334 1610.958549 1613.991076 1613.951108 1616.883066 1620.902723
119.490000 1609.352879 1612.561651 1615.500981 1615.510099 1618.310306 1623.150526
119.590000 1611.369867 1614.567750 1617.329740 1617.427791 1620.209308 1625.799721
119.710000 1613.554730 1616.708318 1619.332207 1619.672667 1622.509927 1628.679565
119.800000 1615.189770 1618.353505 1620.896346 1621.312733 1624.258996 1630.613381
119.890000 1617.273175 1620.072160 1622.553988 1622.967248 1625.836032 1632.166830
120.010000 1619.244654 1622.373197 1624.930027 1625.234740 1628.080824 1634.210298
120.110000 1620.998918 1624.265544 1626.857875 1627.156400 1630.155262 1635.774887
120.210000 1622.643851 1626.133507 1628.783166 1629.122805 1632.274578 1637.195350
120.310000 1624.689362 1627.963481 1630.637369 1631.033694 1634.327559 1638.412443
120.410000 1626.841360 1629.784687 1632.666760 1632.926771 1636.258588 1639.976691
120.510000 1629.224150 1631.768107 1634.864359 1634.925796 1638.176890 1641.355721
120.610000 1631.260692 1633.806261 1636.946137 1636.989840 1640.066406 1643.160598
120.700000 1633.480102 1636.150361 1638.976722 1639.098265 1642.142897 1644.580836
120.790000 1635.898270 1638.696906 1641.271655 1641.324114 1644.148944 1646.198001
120.910000 1639.767874 1641.968938 1644.444418 1644.365593 1646.750817 1648.646539
120.990000 1641.870581 1644.035098 1646.492313 1646.340832 1648.513820 1650.245931
121.090000 1644.452568 1646.522885 1648.627070 1648.473408 1650.389683 1651.933229
121.210000 1647.243517 1648.987924 1650.953774 1650.847055 1652.640802 1653.976569
121.300000 1649.033344 1650.819222 1652.532332 1652.485320 1654.070601 1655.602221
121.390000 1650.780605 1652.407141 1653.949347 1653.920688 1655.448691 1656.799176
121.510000 1652.750974 1654.176869 1655.776229 1655.734475 1657.252644 1658.410214
121.590000 1654.130578 1655.496017 1657.102651 1657.060610 1658.570846 1659.712260
121.660000 1655.330227 1656.703901 1658.386335 1658.347672 1659.894850 1661.389554
121.735000 1656.534549 1658.114076 1659.745634 1659.798336 1661.481080 1663.412308
121.810000 1657.757215 1659.417586 1661.115827 1661.209390 1662.992198 1665.183097
121.890000 1658.925124 1660.737943 1662.447009 1662.639367 1664.487209 1667.041648
121.990000 1660.380048 1662.161257 1664.052006 1664.196772 1666.168979 1668.959571
122.110000 1662.058012 1663.873159 1665.864967 1666.067314 1668.215639 1671.083287
122.200000 1663.380366 1665.251808 1667.484830 1667.590353 1669.969934 1672.978328
122.290000 1664.678402 1666.779894 1668.969380 1669.219368 1671.736168 1675.074888
122.390000 1666.321157 1668.353636 1671.071981 1671.238269 1674.087781 1677.481751
122.490000 1667.746791 1670.160488 1673.064912 1673.268661 1676.349969 1679.790330
122.586500 1669.542986 1672.056966 1675.123095 1675.317325 1678.672232 1682.471752
122.683000 1671.348780 1673.847939 1677.259099 1677.397014 1680.884699 1684.843850
122.710000 1671.844047 1674.334467 1677.849340 1677.969436 1681.423329 1685.515807
122.800000 1673.416022 1676.452181 1679.838665 1679.898291 1683.418187 1687.400709
122.890000 1675.354007 1678.376716 1681.640803 1681.831468 1685.224473 1688.934596
123.010000 1677.934299 1680.870080 1684.277165 1684.355009 1687.639297 1690.919889
123.090000 1679.805497 1682.751167 1686.089442 1686.123361 1689.413838 1692.457404
123.160000 1681.612235 1684.526169 1687.812433 1687.783681 1690.828107 1694.084364
123.235000 1683.234808 1686.590991 1689.753442 1689.714322 1692.922866 1695.809128
123.310000 1684.991743 1688.665873 1691.802518 1691.732148 1694.804769 1697.632938
123.400000 1688.394631 1691.591956 1694.497023 1694.537458 1697.574159 1700.280135
123.490000 1691.496037 1694.505364 1697.170621 1697.246342 1700.074697 1702.790576
123.610000 1693.631293 1696.578732 1699.577336 1699.534608 1702.514879 1705.201515
123.700000 1694.931436 1697.959637 1701.225124 1701.105812 1704.264359 1707.032070
123.790000 1696.080851 1699.368221 1702.788099 1702.607936 1705.714928 1708.813378
123.910000 1697.841418 1701.198529 1704.657819 1704.546823 1707.613719 1710.998652
123.990000 1699.322568 1702.569652 1705.924594 1705.845184 1708.899872 1712.692397
124.090000 1701.288065 1704.216930 1707.484427 1707.448047 1710.407202 1714.281855
124.210000 1703.171365 1706.266562 1709.415061 1709.351117 1712.163118 1716.102086
124.300000 1705.028555 1707.848922 1710.892383 1710.888839 1713.663361 1717.293555
124.405000 1706.833344 1709.705189 1712.523562 1712.620254 1715.309623 1719.017510
124.510000 1709.068002 1711.600074 1714.250448 1714.438333 1717.159640 1721.296369
124.590000 1710.724935 1712.922638 1715.416477 1715.799925 1718.527006 1723.234734
124.660000 1711.817753 1714.006351 1716.587846 1716.941880 1719.756736 1724.695222
124.735000 1712.887160 1715.120408 1717.706038 1718.163039 1721.153476 1726.713830
124.810000 1714.152442 1716.296346 1718.783158 1719.384667 1722.486757 1728.426053
124.890000 1715.297241 1717.449639 1719.974843 1720.684342 1723.991491 1730.273297
124.990000 1716.824789 1718.786843 1721.564321 1722.432225 1726.138278 1732.806684
125.110000 1718.485031 1720.549691 1723.587808 1724.622865 1729.218927 1736.087041
125.200000 1719.910089 1721.940131 1725.225713 1726.376051 1731.185301 1738.057339
