depth(m) lower_95(kyr) lower_68(kyr) median(kyr) mean(kyr) upper_68(kyr) upper_95(kyr)
68.140000 1494.178264 1509.148134 1515.283365 1514.842307 1521.847477 1526.640562
68.225000 1495.052977 1510.122717 1516.211629 1515.661530 1522.621803 1527.416858
68.310000 1495.409647 1511.089310 1517.236104 1516.511425 1523.356778 1527.831364
68.450000 1496.860105 1512.640191 1518.713400 1517.976951 1524.475416 1528.684439
68.525000 1497.501908 1513.370231 1519.453339 1518.710960 1525.047445 1529.347478
68.600000 1498.371517 1514.031687 1520.307040 1519.466119 1525.768458 1529.818289
68.685000 1499.178117 1515.154743 1521.062366 1520.335142 1526.559265 1530.528048
68.770000 1500.751036 1516.061133 1521.958768 1521.189770 1527.235440 1531.072754
68.904286 1504.725477 1517.755408 1523.627025 1522.713593 1528.180872 1531.943553
69.038571 1507.636734 1519.750059 1525.284225 1524.262843 1529.302126 1532.884044
69.172857 1511.933623 1521.650556 1526.631042 1525.762904 1530.288070 1533.853266
69.307143 1515.943272 1523.739787 1528.042219 1527.299676 1531.467173 1534.722702
69.441429 1518.773348 1525.442582 1529.400242 1528.708253 1532.694196 1535.729883
69.575714 1521.900876 1527.342424 1530.631661 1530.197725 1533.863669 1536.870116
69.710000 1524.779818 1529.111538 1531.983283 1531.666140 1535.069690 1537.869233
69.810000 1526.644750 1530.328378 1532.873047 1532.652297 1535.968429 1538.660341
69.950000 1528.688612 1531.690695 1534.291785 1534.037122 1537.181741 1539.713481
70.056667 1529.741123 1532.709597 1535.196643 1534.995147 1538.139462 1540.432782
70.163333 1530.697710 1533.704945 1536.138767 1535.906767 1539.110086 1541.152317
70.270000 1531.692972 1534.525823 1537.147258 1536.843719 1539.947054 1542.187300
70.370000 1532.580143 1535.294597 1538.111115 1537.697887 1540.729585 1543.029231
70.492500 1533.521814 1536.297737 1539.212743 1538.791078 1541.838188 1544.567461
70.615000 1534.672543 1537.259738 1540.239692 1539.816822 1542.940205 1545.781280
70.737500 1535.710745 1538.122854 1541.177592 1540.819077 1543.903451 1547.320587
70.860000 1536.642376 1538.936288 1542.259446 1541.846456 1544.906214 1548.437659
70.985000 1537.643279 1539.866232 1543.306634 1542.944504 1546.247659 1550.519510
71.110000 1538.555530 1540.735348 1544.319986 1544.063748 1547.639320 1551.858268
71.216667 1539.081765 1541.505992 1545.230302 1545.008598 1548.964980 1552.874276
71.323333 1539.880034 1542.242859 1546.041585 1545.997026 1550.285278 1554.563524
71.430000 1540.572367 1543.139960 1547.025128 1547.037431 1551.796498 1556.346881
71.573333 1541.430127 1544.046315 1548.358874 1548.382646 1553.546024 1558.386551
71.716667 1542.293534 1544.925514 1549.388781 1549.716636 1555.282132 1560.281257
71.860000 1543.188433 1545.895543 1550.679719 1551.067805 1557.249162 1562.157087
71.985000 1543.796294 1546.582078 1551.966950 1552.287666 1558.895203 1563.811591
72.110000 1544.421123 1547.356239 1553.135594 1553.499201 1560.440612 1565.178640
72.245000 1545.459134 1548.228039 1554.761594 1554.817138 1562.171949 1566.557297
72.380000 1546.184753 1549.083547 1556.337707 1556.044159 1563.677154 1567.589263
72.515000 1546.915205 1549.967507 1557.968174 1557.312543 1564.997931 1569.142358
72.650000 1547.592250 1550.789321 1559.416832 1558.528496 1566.232491 1570.151621
72.785000 1548.353900 1551.671645 1560.844596 1559.706479 1567.366573 1571.082726
72.920000 1549.315350 1552.516898 1562.417909 1560.851976 1568.532090 1572.028386
73.046667 1550.115902 1553.267103 1564.064479 1561.891826 1569.480451 1572.880681
73.173333 1550.918004 1554.051043 1565.276196 1562.873891 1570.539300 1573.757060
73.300000 1551.711656 1555.039549 1566.342966 1563.838914 1571.481029 1574.724198
73.443000 1552.578322 1556.085163 1567.505192 1564.902603 1572.557246 1576.006556
73.586000 1553.421841 1557.259241 1568.396050 1565.911177 1573.537693 1576.913072
73.729000 1554.427891 1558.344780 1569.243770 1566.892519 1574.347069 1577.944002
73.872000 1555.638366 1559.600005 1570.240502 1567.889705 1575.170109 1578.929088
74.015000 1556.830000 1560.636489 1570.939092 1568.860530 1576.098515 1579.807274
74.158000 1558.009947 1561.667419 1571.831547 1569.818538 1576.961676 1580.542160
74.301000 1558.900140 1562.732054 1572.548108 1570.761720 1577.799474 1581.291843
74.444000 1559.942406 1563.914320 1573.114993 1571.719637 1578.611887 1582.213343
74.587000 1560.896690 1564.969832 1573.979579 1572.688465 1579.427262 1583.151511
74.730000 1562.071669 1566.319119 1574.817719 1573.661444 1580.379054 1584.016327
74.873000 1563.092705 1567.657605 1575.662743 1574.635362 1581.389813 1584.819959
75.016000 1564.297838 1568.806805 1576.522063 1575.613864 1582.377088 1585.717499
75.159000 1565.308534 1569.967454 1577.314215 1576.594538 1583.188195 1586.611198
75.302000 1566.407995 1571.198490 1578.126980 1577.565611 1584.076988 1587.312575
75.445000 1567.880286 1572.370697 1578.929445 1578.564914 1584.968544 1588.253462
75.588000 1568.896481 1573.571505 1579.652514 1579.518837 1585.875124 1589.091904
75.731000 1570.040662 1574.725506 1580.419387 1580.517276 1586.806301 1590.022281
75.874000 1571.341724 1575.915276 1581.283787 1581.516032 1587.614112 1590.820090
76.017000 1572.659433 1577.248475 1582.159935 1582.564190 1588.456137 1591.850376
76.160000 1574.070023 1578.642339 1583.088085 1583.625255 1589.318368 1592.719943
76.235000 1574.820706 1579.338459 1583.574403 1584.221187 1589.834356 1593.189854
76.310000 1575.384025 1580.097983 1584.176360 1584.848952 1590.446537 1593.810365
76.420000 1576.850064 1581.351850 1585.208317 1585.886500 1591.248551 1594.602834
76.530000 1578.363312 1582.523997 1586.231974 1586.897266 1592.010515 1595.321357
76.620000 1579.807232 1583.458235 1587.384856 1587.797355 1592.670072 1595.837856
76.710000 1581.051277 1584.470107 1588.445919 1588.724083 1593.359640 1596.426128
76.847500 1582.827724 1586.105684 1590.000638 1590.138852 1594.537251 1597.468976
76.985000 1584.455956 1587.736053 1591.477921 1591.626157 1595.730283 1598.580745
77.122500 1586.373379 1589.615332 1593.265757 1593.170437 1596.749901 1599.510573
77.260000 1588.163318 1591.480160 1594.828831 1594.667760 1597.758737 1600.617511
77.380000 1589.831604 1592.894073 1596.103389 1595.945858 1598.815799 1601.547454
77.500000 1591.406404 1594.410376 1597.356730 1597.219345 1599.908720 1602.704764
77.585000 1592.430367 1595.280670 1598.172696 1598.052356 1600.611798 1603.548015
77.670000 1593.377803 1596.174318 1598.934634 1598.838807 1601.307994 1604.389539
77.750000 1594.050139 1596.926233 1599.575617 1599.530881 1602.011857 1605.134685
77.830000 1594.763312 1597.620034 1600.217145 1600.201247 1602.677658 1605.683216
77.948000 1595.624253 1598.500515 1601.125072 1601.138127 1603.668538 1606.853888
78.066000 1596.279463 1599.319229 1601.936832 1602.051248 1604.598806 1608.499960
78.184000 1597.553121 1600.275259 1602.815005 1602.975092 1605.474710 1609.615492
78.302000 1598.394094 1601.371703 1603.734176 1603.923565 1606.381924 1610.718392
78.420000 1599.390111 1602.423708 1604.769753 1604.889327 1607.231076 1611.784022
78.510000 1600.121278 1603.145652 1605.486160 1605.635388 1607.962222 1612.631744
78.600000 1600.698848 1603.859719 1606.238996 1606.367366 1608.730685 1613.566247
78.710000 1601.563895 1604.692148 1607.234334 1607.289168 1609.577366 1614.543592
78.813333 1602.457609 1605.479982 1608.039756 1608.167130 1610.489299 1615.647944
78.916667 1603.386528 1606.292362 1608.903048 1609.028004 1611.340213 1616.174291
79.020000 1604.326191 1607.298746 1609.797704 1609.940604 1612.326001 1617.237192
79.162500 1605.382586 1608.529353 1611.009048 1611.132843 1613.590981 1618.262871
79.305000 1606.438898 1609.600942 1612.151660 1612.296632 1614.780666 1619.489073
79.447500 1607.505656 1610.782239 1613.277556 1613.465728 1616.001161 1621.074296
79.590000 1608.718677 1612.017163 1614.526801 1614.681968 1617.120901 1622.246776
79.732500 1610.026188 1613.121940 1615.716784 1615.910948 1618.383531 1623.307089
79.875000 1611.018448 1614.396398 1616.976635 1617.096516 1619.679144 1624.123920
80.017500 1612.046694 1615.429951 1618.199483 1618.330304 1620.920750 1625.889657
80.160000 1613.188444 1616.767548 1619.356997 1619.573205 1622.211753 1627.038146
80.296667 1614.348969 1617.809857 1620.466020 1620.716113 1623.207582 1628.014787
80.433333 1615.579456 1619.098495 1621.613628 1621.884978 1624.411719 1629.027186
80.570000 1617.053839 1620.300445 1622.833783 1623.117937 1625.723282 1629.996838
80.690000 1618.319343 1621.505931 1623.863852 1624.186859 1626.818568 1631.515188
80.810000 1619.353046 1622.638062 1624.964234 1625.267952 1627.990994 1633.535127
80.900000 1620.240572 1623.675549 1625.898813 1626.137635 1628.844135 1634.170105
80.990000 1620.871737 1624.500427 1626.855866 1627.019713 1629.906134 1635.003065
81.000000 1621.039311 1624.574485 1626.968472 1627.122099 1630.005659 1635.065056
81.095000 1622.239089 1625.463653 1628.295147 1628.375410 1631.177607 1635.761456
81.190000 1623.061293 1626.464614 1629.603282 1629.598744 1632.420104 1636.509749
81.290000 1624.198350 1627.510045 1631.006850 1630.871069 1633.953940 1637.612846
81.390000 1625.357590 1628.433635 1632.273624 1632.087263 1635.285360 1638.845264
81.475000 1626.287677 1629.216496 1633.353131 1633.098065 1636.493142 1639.746119
81.560000 1627.066729 1630.011238 1634.454515 1634.082877 1637.531209 1640.631316
81.610000 1627.692404 1630.480314 1635.094711 1634.642647 1638.154332 1641.036273
81.730000 1629.158183 1631.880619 1636.486375 1636.017441 1639.662061 1642.092877
81.830000 1630.064250 1632.923856 1637.611152 1637.184499 1640.854217 1643.221428
81.850000 1630.229286 1633.113447 1637.814043 1637.395319 1641.071723 1643.393707
81.930000 1631.493525 1634.040453 1638.614232 1638.250588 1641.736711 1644.281188
82.010000 1632.662087 1635.280328 1639.302500 1639.077283 1642.435657 1645.027983
82.135000 1634.297060 1637.217726 1640.606393 1640.457401 1643.392527 1646.111589
82.260000 1635.878331 1639.199494 1641.896162 1641.863175 1644.528943 1647.354581
82.390000 1637.620520 1640.843291 1643.278590 1643.327830 1645.815834 1648.616451
82.520000 1639.736295 1642.272658 1644.695973 1644.796321 1647.192830 1650.333393
82.615000 1640.883013 1643.435064 1645.627081 1645.811729 1648.270187 1651.290609
82.710000 1641.988595 1644.446915 1646.548472 1646.804688 1649.297424 1652.046404
82.750000 1642.500345 1644.831862 1647.022708 1647.228411 1649.732976 1652.293458
82.875000 1643.931194 1645.971231 1648.207857 1648.438811 1651.030279 1653.647519
83.000000 1644.785369 1647.116490 1649.346416 1649.644475 1652.247601 1655.127293
83.125000 1646.190837 1648.228087 1650.475815 1650.810163 1653.533560 1656.453127
83.250000 1647.334519 1649.195519 1651.601357 1651.910086 1654.796565 1657.542926
83.395000 1648.524325 1650.304740 1652.706297 1653.131542 1656.110343 1659.209481
83.540000 1649.708678 1651.332426 1653.968158 1654.380351 1657.453618 1660.543545
83.640000 1650.427621 1652.147177 1654.867936 1655.248518 1658.359469 1661.606785
83.740000 1651.081790 1652.985027 1655.871952 1656.152503 1659.245611 1662.546064
83.840000 1651.945263 1653.805818 1656.791447 1657.095528 1660.419885 1663.692364
83.980000 1652.906161 1655.027663 1658.055603 1658.510156 1661.898959 1666.558107
84.120000 1654.041627 1656.175873 1659.401475 1660.021089 1663.678403 1669.224831
84.260000 1655.134585 1657.332634 1660.827777 1661.522201 1665.396940 1672.184118
84.400000 1656.363709 1658.482443 1662.137085 1663.104269 1667.290838 1675.000912
84.540000 1657.515901 1659.873146 1663.597455 1664.688523 1669.017737 1679.077749
84.645000 1658.419692 1660.833475 1664.760555 1666.001644 1670.672858 1682.393477
84.750000 1659.302356 1661.886788 1666.080357 1667.280047 1672.320420 1683.652515
84.850000 1659.940771 1662.848680 1667.431607 1668.643161 1674.398171 1685.727866
84.950000 1660.611042 1663.792236 1668.566458 1670.005942 1676.036987 1687.007544
85.050000 1661.427099 1664.825568 1670.099647 1671.394190 1678.164417 1688.024306
85.150000 1662.211740 1665.584300 1671.234829 1672.735383 1680.114729 1690.348822
85.250000 1662.954169 1666.563151 1672.809489 1674.065578 1681.780605 1692.071090
85.350000 1663.674387 1667.463035 1674.229621 1675.417585 1683.441691 1693.059368
85.480000 1664.650863 1668.690325 1676.118437 1677.341016 1685.953246 1694.546198
85.610000 1665.762397 1669.940248 1678.227237 1679.297610 1688.068712 1696.182744
85.640000 1665.986292 1670.329448 1678.530958 1679.661759 1688.480863 1696.436335
85.765000 1667.363190 1671.796055 1680.992503 1681.364006 1690.146355 1697.686115
85.890000 1668.778951 1673.355903 1683.219104 1683.191396 1692.076649 1698.886634
86.015000 1670.012418 1674.951714 1685.462472 1684.977538 1693.889760 1700.345945
86.140000 1671.080663 1676.676363 1687.585687 1686.729436 1695.503248 1702.773367
86.250000 1672.074007 1678.366322 1688.860404 1688.135379 1696.975692 1704.909174
86.395000 1673.546767 1681.141473 1690.400557 1690.160635 1698.612174 1706.517164
86.540000 1675.844512 1683.387465 1692.236263 1692.113115 1700.286529 1709.658078
86.643333 1677.311852 1685.481554 1693.180035 1693.363616 1701.446607 1711.566590
86.746667 1678.597578 1686.541096 1694.114400 1694.545885 1702.600724 1713.159244
86.850000 1679.732364 1688.106491 1694.962103 1695.687247 1703.717394 1713.991058
86.956667 1681.031460 1689.224166 1695.828933 1696.818955 1704.651828 1716.152720
87.063333 1682.210660 1690.721140 1696.650211 1697.960807 1705.845111 1719.775448
87.170000 1683.888836 1691.838379 1697.412822 1699.063371 1706.906675 1721.351906
87.315000 1685.759077 1693.296131 1698.473344 1700.625673 1708.352193 1723.642983
87.460000 1688.574577 1694.540127 1699.517531 1702.168114 1709.917840 1726.478932
87.555000 1690.147121 1695.416196 1700.291780 1703.138130 1710.948973 1728.041431
87.650000 1691.260169 1696.256447 1701.213075 1704.107391 1712.142712 1729.242982
87.750000 1693.037692 1697.096267 1701.912379 1705.137439 1713.988195 1730.629744
87.850000 1694.181551 1697.934065 1702.736920 1706.176396 1715.767133 1731.887011
87.950000 1694.845640 1698.734587 1703.567011 1707.272885 1717.273824 1733.896135
88.050000 1695.797879 1699.566113 1704.423996 1708.361115 1719.010185 1735.178537
88.195000 1696.735639 1700.671142 1705.518778 1710.095924 1723.566431 1736.738908
88.340000 1698.038459 1701.784108 1706.661189 1711.923245 1727.291581 1738.682935
88.440000 1698.924058 1702.544669 1707.611998 1713.027472 1728.741167 1739.511056
88.540000 1699.626293 1703.215208 1708.478258 1714.166731 1730.620593 1740.543645
88.640000 1700.373856 1703.916012 1709.338605 1715.296378 1732.258281 1741.506807
88.743333 1701.449656 1704.640313 1710.214618 1716.492634 1734.244725 1742.416229
88.846667 1702.132527 1705.449139 1711.094878 1717.707028 1736.026389 1743.199437
88.950000 1702.966561 1706.296955 1711.915308 1718.871670 1737.717787 1744.353759
89.045000 1703.675197 1707.008264 1712.788883 1719.954009 1739.628650 1745.500182
89.140000 1704.416620 1707.819357 1713.628161 1721.037163 1740.988712 1746.715440
89.250000 1705.260723 1708.615224 1714.696323 1722.250154 1742.566178 1748.238880
89.375000 1706.440639 1709.666284 1716.017737 1723.664946 1744.121738 1750.275574
89.500000 1707.253728 1710.745640 1717.509719 1725.111278 1746.068352 1752.478794
89.600000 1708.262726 1711.624794 1718.725323 1726.325961 1747.347167 1754.984822
89.700000 1709.115746 1712.708066 1719.937791 1727.558379 1748.299127 1756.318374
89.800000 1710.070602 1713.748605 1720.974965 1728.845589 1749.705071 1757.790766
89.930000 1711.726367 1715.443501 1722.263859 1730.850164 1751.793482 1762.400702
90.060000 1713.695339 1717.425340 1723.546830 1732.881275 1754.089658 1766.144093
90.190000 1715.370071 1719.410953 1725.231367 1734.968965 1756.708995 1771.097186
90.320000 1716.944876 1721.690001 1726.753862 1737.118008 1759.408820 1774.998568
90.450000 1719.731946 1723.620309 1728.648072 1739.131484 1763.104936 1777.047073
90.535000 1720.734653 1724.710029 1729.845819 1740.304668 1764.446887 1778.541797
90.620000 1721.928495 1725.626983 1730.860248 1741.409173 1767.642066 1779.491676
90.750000 1723.854708 1727.006818 1732.291446 1743.101021 1772.638899 1780.964690
90.875000 1725.317211 1728.143768 1734.063042 1744.859954 1774.386033 1781.970313
91.000000 1726.630841 1729.355290 1735.530934 1746.631210 1777.163107 1783.015728
91.116667 1727.846507 1730.376830 1737.023493 1748.338444 1778.818491 1784.130928
91.233333 1729.090194 1731.608939 1738.345649 1750.054329 1780.361645 1785.226993
91.350000 1730.277853 1732.757546 1739.885540 1751.796332 1782.122604 1786.283402
91.450000 1731.258961 1733.786656 1740.955958 1753.100778 1783.327654 1787.297259
91.550000 1732.075233 1734.896867 1742.043643 1754.388442 1784.391291 1788.062418
91.650000 1733.053018 1736.050375 1743.252667 1755.631386 1785.495964 1788.824183
91.783333 1734.225188 1737.361557 1744.621245 1757.451799 1786.751399 1790.171392
91.916667 1735.708256 1738.811968 1745.837846 1759.274961 1787.987289 1791.205313
92.050000 1737.548280 1740.430241 1747.213510 1761.171435 1789.540033 1792.243024
92.150000 1738.692517 1741.894412 1748.016376 1762.429805 1790.388345 1793.309707
92.250000 1739.858283 1743.333750 1749.286714 1763.711139 1791.507466 1794.192361
92.355000 1740.888320 1744.705675 1750.487811 1764.963774 1792.598531 1795.090121
92.460000 1742.137017 1745.921108 1751.482296 1766.148336 1793.814633 1796.192184
92.563333 1743.140361 1747.319779 1752.528166 1767.325898 1794.976963 1797.498116
92.666667 1744.433378 1748.458429 1753.579489 1768.462935 1795.986345 1798.654361
92.770000 1745.781716 1749.776753 1754.513323 1769.609767 1797.004881 1799.714622
92.890000 1747.045862 1751.413389 1755.621941 1770.978565 1798.187615 1800.913234
93.010000 1748.693571 1752.904809 1756.881317 1772.358626 1799.513818 1802.711207
93.123333 1750.339424 1754.229264 1757.940387 1773.612352 1800.733350 1804.224573
93.236667 1751.749531 1755.390319 1759.103068 1774.842041 1801.898236 1805.390170
93.350000 1753.292290 1756.821942 1760.398875 1776.116894 1803.034842 1806.623009
93.463333 1754.505149 1757.835589 1761.810724 1777.309271 1804.288670 1807.986611
93.576667 1755.383777 1758.919542 1762.947504 1778.456467 1805.407156 1809.232507
93.690000 1756.564347 1759.930603 1764.469944 1779.609887 1806.520900 1810.673142
93.793333 1757.644199 1760.859665 1765.898026 1780.664045 1807.538079 1811.614154
93.896667 1758.752085 1761.744052 1767.483084 1781.745380 1808.683161 1812.902594
94.000000 1759.650654 1762.593861 1768.584067 1782.768300 1809.766941 1813.969614
94.125000 1760.624168 1763.632390 1769.820183 1784.018477 1811.141554 1815.272981
94.250000 1761.548779 1764.595175 1771.187356 1785.344137 1812.855850 1816.583126
94.356667 1762.518615 1765.469209 1772.327376 1786.504545 1814.003881 1818.092613
94.463333 1763.178734 1766.326887 1773.451519 1787.649697 1815.225262 1819.736445
94.570000 1764.251843 1767.134221 1774.893494 1788.836875 1816.387585 1821.301588
94.705000 1765.652659 1768.246026 1776.776855 1790.434031 1817.811389 1822.483174
94.840000 1766.666395 1769.363408 1778.956313 1792.028660 1819.320335 1824.743871
94.970000 1767.873882 1770.643696 1781.869787 1793.700649 1820.812432 1826.820133
95.100000 1768.968367 1771.813446 1784.410778 1795.373429 1822.158265 1829.486337
95.220000 1770.110088 1773.017012 1787.486622 1797.017908 1823.450665 1830.877840
95.340000 1771.293503 1774.283342 1791.632464 1798.764341 1824.660862 1833.432598
95.460000 1772.527371 1775.853033 1795.946214 1800.648924 1826.017091 1835.064625
95.605000 1773.775618 1777.633437 1799.921944 1803.061921 1827.974871 1839.570268
95.750000 1775.155775 1779.375784 1803.142346 1805.497689 1829.844983 1842.003440
95.853333 1776.002772 1780.798794 1806.087368 1807.190822 1831.380949 1843.514926
95.956667 1777.244192 1782.339904 1807.408039 1808.882141 1832.841172 1845.175729
96.060000 1778.452335 1783.944921 1809.555073 1810.648739 1834.243383 1847.140944
