depth(m) lower_95(kyr) lower_68(kyr) median(kyr) mean(kyr) upper_68(kyr) upper_95(kyr)
49.300000 1486.480221 1497.387099 1506.095180 1504.856639 1512.150958 1517.127993
49.400000 1490.876938 1500.238401 1509.361071 1508.028933 1515.352395 1519.556570
49.500000 1493.654123 1503.250806 1512.359564 1511.036719 1518.172541 1521.777364
49.600000 1497.781320 1506.803049 1515.382851 1514.003693 1520.836902 1524.256621
49.700000 1500.889738 1510.255198 1518.007530 1517.011918 1523.551762 1526.670940
49.800000 1505.552753 1514.635063 1521.197505 1520.154646 1525.758949 1528.984949
49.900000 1510.023660 1518.498768 1524.357479 1523.330967 1528.107156 1531.410922
50.000000 1514.932245 1523.145061 1527.547609 1526.712978 1530.828401 1534.073093
50.100000 1519.221850 1527.234135 1530.533010 1530.049124 1533.714063 1536.978137
50.200000 1523.293521 1530.843633 1534.059692 1533.611746 1537.335937 1540.172401
50.300000 1529.396010 1534.894282 1538.142867 1537.604424 1541.102940 1544.100819
50.400000 1532.302606 1538.578090 1542.197185 1541.555297 1545.170493 1548.237491
50.500000 1535.442305 1542.161675 1545.662673 1545.010637 1548.665100 1551.247472
50.600000 1539.501277 1544.914484 1548.394330 1547.711351 1551.170880 1553.833304
50.700000 1542.632646 1547.479637 1550.760903 1550.220885 1553.657489 1556.215353
50.800000 1544.818569 1549.808257 1553.004010 1552.484553 1555.762795 1558.629633
50.900000 1547.488670 1552.063250 1555.197555 1554.786575 1557.951768 1560.612482
50.997000 1550.127875 1554.189439 1557.263416 1556.931446 1559.891944 1562.870054
51.094000 1552.379941 1556.279614 1559.306095 1559.068896 1561.947728 1564.449958
51.200000 1555.376765 1558.640309 1561.450411 1561.369560 1563.986212 1566.618588
51.300000 1557.608766 1560.898379 1563.505433 1563.477682 1565.978200 1568.795958
51.400000 1560.075843 1562.978606 1565.724677 1565.646537 1568.155211 1571.363946
51.500000 1562.307907 1565.256021 1567.889770 1567.990138 1570.593296 1574.352327
51.600000 1564.726506 1567.554403 1570.210870 1570.438974 1573.220702 1577.839211
51.733333 1567.640765 1570.548366 1573.451046 1573.869482 1577.035726 1583.649668
51.866667 1570.391239 1573.498571 1576.858379 1577.339752 1580.968713 1586.927229
52.000000 1573.287145 1576.679109 1580.372127 1580.980174 1585.012819 1592.294233
52.133333 1576.579762 1580.043281 1584.136552 1584.856520 1589.590078 1597.834787
52.266667 1579.594323 1583.574249 1587.968556 1588.877824 1594.136649 1603.080601
52.400000 1583.568193 1587.483662 1592.194514 1592.877284 1598.286530 1607.031010
52.500000 1585.993803 1590.612680 1595.493034 1596.216768 1602.074749 1609.855089
52.600000 1589.208851 1593.806618 1599.195295 1599.722577 1605.881399 1612.061709
52.700000 1592.470842 1596.927989 1603.275510 1603.338028 1609.967489 1614.338070
52.800000 1596.070507 1600.650049 1606.842962 1606.832303 1613.392837 1616.695095
52.900000 1600.333372 1605.089541 1610.417521 1610.342482 1616.041794 1618.891451
53.000000 1606.362046 1610.689857 1614.311523 1614.335064 1618.380033 1621.144395
53.100000 1611.611487 1614.926113 1617.991770 1617.941613 1621.026352 1623.593717
53.120000 1612.281852 1615.701852 1618.788316 1618.638657 1621.592725 1624.187447
53.170000 1614.822514 1617.820013 1620.382160 1620.355308 1623.009431 1625.232643
53.200000 1615.721716 1619.026035 1621.544254 1621.391705 1623.780956 1626.035922
53.220000 1616.670241 1619.831695 1622.245909 1622.079351 1624.415875 1626.604790
53.270000 1618.778927 1621.905745 1624.022445 1623.903198 1626.004091 1628.189481
53.300000 1620.404464 1623.297810 1625.177098 1625.053610 1627.055334 1628.909409
53.320000 1621.382452 1624.052566 1625.888577 1625.816882 1627.688530 1629.448386
53.370000 1623.048919 1625.794472 1627.696109 1627.578103 1629.423419 1631.078106
53.400000 1624.303352 1626.994209 1628.844718 1628.759240 1630.725879 1632.399676
53.420000 1625.102787 1627.615833 1629.561812 1629.432275 1631.266332 1633.062397
53.470000 1627.474278 1629.472568 1631.259628 1631.195572 1632.889910 1634.624247
53.500000 1628.519831 1630.483197 1632.191344 1632.117542 1633.773425 1635.511434
53.520000 1629.235419 1631.111970 1632.728992 1632.718232 1634.281552 1636.147820
53.570000 1630.654765 1632.464241 1633.991472 1634.038963 1635.641193 1637.300205
53.620000 1632.036235 1633.687863 1635.242330 1635.335033 1637.061980 1638.889717
53.670000 1633.288346 1635.019119 1636.571391 1636.653338 1638.400821 1640.152941
53.720000 1634.676235 1636.324715 1637.909424 1638.023603 1639.794412 1641.742688
53.770000 1636.089807 1637.781516 1639.488929 1639.583182 1641.436406 1643.323085
53.820000 1637.587686 1639.297076 1641.181299 1641.194350 1643.151176 1645.015096
53.870000 1638.879524 1640.741815 1642.540035 1642.598596 1644.513691 1646.441861
53.920000 1640.248175 1642.177243 1644.088300 1644.101816 1646.057992 1647.885902
54.020000 1642.606159 1644.517602 1646.612245 1646.542080 1648.474970 1650.539828
54.120000 1644.788054 1646.642090 1648.740545 1648.753949 1650.779021 1652.868691
54.170000 1645.874192 1647.879857 1649.955839 1649.931262 1651.870586 1653.938012
54.270000 1648.075666 1650.208876 1652.273464 1652.288894 1654.249743 1656.488936
54.320000 1649.409461 1651.395461 1653.515379 1653.518496 1655.499343 1657.445831
54.420000 1652.120076 1653.995383 1655.935705 1655.964445 1658.077831 1659.825390
54.470000 1653.498516 1655.343754 1657.240189 1657.328147 1659.435997 1661.184963
54.520000 1654.905265 1656.892174 1658.667263 1658.792056 1660.761800 1662.846346
54.570000 1656.711935 1658.563743 1660.478482 1660.607944 1662.609611 1665.248134
54.620000 1658.314760 1660.188301 1662.084210 1662.304561 1664.494754 1667.347893
54.670000 1660.069775 1661.762530 1663.945029 1664.160489 1666.654018 1669.233078
54.720000 1661.522726 1663.306199 1665.796146 1666.005586 1668.667985 1671.956338
54.845000 1664.277068 1666.917416 1670.094234 1670.225331 1673.343401 1677.192843
54.970000 1667.515041 1670.645351 1674.490478 1674.454345 1678.099451 1681.615595
55.045000 1669.432451 1672.737629 1676.830576 1676.834098 1680.613959 1684.996389
55.120000 1671.729960 1675.173348 1679.159607 1679.172968 1682.885235 1687.550067
55.220000 1674.816516 1678.035338 1682.082571 1682.181829 1685.927373 1690.562511
55.320000 1677.496691 1680.960002 1685.134532 1685.195728 1689.076264 1693.931135
55.420000 1680.379620 1683.874550 1688.314692 1688.523406 1692.709548 1698.401681
55.470000 1681.579382 1685.373598 1690.117890 1690.365634 1694.643134 1700.528810
55.603333 1685.330727 1690.397040 1696.178604 1696.495200 1702.639281 1709.969473
55.736667 1689.350181 1696.618273 1703.200579 1703.117088 1709.588518 1715.287768
55.870000 1694.302385 1704.471608 1710.772720 1709.863249 1715.026213 1719.567253
55.970000 1697.521039 1710.713424 1715.661547 1714.697858 1719.142503 1723.822168
56.070000 1700.767398 1715.041093 1719.109026 1718.507952 1722.769012 1727.350050
56.170000 1707.377336 1718.584657 1723.137844 1722.386744 1726.861900 1731.637805
56.220000 1709.599915 1720.196957 1724.883368 1724.255700 1729.084331 1733.509261
56.345000 1715.945075 1724.511972 1728.943213 1728.524172 1733.198775 1737.681751
56.470000 1722.161453 1728.890389 1733.105995 1732.816650 1737.176754 1741.236932
56.520000 1723.910907 1730.691177 1734.995611 1734.636798 1738.956061 1742.687686
56.630000 1730.546482 1735.432027 1738.976690 1738.811730 1742.430946 1745.801245
56.730000 1734.912888 1739.403292 1742.561480 1742.408445 1745.705912 1748.402703
56.830000 1737.804578 1742.579776 1745.749345 1745.542246 1748.859648 1751.350043
56.930000 1740.390634 1745.400305 1748.683678 1748.445450 1751.704571 1754.655087
57.030000 1743.342839 1748.017830 1751.466984 1751.251087 1754.589446 1757.426403
57.130000 1746.867999 1750.727021 1754.317748 1754.005484 1757.262904 1760.002578
57.230000 1750.270057 1753.550938 1756.956024 1756.786459 1759.868580 1762.955055
57.330000 1752.921942 1756.436637 1759.897696 1759.722615 1762.896383 1766.400245
57.430000 1755.549740 1759.012381 1762.338629 1762.437364 1765.690157 1770.626477
57.530000 1758.108733 1761.549889 1764.844226 1765.191922 1768.688502 1775.215966
57.658571 1760.652502 1764.576106 1767.980821 1768.808063 1773.298723 1781.439155
57.787143 1763.731415 1767.556856 1770.998902 1772.328074 1777.314517 1787.384515
57.915714 1766.803322 1770.385658 1774.487109 1775.931387 1781.994795 1791.888100
58.044286 1769.599621 1773.092409 1777.692313 1779.624115 1786.808641 1797.024074
58.172857 1772.433229 1775.945493 1781.478666 1783.395220 1791.673743 1801.131910
58.301429 1775.401009 1778.794086 1784.745900 1787.093704 1796.202033 1805.354681
58.430000 1778.036013 1782.179147 1788.497593 1790.838870 1800.409275 1812.140909
58.530000 1781.320279 1785.338785 1792.662786 1794.158682 1802.752809 1817.562094
58.630000 1784.493698 1789.987719 1796.269934 1797.737630 1805.441374 1823.484561
58.730000 1787.875644 1794.556501 1799.957014 1801.485519 1808.314014 1828.057374
58.830000 1792.897569 1798.645342 1804.001291 1805.368736 1811.285346 1834.575338
58.930000 1797.990824 1802.710471 1808.119666 1808.997077 1813.863211 1838.195062
59.030000 1801.469213 1806.300402 1811.777045 1812.402417 1816.853632 1841.134182
59.130000 1805.014577 1810.216818 1815.039640 1815.842008 1820.009677 1844.040907
59.230000 1808.569072 1814.035555 1818.403334 1819.309504 1823.522812 1847.748267
59.330000 1813.798294 1817.951187 1822.085148 1823.071478 1826.731059 1852.142024
59.430000 1818.698470 1822.567646 1826.325007 1827.088803 1830.126155 1855.095553
59.530000 1822.854539 1826.135301 1829.592938 1830.522391 1833.336535 1858.027557
59.630000 1826.143084 1829.619323 1832.907629 1833.771779 1836.231190 1860.150700
59.730000 1829.536543 1833.158092 1836.404385 1837.137133 1839.404768 1862.380584
59.830000 1833.175555 1836.881393 1840.266235 1841.252657 1844.282985 1864.649859
59.930000 1837.208990 1840.872433 1844.927410 1845.986581 1850.670896 1866.955907
60.030000 1841.494540 1846.008740 1850.183283 1850.835812 1854.977492 1869.349976
60.130000 1845.102292 1852.487927 1856.342956 1856.621461 1860.826123 1871.396228
60.230000 1851.999930 1857.058570 1860.784399 1860.973144 1864.773131 1873.664340
60.330000 1855.644757 1860.959213 1864.971755 1864.846674 1868.749857 1875.470043
60.430000 1858.647876 1864.411921 1868.599917 1868.548511 1872.896073 1878.122731
60.530000 1861.917117 1867.796847 1871.904008 1871.878769 1876.260739 1881.078297
60.640000 1866.276356 1871.429084 1875.297584 1875.325871 1879.530393 1883.576665
60.740000 1869.744199 1874.905519 1878.689440 1878.698801 1882.822210 1886.693549
60.840000 1872.501550 1878.034653 1882.004043 1882.044157 1886.559748 1889.776938
60.940000 1877.353007 1881.208368 1885.690098 1885.487548 1889.800689 1892.289184
61.040000 1880.508805 1884.953746 1889.671634 1888.846969 1892.426464 1894.855137
61.140000 1884.016601 1888.811987 1892.947695 1892.153241 1895.092180 1896.966274
61.240000 1888.438825 1892.995331 1895.743162 1895.247196 1897.611809 1899.356172
61.340000 1892.986955 1896.275330 1898.246906 1898.027252 1899.896286 1901.388738
61.440000 1897.604945 1899.322308 1900.983816 1900.920046 1902.559207 1904.043801
61.540000 1899.979878 1901.661991 1903.233649 1903.208576 1904.797378 1906.311325
61.640000 1902.089349 1903.723647 1905.391292 1905.329241 1906.837693 1908.791886
61.740000 1903.755931 1905.665716 1907.442038 1907.416368 1909.129181 1911.070534
61.840000 1906.021878 1907.725295 1909.555016 1909.548583 1911.260312 1913.467904
61.930000 1907.872342 1909.665660 1911.470139 1911.525087 1913.394423 1915.643876
62.030000 1909.951743 1911.863179 1913.682991 1913.797287 1915.846534 1918.187213
62.140000 1912.392190 1914.309802 1916.200229 1916.467265 1918.801871 1921.480116
62.240000 1914.439375 1916.710608 1918.907501 1919.157988 1921.652813 1924.953027
62.340000 1917.206094 1919.478023 1922.147406 1922.421748 1925.330047 1929.397255
62.440000 1920.318754 1922.858241 1925.836041 1926.370110 1930.015792 1935.102370
62.540000 1923.715408 1926.792667 1930.423861 1930.803301 1934.982288 1938.916443
62.640000 1927.087942 1930.555280 1935.131567 1935.253956 1939.840364 1944.865831
62.740000 1930.531727 1935.092755 1940.351346 1940.265112 1945.383221 1949.968036
62.840000 1935.612388 1940.668677 1945.399505 1945.330162 1950.174843 1953.846068
62.940000 1943.279702 1946.184782 1950.280692 1950.241153 1954.243514 1957.764781
63.040000 1947.039267 1950.381388 1954.307810 1954.159595 1957.858138 1960.674555
63.090000 1948.599027 1952.493365 1956.338500 1956.094298 1959.581197 1962.692566
63.140000 1950.736609 1954.430349 1958.201487 1957.922528 1961.430390 1964.155613
63.190000 1952.585510 1956.262637 1959.956752 1959.739707 1963.072544 1965.758881
63.240000 1954.055973 1958.255015 1961.591892 1961.418609 1964.673623 1967.186025
63.290000 1956.446055 1959.946624 1963.301941 1963.074409 1966.259427 1968.586720
63.340000 1958.215824 1961.732673 1964.856343 1964.705709 1967.787702 1969.948679
63.390000 1960.817028 1963.669045 1966.542651 1966.485314 1969.316007 1971.593583
63.440000 1963.088298 1965.605186 1968.465911 1968.345809 1971.051788 1973.276055
63.490000 1965.089670 1967.508179 1970.279960 1970.193240 1972.756154 1975.123408
63.540000 1967.307035 1969.708925 1972.456579 1972.347172 1974.712607 1977.296526
63.590000 1969.705533 1971.970765 1974.548453 1974.518810 1976.981975 1979.670941
63.640000 1971.497631 1974.158097 1976.613545 1976.620880 1979.206637 1981.720308
63.690000 1973.343620 1976.143708 1978.603186 1978.600072 1981.265668 1983.558923
63.740000 1975.155875 1977.979159 1980.525690 1980.529264 1983.077655 1985.519181
63.790000 1976.430249 1979.834781 1982.529631 1982.584053 1985.439414 1988.276994
63.890000 1979.956489 1983.155083 1986.471716 1986.661607 1990.342244 1994.357266
63.990000 1983.966081 1986.976347 1990.533039 1990.753912 1994.510140 1998.703574
64.090000 1988.720169 1991.512500 1994.616334 1994.868219 1998.246180 2002.145742
64.190000 1993.564945 1995.848854 1998.565961 1998.887470 2002.190071 2005.113206
64.240000 1995.754628 1997.929590 2000.645322 2000.855535 2004.049113 2006.683084
64.290000 1997.315063 1999.887267 2002.792027 2002.847909 2005.894943 2008.256877
64.340000 1999.037792 2002.104798 2005.037124 2005.017297 2007.906194 2010.241935
64.390000 2001.381816 2004.477953 2007.158874 2006.969173 2009.530077 2011.754516
64.440000 2003.482373 2006.640692 2009.152786 2008.988955 2011.238125 2013.424943
64.490000 2005.527297 2008.791606 2010.978802 2010.819107 2012.929987 2015.012412
64.540000 2008.354770 2010.714207 2012.790318 2012.729600 2014.726986 2016.914780
64.590000 2010.221949 2012.386765 2014.446218 2014.418798 2016.535842 2018.682142
64.640000 2011.550391 2013.837624 2015.901191 2015.882135 2018.026489 2019.999993
64.690000 2013.142962 2015.388807 2017.326060 2017.295453 2019.349663 2021.260528
64.740000 2014.952030 2016.894589 2018.818761 2018.853233 2020.927304 2022.721484
64.790000 2016.561969 2018.580013 2020.453169 2020.530253 2022.581507 2024.303999
64.840000 2018.316290 2019.958518 2022.020248 2022.037683 2024.124491 2025.716189
64.890000 2019.725988 2021.435806 2023.540212 2023.455359 2025.454419 2026.951136
64.940000 2021.116461 2022.880194 2025.043037 2024.899178 2026.866850 2028.564920
64.990000 2022.501091 2024.443842 2026.499113 2026.329153 2028.122817 2029.558762
65.040000 2023.850834 2026.089631 2027.903993 2027.759335 2029.495229 2030.800935
65.090000 2025.376386 2027.501573 2029.346681 2029.213459 2030.945829 2032.428289
65.140000 2027.175041 2029.010531 2030.735978 2030.675825 2032.323843 2033.727787
65.190000 2028.785925 2030.547430 2032.232479 2032.226754 2033.928551 2035.629112
65.240000 2030.241323 2031.843089 2033.489475 2033.545270 2035.258274 2037.005521
65.290000 2031.487451 2033.055296 2034.731797 2034.808506 2036.490527 2038.291703
65.340000 2033.106643 2034.507737 2036.181468 2036.259955 2037.869203 2039.792771
65.390000 2034.757165 2035.963355 2037.782092 2037.779370 2039.393975 2041.340951
65.440000 2036.153793 2037.529883 2039.228792 2039.260400 2040.889430 2042.889102
65.490000 2037.492401 2039.057196 2040.649655 2040.705591 2042.332304 2044.321839
65.540000 2038.671447 2040.424246 2042.064594 2042.123023 2043.819409 2045.873160
65.590000 2040.018126 2041.875932 2043.560319 2043.615332 2045.324368 2047.732436
65.640000 2041.377485 2043.314971 2045.114667 2045.211368 2047.186234 2049.582400
65.690000 2042.723501 2044.769494 2046.741841 2046.794140 2048.845193 2051.247172
65.765000 2044.599134 2046.666701 2048.753230 2048.825900 2050.894782 2053.464001
65.840000 2046.581833 2048.521951 2050.775306 2050.745517 2052.882727 2055.004550
65.940000 2048.726702 2050.825558 2053.213600 2053.225588 2055.582444 2057.908591
66.040000 2050.979360 2053.059282 2055.467894 2055.554260 2058.063133 2060.369805
66.140000 2053.481469 2055.604389 2058.081119 2058.056356 2060.512952 2062.683448
66.240000 2056.562878 2058.694220 2061.067816 2061.010605 2063.295639 2065.283839
66.340000 2060.359950 2062.590148 2064.874062 2064.744163 2066.825188 2068.829797
66.390000 2062.843300 2065.137163 2066.989674 2067.075614 2069.093227 2071.403880
66.440000 2064.968916 2066.883137 2068.768837 2068.849607 2070.872026 2073.166186
66.540000 2067.876090 2069.718492 2071.594175 2071.689916 2073.751006 2076.185771
66.615000 2069.761393 2071.692006 2073.848603 2073.935321 2076.143284 2078.359509
66.690000 2071.699436 2073.810064 2075.945670 2076.044089 2078.323393 2080.416183
66.765000 2073.318518 2075.710149 2077.975209 2077.981889 2080.135879 2082.358354
66.840000 2075.473877 2077.750380 2079.858178 2079.906528 2081.964764 2083.938617
66.890000 2076.929528 2079.103146 2081.258705 2081.306074 2083.361873 2085.255819
66.940000 2078.268740 2080.388623 2082.499161 2082.534769 2084.584522 2086.810400
67.040000 2081.034303 2082.981739 2085.059315 2085.093099 2086.946437 2089.400384
67.140000 2084.275190 2085.908478 2087.842523 2088.021704 2089.811878 2093.237373
67.230000 2086.472312 2088.058863 2090.066036 2090.392191 2092.201714 2097.522896
67.240000 2086.779911 2088.338555 2090.318034 2090.684795 2092.538917 2097.872750
67.340000 2088.981352 2090.821166 2092.735690 2093.461677 2095.649126 2102.616793
67.440000 2091.304650 2093.232862 2095.460217 2096.429159 2099.123188 2109.475763
