depth(m) lower_95(kyr) lower_68(kyr) median(kyr) mean(kyr) upper_68(kyr) upper_95(kyr)
0.000000 3.744754 4.460300 5.274476 5.279241 6.079066 6.882701
0.020000 3.994254 4.703655 5.513345 5.527790 6.328074 7.153973
0.100000 4.796825 5.515528 6.423562 6.523510 7.529987 8.832654
0.240000 5.905541 7.004506 8.450068 8.800147 10.693591 13.387786
0.380000 7.212334 8.765952 11.077543 11.225669 13.718663 16.333972
0.520000 9.098726 11.125999 13.937656 13.780816 16.267819 18.301855
0.660000 11.146563 14.276124 16.287348 16.178670 18.149480 20.066111
0.800000 15.788814 16.962865 18.297223 18.452858 19.984751 21.954401
0.900000 16.890125 18.005813 19.418574 19.561354 21.102022 23.103416
1.033333 17.916266 19.183351 20.762688 20.862381 22.533939 24.576179
1.166667 18.958314 20.341137 22.003061 22.079152 23.745540 25.963702
1.300000 20.009760 21.484379 23.238287 23.324307 25.041428 27.557831
1.400000 20.796129 22.429632 24.111259 24.250656 26.023655 28.483517
1.500000 21.658125 23.370828 25.053416 25.183556 27.011901 29.421009
1.600000 22.656016 24.259785 26.017425 26.153238 28.026637 30.387581
1.700000 23.649449 25.279141 27.016334 27.174210 29.137888 31.490926
1.800000 24.484238 26.300481 28.049213 28.264822 30.378316 32.505089
1.900000 25.431745 27.296788 29.182771 29.362488 31.479027 33.834051
2.000000 26.537207 28.335132 30.376623 30.491184 32.708406 34.846051
2.100000 27.624984 29.430574 31.635237 31.704606 33.952227 36.382837
2.200000 28.923158 30.552013 32.794479 32.908937 35.164991 37.750253
2.300000 29.923890 31.586652 34.022042 34.089851 36.508169 38.842611
2.400000 30.966244 32.590071 35.102213 35.203837 37.709341 40.087655
2.500000 31.893284 33.631156 36.147299 36.286539 39.034644 41.486546
2.600000 32.780140 34.720748 37.015036 37.353449 40.316751 42.865144
2.700000 33.628286 35.686910 38.175118 38.408429 41.439444 43.911414
2.800000 34.544243 36.625623 39.247489 39.465405 42.552179 45.013157
2.900000 35.559934 37.719251 40.251548 40.554464 43.623562 46.175505
3.000000 36.505938 38.851556 41.478421 41.688930 44.727853 47.187010
3.100000 37.535396 39.896589 42.628435 42.838768 45.807120 48.446101
3.200000 38.723378 41.180060 43.973739 44.041254 46.913385 49.488400
3.300000 39.883785 42.330445 45.423843 45.310805 48.200560 50.583557
3.400000 41.314746 43.666508 46.744376 46.595088 49.330582 51.876262
3.500000 42.374022 45.104101 48.003669 47.817195 50.494427 52.963824
3.600000 43.762978 46.145887 49.114372 48.978275 51.581592 53.938734
3.700000 44.897504 47.468753 50.158230 50.061203 52.702207 54.713418
3.800000 46.028796 48.681459 51.144074 51.130076 53.674827 55.679449
3.900000 47.473053 49.854846 52.161831 52.185218 54.649939 56.733553
4.000000 48.851332 51.035336 53.111144 53.245898 55.585206 57.655404
4.100000 49.918319 51.996861 54.161483 54.259880 56.556532 58.653412
4.200000 51.019608 53.002499 55.255160 55.291858 57.551987 59.734109
4.300000 52.141625 53.988976 56.358282 56.362531 58.563081 61.056770
4.400000 53.208464 55.042613 57.448355 57.440574 59.538443 62.992299
4.500000 54.367991 56.036445 58.437346 58.624869 60.830187 65.428401
4.600000 55.558697 57.031370 59.502034 59.974333 62.319532 69.115715
4.700000 56.641864 58.273819 60.642071 61.419316 64.275950 71.349052
4.800000 57.870371 59.694135 61.963514 63.063041 67.023456 72.937565
4.900000 59.590543 61.511808 64.325744 65.204946 69.429713 74.011632
5.000000 61.371424 63.933394 67.219443 67.570219 71.299187 75.572237
5.100000 63.398708 66.440944 69.937004 69.926683 73.127265 76.960156
5.200000 66.668790 69.940301 72.342001 72.471894 74.772543 78.495823
5.300000 70.705299 72.985941 74.755438 74.977165 76.620755 81.818094
5.400000 72.651978 74.606036 76.230669 76.604999 78.117008 87.527365
5.500000 74.354587 76.070884 77.691648 78.193704 79.692063 88.647723
5.600000 75.717364 77.370649 79.082288 79.722565 81.143232 90.986917
5.700000 77.059880 78.638216 80.307751 81.272516 83.658862 92.718125
5.800000 78.396410 79.768501 81.373714 82.851511 86.753143 94.275686
5.900000 79.733214 81.100120 82.617924 84.377906 89.059585 95.729564
6.000000 80.845483 82.260497 84.032870 85.974192 91.634383 96.992458
6.100000 82.041821 83.532272 85.726968 87.741102 93.817412 98.333598
6.200000 83.347667 84.993241 87.513207 89.558123 95.679140 99.614806
6.300000 84.609165 86.388425 90.591170 91.428702 97.119262 100.756521
6.400000 86.327304 88.535919 93.241257 93.511289 98.612110 101.991158
6.500000 87.555802 90.751475 95.822340 95.581634 100.042173 103.221011
6.600000 89.332165 93.320719 97.517283 97.328661 101.310326 104.396355
6.700000 91.443679 95.356646 99.059296 98.929683 102.534459 105.590335
6.800000 95.063596 97.550575 100.734952 100.717364 103.887175 106.650365
6.900000 96.974278 99.550890 102.297916 102.391625 105.309415 107.820380
7.000000 98.740869 101.386713 103.987777 103.995625 106.725046 108.960691
7.100000 100.552174 103.115948 105.455666 105.584298 108.265311 110.406017
7.200000 102.068782 104.861196 107.339861 107.296226 109.898523 111.809421
7.300000 104.059949 106.731920 109.232365 109.057728 111.388471 113.197277
7.400000 106.073280 108.753811 111.029709 110.893319 112.955165 114.703764
7.500000 108.094908 110.986968 113.059365 112.878936 114.697039 116.610427
7.600000 109.548528 113.405464 115.172467 115.004515 116.908451 118.615966
7.700000 112.529458 115.230653 116.955237 116.917956 118.821246 120.864337
7.833333 114.839778 117.582257 119.648840 119.747447 122.099972 124.534831
7.966667 117.354523 120.078954 122.662864 122.581707 125.069992 127.346211
8.100000 120.927629 123.672311 125.802149 125.583406 127.561521 129.082265
8.200000 124.250343 126.733561 128.360138 128.208086 129.798231 131.164679
8.300000 126.527516 128.400590 129.938305 129.825995 131.332898 132.564301
8.400000 128.792014 129.994150 131.375515 131.381717 132.673553 133.990364
8.500000 130.131149 131.380666 132.760612 132.745011 134.141920 135.292786
8.555000 130.835989 132.193035 133.668790 133.641203 135.095115 136.582345
8.677500 132.470637 134.013862 135.532256 135.577140 137.183378 138.909571
8.800000 134.440750 135.828763 137.500148 137.521251 139.152241 140.972470
8.900000 135.500070 137.134887 138.958269 138.935063 140.646523 142.423862
9.000000 136.854359 138.544112 140.278889 140.281119 142.029216 143.847476
9.100000 138.236064 139.767954 141.506553 141.522172 143.157077 145.103588
9.200000 139.315740 141.075442 142.739685 142.803662 144.435243 146.260202
9.300000 140.545306 142.263778 144.010207 144.022754 145.817409 147.447205
9.400000 141.755136 143.395297 145.239675 145.264179 147.140544 149.050196
9.500000 142.899845 144.504909 146.526870 146.485930 148.408139 150.406341
9.600000 143.866235 145.765623 147.826743 147.762682 149.749231 151.449469
9.700000 144.959247 146.955705 149.065289 148.994714 150.975017 152.663227
9.800000 146.056810 148.057235 150.217357 150.171951 152.201193 153.843040
9.900000 147.272583 149.164241 151.468743 151.369043 153.439207 155.018413
10.000000 148.463336 150.445228 152.723545 152.531013 154.529156 156.044920
10.100000 149.671866 151.559825 153.871718 153.653689 155.633446 157.061557
10.200000 150.669265 152.721929 154.994291 154.795469 156.725029 157.964411
10.300000 152.006251 153.936868 156.106786 155.890406 157.794226 159.113488
10.400000 153.152655 155.193008 157.134486 157.019476 158.979354 160.304280
10.500000 154.267266 156.295178 158.205357 158.135859 160.059784 161.513746
10.600000 155.569294 157.492014 159.385872 159.330482 161.225272 162.900963
10.700000 156.797503 158.728056 160.670412 160.666258 162.629908 164.413880
10.800000 158.126698 160.041551 162.078605 162.161536 164.180110 166.671395
10.900000 159.329510 161.430111 163.481990 163.720714 165.871621 169.567330
11.000000 160.814054 162.978200 165.168813 165.594103 168.091242 172.580004
11.100000 162.406831 164.516658 167.085191 167.705594 170.835551 176.662719
11.200000 164.146784 166.455940 169.842969 170.480905 174.619550 179.636635
11.300000 165.759170 168.505744 172.976324 173.538151 178.830721 182.653259
11.400000 167.772144 171.034503 177.129951 176.673587 181.809193 184.761796
11.500000 170.282447 175.167663 180.354973 179.890660 184.302010 186.809877
11.600000 175.125445 178.969209 183.491670 183.098284 187.063414 189.253089
11.700000 179.580811 183.035495 186.623515 186.324825 189.517577 191.011057
11.800000 184.632376 187.243851 190.099422 189.602646 191.683664 193.079318
11.820000 185.246398 187.700798 190.512252 190.070612 192.209493 193.479086
11.920000 188.869906 191.588494 193.220108 193.326161 195.040928 198.234269
12.020000 192.076096 193.458428 194.791636 195.267359 196.854732 201.775978
12.120000 193.673592 194.867580 196.234220 196.994717 198.972678 204.873694
12.220000 195.049085 196.157276 197.568804 198.649168 201.362057 207.881899
12.320000 196.241356 197.474032 199.032685 200.283319 203.773007 209.826267
12.420000 197.532965 198.772014 200.603225 201.988520 206.541108 211.370936
12.553333 199.251831 200.479929 202.939524 204.415461 209.966810 213.037969
12.686667 200.600302 202.272802 205.241390 206.778523 212.669810 214.616588
12.820000 202.362222 204.171336 208.059638 209.237359 214.789567 216.092778
12.920000 203.637202 205.716287 211.444127 210.877889 215.713006 216.963367
13.020000 204.774010 207.865995 214.192177 212.646719 216.529561 217.742070
13.120000 206.250438 210.674952 215.596036 214.450622 217.353122 218.585271
13.220000 207.997279 214.180550 216.835902 216.107438 218.236758 219.368536
13.320000 210.383482 215.587366 217.810886 217.263294 219.072912 220.100925
13.420000 213.760310 216.968658 218.677384 218.377985 219.903660 220.945029
13.520000 215.844155 218.062367 219.549484 219.355471 220.699018 221.719263
13.620000 217.299372 219.113734 220.409134 220.335178 221.577250 222.529677
13.720000 218.459437 220.104003 221.317199 221.239890 222.454533 223.379056
13.820000 219.588877 220.982664 222.232717 222.130173 223.276616 224.359332
13.920000 220.470308 221.908174 223.080574 223.002087 224.090363 225.193059
14.020000 221.398559 222.760091 223.937789 223.862706 224.912982 225.991480
14.120000 222.357951 223.661700 224.820352 224.744868 225.764226 226.879970
14.220000 223.226155 224.561343 225.672619 225.609164 226.625650 227.801976
14.320000 224.343665 225.380233 226.544704 226.478286 227.511161 228.597266
14.420000 225.232051 226.322277 227.442823 227.369389 228.363682 229.412506
14.520000 226.133272 227.227715 228.296416 228.263949 229.338429 230.290366
14.620000 227.033600 228.175645 229.211009 229.182906 230.193463 231.098512
14.720000 227.937548 229.115411 230.103952 230.093324 231.097648 231.948914
14.820000 228.707440 230.031892 231.054828 230.998117 231.987055 232.839679
14.920000 229.770339 231.000746 231.979920 231.944496 232.908283 233.657357
15.020000 230.986755 232.066780 233.011033 232.959200 233.868364 234.654647
15.120000 232.233268 233.227357 234.179227 234.133442 234.995179 235.809486
15.220000 233.789659 234.807025 235.707089 235.778299 236.731024 238.135241
15.320000 235.178008 236.125636 237.181774 237.324671 238.581900 240.080184
15.420000 236.413644 237.397135 238.770912 238.831873 240.230435 241.705779
15.520000 237.614131 238.934479 240.384870 240.311805 241.618070 242.932389
15.620000 239.033275 240.761126 241.910386 241.818835 242.904637 243.945282
15.720000 240.996912 242.405711 243.420540 243.396941 244.422195 245.621885
15.820000 243.149932 244.134819 245.236130 245.347226 246.548485 248.226770
15.920000 244.547654 245.514395 246.721180 246.870315 248.192404 250.281951
16.020000 245.700984 246.833830 248.292051 248.453141 249.987965 252.267200
16.120000 246.811769 248.217966 249.921859 250.069385 251.958880 254.114517
16.220000 247.813341 249.671388 251.599415 251.670342 253.607116 256.182474
16.315000 249.079832 250.991182 253.081368 253.173104 255.114667 257.928265
16.410000 250.178953 252.560723 254.551982 254.647547 256.671075 259.661241
16.500000 251.409645 253.742131 255.797222 255.862087 257.904541 260.700137
16.600000 253.119314 255.129502 257.135703 257.247737 259.346489 262.202021
16.700000 254.352331 256.315357 258.485043 258.541171 260.571958 263.206659
16.800000 255.504811 257.552200 259.746147 259.859444 262.284570 264.397462
16.900000 256.615300 258.934405 261.098799 261.204622 263.805377 265.747400
17.000000 258.005397 260.305542 262.656517 262.627547 265.234253 266.905434
17.100000 259.307181 261.707824 264.141444 264.080392 266.424917 268.141324
17.200000 260.803348 263.253424 265.832452 265.589550 267.742205 269.312733
17.300000 262.462581 265.152560 267.424231 267.097635 268.982943 270.397215
17.400000 263.968753 266.980469 268.863998 268.561517 270.215614 271.499413
17.500000 265.045869 268.510329 270.195181 269.968271 271.585578 272.798894
17.600000 266.630465 269.892665 271.738391 271.415791 273.075255 274.296444
17.700000 268.315134 271.091567 272.872914 272.640539 274.232411 275.521440
17.800000 270.011830 272.294379 274.003872 273.763238 275.280063 276.303809
17.900000 271.940173 273.547054 275.100336 274.935842 276.243159 277.280245
18.000000 273.119145 274.673498 276.165585 275.980051 277.214992 278.265762
18.100000 274.465223 275.837135 277.134392 277.014845 278.154928 279.042186
18.200000 275.661454 277.035829 278.123687 278.041136 279.041897 279.906516
18.300000 277.066696 278.264511 279.235901 279.174960 280.099781 280.975118
18.400000 278.299450 279.369859 280.254318 280.264173 281.170173 282.242505
18.500000 279.638311 280.473421 281.307902 281.359714 282.256442 283.409268
18.600000 280.599700 281.482216 282.314000 282.381654 283.307769 284.439860
18.700000 281.506063 282.372027 283.308161 283.362418 284.416222 285.494484
18.800000 282.231288 283.187617 284.239865 284.327475 285.491886 287.026287
18.900000 283.119239 284.079050 285.134892 285.291923 286.444305 288.528682
19.000000 284.035784 284.986684 286.081219 286.272865 287.370051 290.482153
19.100000 285.113125 285.988711 287.135077 287.441602 288.745429 292.829812
19.200000 286.062777 286.914348 288.157398 288.588345 290.062722 294.867831
19.300000 287.020587 287.926999 289.252513 289.939939 291.943955 296.600841
19.400000 287.930990 289.052020 290.568166 291.316876 293.861621 298.199639
