depth(m) lower_95(kyr) lower_68(kyr) median(kyr) mean(kyr) upper_68(kyr) upper_95(kyr)
0.100000 0.545040 1.321488 2.064140 2.058875 2.800772 3.541730
0.200000 2.509278 3.438527 4.417900 4.439579 5.348499 6.729968
0.300000 4.651608 5.746012 6.777682 6.883670 8.171729 9.463950
0.310000 4.995710 6.064636 7.096703 7.229717 8.518159 9.882017
0.400000 8.384397 9.831937 11.631962 11.624001 13.288188 15.111031
0.450000 11.453360 14.644025 16.555025 16.270765 18.007948 19.336265
0.550000 16.076860 17.536787 18.950244 19.064369 20.675910 22.255161
0.600000 17.188009 18.621499 20.078949 20.195840 21.827305 23.704904
0.700000 19.025252 20.472808 21.981946 22.094254 23.832543 25.622638
0.780000 20.480391 21.942190 23.543633 23.683259 25.455010 27.339263
0.800000 20.940400 22.418763 23.943361 24.152563 25.954587 27.936449
0.880000 22.712470 24.265830 25.897945 26.038911 27.809267 30.108072
0.900000 23.294277 24.825916 26.526629 26.621351 28.485957 30.775016
1.000000 25.722714 27.530482 29.697831 29.786979 32.126267 34.040680
1.050000 26.985040 28.984014 31.608052 31.570098 34.062343 36.067550
1.100000 28.338639 30.654673 33.578452 33.341009 35.776582 38.091880
1.200000 30.952591 33.627134 36.449266 36.351457 38.968846 41.648416
1.280000 32.803472 35.553559 38.436610 38.431760 41.225656 43.973556
1.365000 34.626232 37.462502 40.476881 40.387570 43.303948 45.965415
1.450000 36.257589 39.256472 42.385255 42.348360 45.238242 48.017166
1.550000 38.739298 41.413823 44.736282 44.492499 47.223253 50.173465
1.650000 40.723565 43.746895 47.048100 46.631215 49.137708 52.134492
1.750000 42.924821 45.866462 49.245224 48.719085 51.054399 53.769355
1.820000 44.464511 47.470062 50.772773 50.290475 52.483301 55.061294
1.900000 46.927789 49.536652 52.485100 52.107685 54.227072 56.540889
2.000000 49.274129 51.917170 54.375849 54.203847 56.289771 58.316179
2.100000 51.384265 54.384053 56.420837 56.326835 58.333955 60.416619
2.150000 52.438363 55.350252 57.582116 57.518231 59.562957 61.549223
2.220000 54.598780 57.490755 59.468248 59.517208 61.612681 64.266033
2.295000 56.846733 59.560906 62.043404 62.086283 64.576262 68.017368
2.370000 59.260844 62.000224 64.895035 64.883034 67.725694 70.513326
2.470000 62.515547 65.883335 69.034065 68.680794 71.319569 73.258900
2.570000 66.324266 69.925111 72.478250 72.416036 75.048094 77.453596
2.670000 71.397160 73.598172 75.559922 75.866198 78.284203 81.797205
2.770000 73.754674 75.625656 77.858635 78.360295 81.128287 86.775127
2.870000 75.371835 77.386972 79.752005 80.441757 83.279242 89.545838
2.980000 77.512708 79.670748 82.537523 82.938284 85.592076 91.797623
3.090000 79.454987 82.059453 85.387481 85.430085 87.982260 93.878583
3.190000 81.288056 84.505558 87.530127 87.579740 90.147100 95.439930
3.295000 83.764742 86.979368 89.418794 89.712550 92.413498 97.378340
3.400000 86.804764 89.261367 91.247445 91.771355 94.341962 99.056535
3.475000 88.297514 90.734369 92.755225 93.305459 96.105015 100.508910
3.550000 89.890820 92.261392 94.345766 94.891613 97.964986 101.697084
3.650000 92.024754 94.383657 96.859206 97.292108 100.493300 103.649998
3.750000 94.095801 96.466677 99.495554 99.665586 103.009309 105.658149
3.820000 95.353227 97.794202 101.354044 101.254757 104.647685 107.218957
3.900000 97.063295 99.649738 103.197767 103.037276 106.271827 108.809489
3.980000 98.731345 101.709763 105.236260 104.923849 107.778182 110.342633
4.080000 101.404553 104.667145 107.530019 107.271708 109.801665 111.899104
4.180000 104.249648 107.400346 109.689880 109.499442 111.645116 113.590349
4.280000 107.552226 110.054563 111.784272 111.792468 113.673224 115.500430
4.380000 110.445596 112.631967 114.364322 114.350817 116.221800 118.001552
4.480000 114.088611 115.841751 117.725360 117.773154 119.659790 121.945236
4.580000 117.635523 119.611687 121.560623 121.563235 123.575775 125.540270
4.650000 119.970055 121.858937 124.061560 124.012304 126.055722 127.978542
4.730000 122.692759 125.190887 127.372431 127.308546 129.446166 131.301124
4.810000 127.005892 128.841189 130.526828 130.517431 132.155682 133.886694
4.910000 130.434920 132.193768 133.727289 133.844100 135.483433 137.798154
5.010000 133.038951 134.797093 136.890750 137.121999 139.329158 143.010975
5.110000 135.127758 137.272224 139.483978 139.858512 142.431414 146.208261
5.210000 137.698457 139.725982 142.030087 142.459538 145.048641 150.252891
5.310000 139.691117 142.465503 144.831370 145.247083 148.233258 153.281208
5.410000 141.536023 144.344384 147.068593 147.613336 151.139366 156.169717
5.510000 143.429217 146.113278 149.068598 149.800163 153.788576 158.196258
5.610000 145.261052 147.756174 151.307633 151.983553 156.828951 160.637512
5.710000 147.262387 149.737088 153.492547 154.217317 159.195076 162.128995
5.795000 148.746320 151.343276 155.990326 156.068428 160.885126 163.703360
5.880000 150.191541 152.945194 158.612505 157.959234 162.308780 164.984610
5.960000 151.652010 155.089532 160.546250 159.712001 163.526181 166.032246
6.060000 154.032838 158.439212 162.814606 162.124818 165.314031 167.399227
6.160000 156.426076 161.379734 164.757048 164.223073 166.847146 168.578791
6.260000 158.913584 163.665676 166.415798 165.949179 168.314000 169.985617
6.360000 162.010163 165.592398 167.867152 167.568592 169.645072 171.380892
6.466667 164.465130 167.433827 169.330270 169.113360 171.026969 172.777881
6.573333 166.215020 169.055616 170.773933 170.585935 172.220230 173.860772
6.680000 168.115937 170.684870 172.119380 172.015733 173.401505 175.286282
6.780000 169.224262 172.014803 173.266013 173.208689 174.525491 176.401739
6.880000 170.527082 173.123445 174.308996 174.312514 175.589256 177.645585
6.980000 171.978548 174.102879 175.380936 175.417742 176.715764 179.072591
7.080000 173.407811 175.184457 176.381877 176.509646 177.800086 180.823385
7.180000 174.445138 176.165267 177.442623 177.622736 178.978836 182.376225
7.280000 175.765732 177.306047 178.505740 178.742390 180.082747 184.141071
7.330000 176.373368 177.934288 179.149985 179.384521 180.766309 184.941435
7.415000 177.446904 178.974508 180.247657 180.511051 181.939643 186.010975
7.500000 178.808178 180.108006 181.383392 181.666549 183.106342 186.842680
7.600000 180.024373 181.361343 182.717782 182.991151 184.468862 187.909632
7.700000 181.384992 182.641653 184.122105 184.364271 186.028437 189.237723
7.800000 182.663049 183.991074 185.559494 185.848427 187.848052 190.393221
7.900000 184.096188 185.421366 187.288404 187.572004 189.917241 192.155676
