depth(m) lower_95(kyr) lower_68(kyr) median(kyr) mean(kyr) upper_68(kyr) upper_95(kyr)
0.000000 0.008701 0.078382 0.280046 0.344497 0.625404 0.994249
0.040000 0.189229 0.314305 0.545243 0.601897 0.916240 1.293573
0.080000 0.371677 0.528194 0.784359 0.841809 1.193619 1.538410
0.120000 0.539075 0.733019 1.024438 1.074601 1.436742 1.783447
0.160000 0.744637 0.950257 1.271996 1.309938 1.664768 2.040863
0.200000 0.955056 1.180204 1.519267 1.551111 1.933777 2.323485
0.240000 1.156795 1.395769 1.761799 1.786305 2.179156 2.577772
0.280000 1.359430 1.640547 1.998053 2.030004 2.430509 2.839949
0.320000 1.569321 1.858187 2.252936 2.269057 2.683436 3.073258
0.360000 1.771524 2.093264 2.492943 2.511250 2.929599 3.349331
0.400000 1.998957 2.311340 2.749444 2.756527 3.183546 3.611849
0.440000 2.219121 2.558585 2.984937 2.998780 3.426832 3.887229
0.480000 2.435130 2.786424 3.228666 3.237399 3.688174 4.164780
0.520000 2.635292 3.010923 3.467116 3.477743 3.929331 4.413537
0.560000 2.881451 3.249464 3.714039 3.718055 4.170744 4.657808
0.600000 3.130251 3.492610 3.942880 3.959305 4.417975 4.935660
0.640000 3.357264 3.733731 4.189580 4.207826 4.655634 5.188858
0.680000 3.571010 3.985676 4.444862 4.461652 4.926284 5.524817
0.720000 3.838223 4.258036 4.696430 4.725211 5.185214 5.828531
0.760000 4.111015 4.490854 4.966292 4.996697 5.478971 6.153840
0.800000 4.406210 4.758167 5.239274 5.272196 5.751381 6.488073
0.840000 4.584764 5.071942 5.524145 5.573260 6.083108 6.803512
0.880000 4.856865 5.375721 5.853097 5.904158 6.435742 7.189079
0.920000 5.188390 5.697931 6.209960 6.273192 6.863141 7.628384
0.960000 5.573913 6.045934 6.620874 6.674222 7.291665 8.102353
1.000000 5.948240 6.441131 7.056369 7.125761 7.823676 8.699657
1.040000 6.380537 6.934111 7.603762 7.663012 8.433953 9.230044
1.080000 6.912188 7.468971 8.223371 8.263199 9.069484 9.944478
1.120000 7.426987 8.080746 8.902849 8.916139 9.749611 10.479472
1.160000 8.116754 8.858224 9.679434 9.682962 10.522374 11.289751
1.200000 8.725627 9.523075 10.341159 10.325995 11.118689 11.828739
1.240000 9.336739 10.131010 10.891945 10.872453 11.671721 12.388859
1.250000 9.429952 10.233726 10.994496 10.983315 11.750195 12.469711
1.290000 9.831551 10.651671 11.399072 11.384939 12.141173 12.836007
1.330000 10.217421 11.037374 11.794994 11.747914 12.478410 13.187783
1.370000 10.666473 11.378023 12.105809 12.084939 12.793540 13.481034
1.410000 11.039801 11.807542 12.505596 12.467907 13.117409 13.709434
1.450000 11.606040 12.377948 12.983837 12.958751 13.587620 14.126786
1.490000 12.245946 12.884667 13.530050 13.502764 14.106651 14.621840
1.530000 12.911389 13.592059 14.181194 14.171792 14.771960 15.256645
1.570000 13.588519 14.299818 14.838227 14.847615 15.459746 16.106579
1.610000 14.624382 15.123005 15.786741 15.790913 16.427247 17.128395
1.650000 15.293188 15.968177 16.638695 16.655238 17.324041 18.082118
1.690000 15.901421 16.576889 17.208190 17.237451 17.901557 18.637820
1.730000 16.321520 17.037787 17.726986 17.767284 18.474626 19.286120
1.770000 16.775778 17.432174 18.180963 18.222123 18.990637 19.855027
1.810000 17.156466 17.841024 18.639303 18.666784 19.476023 20.361100
1.850000 17.559918 18.269624 19.068342 19.098135 19.902848 20.763918
1.890000 17.887392 18.684544 19.511927 19.526841 20.377384 21.152011
1.930000 18.279310 19.093433 19.927957 19.958517 20.852236 21.584813
1.970000 18.690204 19.539261 20.340999 20.393382 21.305548 22.071942
2.010000 19.069803 19.931294 20.735037 20.813692 21.737004 22.581696
2.050000 19.452731 20.308164 21.188029 21.242705 22.182896 23.091278
2.090000 19.890680 20.766778 21.642489 21.675941 22.621188 23.471221
2.130000 20.348600 21.134544 22.082924 22.100512 23.066569 23.901962
2.170000 20.777185 21.561667 22.503160 22.542775 23.543388 24.391896
2.210000 21.132613 21.986768 22.929280 22.975202 23.950392 24.917180
2.250000 21.543117 22.410718 23.376892 23.394636 24.392064 25.303082
2.290000 21.944534 22.816489 23.866708 23.833531 24.820842 25.857893
2.330000 22.360655 23.197074 24.266193 24.233558 25.214094 26.237784
2.370000 22.669624 23.559808 24.649233 24.635316 25.658781 26.556990
2.410000 23.070464 23.976548 25.051084 25.039858 26.063370 26.979283
2.450000 23.348700 24.350511 25.493339 25.431190 26.448438 27.341392
2.490000 23.705345 24.721211 25.913453 25.834725 26.859331 27.815966
2.530000 24.050830 25.119880 26.367319 26.255117 27.276143 28.231427
2.570000 24.403522 25.463333 26.796124 26.667711 27.692042 28.599456
2.610000 24.826701 25.811203 27.246808 27.114180 28.177373 28.957851
2.650000 25.225475 26.237586 27.715294 27.549126 28.645885 29.308925
2.690000 25.577671 26.587548 28.126993 27.937805 29.031856 29.686541
2.730000 25.845302 26.915656 28.502559 28.299253 29.386970 30.099653
2.750000 25.987759 27.130173 28.706677 28.483559 29.542195 30.311256
2.790000 26.264409 27.492150 29.079836 28.838371 29.871163 30.594495
2.830000 26.563732 27.883364 29.410298 29.173010 30.205889 30.976085
2.870000 26.854022 28.287243 29.746357 29.512928 30.576482 31.226201
2.910000 27.213688 28.654021 30.090789 29.866486 30.943353 31.615403
2.950000 27.461728 28.995336 30.455532 30.213350 31.304978 32.017074
2.990000 27.770588 29.413038 30.753343 30.560420 31.687011 32.357811
3.030000 28.072544 29.817660 31.049299 30.901901 32.040875 32.690598
3.110000 28.778891 30.535493 31.631900 31.561940 32.681424 33.295351
3.150000 29.093891 30.893663 31.963158 31.901156 33.034751 33.615548
3.190000 29.478977 31.255632 32.281132 32.233812 33.338427 33.941009
3.230000 29.988580 31.584226 32.591235 32.552004 33.634610 34.243317
3.310000 30.888593 32.164307 33.170477 33.148558 34.209425 34.777384
3.390000 31.620884 32.789376 33.830154 33.754682 34.803384 35.279680
3.430000 32.013249 33.109594 34.170832 34.077807 35.104986 35.579534
3.470000 32.402243 33.427414 34.529648 34.389759 35.386396 35.853243
3.510000 32.740470 33.725072 34.880501 34.705947 35.656702 36.122431
3.590000 33.491747 34.314929 35.441994 35.272090 36.202569 36.643261
3.630000 33.858815 34.613059 35.760385 35.577611 36.490617 36.947872
3.670000 34.213331 34.944463 36.073038 35.893801 36.783688 37.193018
3.710000 34.550692 35.234310 36.401369 36.210186 37.058004 37.464001
3.750000 34.916952 35.602247 36.707907 36.526377 37.325674 37.740023
3.790000 35.209747 35.939614 37.022550 36.843298 37.615335 38.016839
3.830000 35.527181 36.275329 37.355908 37.154874 37.885067 38.321814
3.870000 35.812985 36.592410 37.678091 37.462140 38.189619 38.594823
3.910000 36.079719 36.923870 37.941657 37.761497 38.476446 38.900810
3.950000 36.396194 37.263912 38.226169 38.065049 38.747954 39.229499
3.990000 36.699539 37.569441 38.530579 38.357983 39.034793 39.479089
4.030000 37.040525 37.856293 38.792679 38.648241 39.311250 39.789088
4.070000 37.332758 38.181227 39.081990 38.936218 39.574610 40.105934
4.110000 37.746397 38.469767 39.395012 39.229899 39.856075 40.423183
4.150000 38.019516 38.781269 39.647398 39.513127 40.107269 40.663439
4.190000 38.337610 39.134320 39.916999 39.798447 40.378072 40.937876
4.230000 38.728707 39.430636 40.205051 40.089519 40.657825 41.216351
4.250000 38.864397 39.572241 40.355492 40.240044 40.800691 41.342212
4.290000 39.145190 39.930193 40.631873 40.537572 41.066285 41.693840
4.330000 39.454470 40.222931 40.904797 40.831350 41.361739 42.070643
4.370000 39.692743 40.533623 41.171909 41.117861 41.651350 42.415013
4.410000 39.985229 40.822498 41.433151 41.402009 41.948326 42.738185
4.450000 40.286878 41.117896 41.705373 41.693700 42.254069 43.043774
4.490000 40.631226 41.386677 41.976291 41.986399 42.562788 43.401856
4.530000 40.903638 41.708807 42.249954 42.277849 42.876445 43.701701
4.570000 41.265662 41.989379 42.516227 42.573425 43.207841 44.061214
4.610000 41.595853 42.291357 42.806570 42.859022 43.515725 44.390128
4.650000 41.843535 42.570229 43.085254 43.159253 43.837514 44.675601
4.690000 42.198870 42.853312 43.359685 43.456108 44.176601 44.965306
4.730000 42.518000 43.139295 43.638873 43.756078 44.512594 45.380990
4.770000 42.838791 43.415734 43.922061 44.052072 44.814173 45.690696
4.810000 43.153004 43.683902 44.201033 44.347954 45.180226 46.051096
4.850000 43.475147 43.952910 44.475593 44.651105 45.515671 46.402331
4.890000 43.745845 44.196538 44.772428 44.949839 45.840363 46.708334
4.930000 44.018795 44.482263 45.073361 45.255844 46.182286 47.015120
4.970000 44.300331 44.748961 45.393054 45.565125 46.517720 47.326908
5.010000 44.555630 45.012034 45.694424 45.866872 46.840444 47.667148
5.050000 44.845871 45.302594 45.960951 46.169259 47.143334 48.037500
5.090000 45.129825 45.564630 46.319773 46.469262 47.458193 48.430177
5.130000 45.371405 45.844824 46.631342 46.764879 47.757578 48.632991
5.170000 45.598694 46.135035 46.973351 47.064071 48.022176 48.948465
5.210000 45.907535 46.411233 47.309176 47.365558 48.311094 49.261973
5.250000 46.160090 46.691123 47.619110 47.675046 48.589227 49.721344
5.290000 46.492073 46.982126 47.969114 47.971841 48.879417 50.006950
5.330000 46.798119 47.277603 48.320175 48.275568 49.131787 50.385403
5.410000 47.246061 47.933100 48.904194 48.854475 49.640409 50.911961
5.450000 47.506781 48.261326 49.175415 49.154493 49.908489 51.175817
5.490000 47.843435 48.580573 49.470865 49.457776 50.182333 51.483512
5.530000 48.185695 48.890407 49.762199 49.756820 50.452370 51.786499
5.650000 49.050255 49.900051 50.576465 50.613045 51.259702 52.624831
5.690000 49.386386 50.276911 50.890920 50.940938 51.604392 52.938562
5.730000 49.736998 50.602030 51.222909 51.275777 51.983715 53.202653
5.750000 49.920029 50.776686 51.394845 51.460040 52.141693 53.385980
5.790000 50.255463 51.119091 51.744088 51.813915 52.564272 53.703485
5.830000 50.611811 51.526151 52.118366 52.187866 52.931943 54.101302
5.870000 50.948830 51.887237 52.477644 52.566154 53.318290 54.396242
5.910000 51.338526 52.209006 52.883341 52.949506 53.773149 54.686817
5.950000 51.710058 52.572752 53.284265 53.341421 54.173846 55.058211
5.990000 52.133497 52.934855 53.692483 53.725635 54.588257 55.378371
6.030000 52.520514 53.306798 54.051404 54.106778 54.955503 55.763696
6.070000 52.933747 53.702006 54.440220 54.481244 55.301578 56.128033
6.110000 53.310311 54.042469 54.815530 54.844492 55.685621 56.408202
6.150000 53.638943 54.421724 55.194526 55.205211 56.012765 56.781033
6.190000 54.025995 54.765157 55.548500 55.555806 56.344780 57.142394
6.230000 54.415903 55.091975 55.923827 55.907392 56.694728 57.466951
6.270000 54.667186 55.442547 56.299602 56.259344 56.990702 57.815410
6.310000 55.034246 55.793298 56.682949 56.629777 57.428199 58.187125
6.350000 55.399502 56.091534 57.034315 56.980478 57.789824 58.563857
6.390000 55.724538 56.423524 57.384530 57.328795 58.129939 58.909547
6.430000 56.058121 56.813239 57.729274 57.669166 58.453729 59.202195
6.470000 56.353280 57.134925 58.085308 58.002322 58.783681 59.489694
6.510000 56.625863 57.501134 58.398108 58.325486 59.073885 59.812980
6.550000 56.928749 57.833323 58.731368 58.641821 59.376165 60.079421
6.590000 57.228647 58.206423 59.061794 58.969336 59.688741 60.362408
6.630000 57.502743 58.586420 59.397049 59.310771 60.009553 60.666585
6.670000 57.919337 58.918887 59.755643 59.665018 60.371084 61.042255
6.710000 58.284375 59.275630 60.082901 60.008802 60.699684 61.436161
6.750000 58.644102 59.649515 60.417210 60.348553 61.026674 61.751469
6.790000 59.040166 60.001337 60.743739 60.692074 61.385720 62.086106
6.830000 59.420559 60.342254 61.091181 61.037627 61.705922 62.509074
6.870000 59.875917 60.750617 61.427018 61.419452 62.066365 62.992152
6.910000 60.205099 61.141799 61.808515 61.827754 62.465897 63.504392
6.950000 60.771057 61.555243 62.228091 62.261681 62.969602 64.028263
6.990000 61.279068 62.019218 62.651030 62.704753 63.388429 64.533944
7.030000 61.697572 62.428894 63.092192 63.152493 63.860152 64.979460
7.070000 62.327699 62.862531 63.532054 63.584892 64.281548 65.402628
7.110000 62.700622 63.264832 63.972635 64.014039 64.727102 65.732963
7.150000 63.187006 63.699613 64.354473 64.428172 65.099085 66.143273
7.190000 63.527384 64.111016 64.785139 64.835657 65.554478 66.606701
7.230000 63.843384 64.499093 65.184150 65.224879 65.952952 67.088357
7.250000 64.023023 64.662921 65.373749 65.419814 66.115969 67.339770
7.290000 64.418322 65.035117 65.743512 65.808192 66.562949 67.744067
7.370000 65.064385 65.696580 66.433751 66.532482 67.365673 68.467412
7.410000 65.396439 66.097262 66.846780 66.943877 67.816932 68.903185
7.450000 65.820463 66.446776 67.266440 67.352772 68.220213 69.426190
7.490000 66.231821 66.831151 67.714072 67.779905 68.699750 69.809379
7.530000 66.660769 67.304491 68.169855 68.221703 69.141534 70.218058
7.610000 67.433830 68.134053 69.138911 69.157757 70.122714 71.101074
7.650000 67.845366 68.592518 69.650264 69.633204 70.617440 71.560191
7.690000 68.293893 69.092719 70.193166 70.149971 71.142723 71.942726
7.730000 68.733271 69.717801 70.728289 70.696607 71.618578 72.562549
7.770000 69.236010 70.262724 71.201486 71.205137 72.158564 73.050411
7.810000 69.854960 70.745779 71.721521 71.681531 72.618542 73.389800
7.850000 70.281318 71.290261 72.230440 72.222498 73.126451 74.031148
7.890000 70.939919 71.823063 72.753908 72.760535 73.679278 74.552786
7.930000 71.519113 72.411278 73.336769 73.354221 74.252795 75.160102
7.970000 72.207641 73.003194 73.919043 73.948471 74.890889 75.950220
8.010000 72.697491 73.516104 74.491489 74.523039 75.497757 76.562601
8.050000 73.263634 74.088237 75.068201 75.116053 76.109078 77.190067
8.090000 73.879977 74.713243 75.732468 75.761917 76.728008 77.794808
8.130000 74.502045 75.409156 76.387959 76.432403 77.509626 78.397683
8.170000 75.099503 76.182821 77.163191 77.176267 78.209154 79.002814
8.210000 75.836942 76.885320 77.856867 77.850603 78.834530 79.608782
8.250000 76.535347 77.575463 78.526899 78.474212 79.444010 80.095590
8.290000 77.127272 78.187978 79.080497 79.025010 79.852499 80.517249
8.330000 77.693210 78.788657 79.613286 79.544799 80.305492 80.950511
8.370000 78.382919 79.299111 80.113947 80.039934 80.756947 81.287597
8.410000 78.932582 79.873142 80.596949 80.514247 81.170784 81.595837
8.450000 79.531088 80.388924 81.034797 80.961561 81.560193 82.017356
8.490000 80.130002 80.843386 81.437250 81.393237 81.947677 82.393082
8.530000 80.575283 81.289920 81.842079 81.798067 82.341036 82.764654
8.570000 81.195415 81.725805 82.240323 82.217543 82.723010 83.095021
8.610000 81.608591 82.108034 82.635029 82.609204 83.084986 83.490564
8.650000 81.924931 82.494731 83.002833 82.983382 83.441836 83.857686
8.690000 82.313627 82.861335 83.356326 83.341896 83.793251 84.264561
8.730000 82.701747 83.239619 83.715941 83.694388 84.142110 84.598312
8.750000 82.891320 83.446505 83.891728 83.878004 84.319027 84.780789
8.790000 83.302295 83.813936 84.246913 84.250899 84.672373 85.211520
8.830000 83.679084 84.159207 84.604497 84.609316 85.047608 85.592258
8.870000 84.006871 84.535785 84.960057 84.984837 85.446199 86.073578
8.910000 84.394522 84.888034 85.371021 85.412633 85.940848 86.562718
8.950000 84.849152 85.303953 85.868260 85.903364 86.492116 87.158067
8.990000 85.303443 85.804969 86.477065 86.521461 87.182412 88.217096
9.030000 85.792522 86.380344 87.124221 87.202096 88.004664 89.086899
9.070000 86.362257 86.953339 87.753337 87.871162 88.843897 90.016958
9.110000 86.887900 87.585373 88.525241 88.619673 89.758824 90.695078
9.190000 87.799085 88.654758 90.028656 90.043927 91.317038 92.626101
9.230000 88.222511 89.311824 90.718151 90.717627 92.090597 93.514855
9.270000 88.674934 90.018405 91.401617 91.371609 92.760655 93.958287
9.310000 89.238928 90.676544 92.117460 92.033452 93.379413 94.557292
9.350000 89.855617 91.376614 92.707204 92.686211 93.977848 95.188203
9.390000 90.705386 91.992588 93.407289 93.334873 94.559664 95.937817
9.430000 91.591947 92.658730 93.962589 93.928950 95.136539 96.505838
9.470000 92.124073 93.253340 94.481452 94.484949 95.661646 97.113228
9.510000 92.671903 93.893991 95.049558 95.070038 96.217568 97.608752
9.550000 93.224232 94.502757 95.682554 95.701212 96.865049 98.089229
9.590000 93.970011 95.183909 96.373188 96.385126 97.621418 98.830398
9.630000 94.614643 95.912719 96.998285 97.052119 98.281494 99.424392
9.670000 95.212781 96.545613 97.613787 97.663935 98.868133 100.010295
9.710000 95.947947 97.012527 98.189310 98.201527 99.341493 100.560186
9.750000 96.574945 97.525148 98.715743 98.703494 99.811039 101.030801
9.790000 96.994259 98.111800 99.283424 99.213710 100.271617 101.420076
9.830000 97.617294 98.605758 99.762854 99.699932 100.663885 101.862275
9.870000 98.033692 99.081585 100.178457 100.145041 101.062620 102.386519
9.910000 98.535594 99.522842 100.587885 100.575536 101.516189 102.798196
9.950000 99.012944 99.985403 101.016274 101.017198 101.965196 103.232919
9.990000 99.479683 100.451263 101.435314 101.453892 102.380578 103.612167
10.030000 99.942618 100.927800 101.857672 101.888638 102.858077 104.064225
10.070000 100.360233 101.446791 102.277999 102.319816 103.302542 104.497646
10.110000 100.777144 101.907866 102.655103 102.750137 103.767645 105.000590
10.150000 101.291156 102.353554 103.076955 103.192387 104.222647 105.371492
10.190000 101.807097 102.750365 103.457743 103.631657 104.736479 105.761216
10.230000 102.345395 103.157913 103.891973 104.080638 105.182243 106.229865
10.250000 102.559116 103.399052 104.121270 104.316063 105.430527 106.453104
10.290000 102.950408 103.819506 104.587181 104.779664 105.964383 106.867558
10.330000 103.347086 104.214359 105.092052 105.229461 106.394234 107.224930
10.370000 103.791727 104.641607 105.622735 105.692263 106.866471 107.666484
10.410000 104.219104 105.069931 106.131002 106.143056 107.295925 108.102552
10.450000 104.734629 105.497674 106.598186 106.597487 107.722572 108.549699
10.490000 105.107602 105.943277 107.084926 107.048738 108.131606 108.912435
10.530000 105.566423 106.415132 107.543813 107.522846 108.542992 109.349029
10.570000 106.124979 106.985993 108.084538 108.023479 108.998798 109.754082
10.610000 106.655010 107.574278 108.612169 108.545528 109.456126 110.295317
10.650000 107.281564 108.193380 109.146659 109.098911 109.972761 110.760840
10.690000 107.851684 108.819894 109.691371 109.664009 110.517272 111.209618
10.730000 108.503088 109.382545 110.186359 110.180935 110.995514 111.701051
10.770000 108.994791 109.906472 110.659322 110.665178 111.475270 112.161022
10.810000 109.570521 110.388970 111.116035 111.156325 111.976969 112.770476
10.850000 110.059562 110.857842 111.624382 111.648481 112.474862 113.316574
10.890000 110.558310 111.303646 112.109493 112.142455 113.007957 113.864653
10.930000 111.015546 111.793136 112.626331 112.664777 113.557523 114.470763
10.970000 111.499744 112.265372 113.175468 113.193903 114.093534 115.058373
11.050000 112.570489 113.410170 114.398773 114.398222 115.340249 116.436392
11.090000 113.144200 114.083148 115.063981 115.090376 116.097739 117.055804
11.130000 113.800745 114.831882 115.770972 115.829336 116.866550 117.906504
11.170000 114.609136 115.570573 116.633687 116.630995 117.710756 118.794811
11.210000 115.505378 116.427534 117.572839 117.590568 118.708440 119.828145
11.250000 116.557268 117.560111 118.678457 118.708200 119.895568 121.047800
11.290000 117.322569 118.407310 119.620466 119.625143 120.837235 121.953048
11.330000 118.182294 119.362837 120.580246 120.565041 121.762170 122.889504
11.370000 119.272517 120.269048 121.511068 121.491021 122.652822 123.861921
11.410000 120.153440 121.286933 122.427255 122.408086 123.568944 124.585366
11.450000 121.012313 122.145152 123.276896 123.269756 124.433482 125.494168
11.490000 121.789227 123.002487 124.119603 124.112187 125.239512 126.347435
11.530000 122.813662 123.972075 125.043446 125.034390 126.135037 127.084768
11.570000 123.971663 125.017443 126.057603 126.071801 127.101280 128.217276
11.610000 125.349379 126.383925 127.581275 127.555477 128.694033 129.660027
11.650000 127.186113 128.231054 129.327992 129.336766 130.531494 131.524951
11.690000 128.504410 129.452555 130.541627 130.541359 131.660264 132.575576
