depth(m) lower_95(kyr) lower_68(kyr) median(kyr) mean(kyr) upper_68(kyr) upper_95(kyr)
22.500000 0.119812 0.424784 1.097606 1.179132 2.174974 2.736283
22.642857 0.125456 0.433812 1.107443 1.187350 2.181317 2.747803
22.785714 0.131980 0.441630 1.115233 1.195658 2.188966 2.753947
22.928571 0.136834 0.454507 1.124539 1.204350 2.195080 2.762637
23.071429 0.142508 0.463630 1.129648 1.212746 2.203876 2.767669
23.214286 0.149060 0.474854 1.135785 1.221754 2.212377 2.778267
23.357143 0.156337 0.487647 1.142902 1.230701 2.219372 2.793622
23.500000 0.160004 0.495075 1.149904 1.239791 2.237711 2.803767
23.642857 0.165724 0.501844 1.154488 1.248682 2.261488 2.811236
23.785714 0.171102 0.512892 1.159344 1.257705 2.274970 2.821902
23.928571 0.179755 0.525238 1.166094 1.266604 2.292004 2.834916
24.071429 0.182956 0.534264 1.171932 1.275404 2.300910 2.854110
24.214286 0.189336 0.545825 1.176309 1.284230 2.308918 2.858806
24.357143 0.192764 0.556711 1.182045 1.293226 2.318958 2.864811
24.500000 0.199074 0.569320 1.187539 1.302013 2.323872 2.871583
24.642857 0.204469 0.577905 1.192727 1.310242 2.327832 2.879999
24.785714 0.211626 0.592346 1.198115 1.318911 2.335478 2.887314
24.928571 0.217555 0.601683 1.202927 1.327088 2.340776 2.891768
25.071429 0.225981 0.608919 1.208163 1.335147 2.345020 2.897956
25.214286 0.228947 0.620341 1.214146 1.343530 2.350324 2.904058
25.357143 0.234422 0.628871 1.220309 1.351948 2.356320 2.907896
25.500000 0.240240 0.636304 1.225456 1.360040 2.361094 2.912118
25.642857 0.247747 0.643549 1.232068 1.368595 2.369335 2.917706
25.785714 0.257490 0.652807 1.237142 1.376823 2.374866 2.923823
25.928571 0.261165 0.661446 1.242266 1.384986 2.383864 2.928012
26.071429 0.266567 0.673614 1.247569 1.393022 2.391762 2.931733
26.214286 0.274941 0.682467 1.253108 1.400837 2.398095 2.937152
26.357143 0.281303 0.690555 1.258269 1.408939 2.404602 2.943827
26.500000 0.287495 0.699027 1.263586 1.416509 2.411306 2.950122
26.642857 0.300906 0.705538 1.270364 1.424445 2.416258 2.953682
26.785714 0.313256 0.713481 1.275801 1.431998 2.422265 2.959347
26.928571 0.321921 0.720892 1.281734 1.439895 2.429528 2.968103
27.071429 0.330325 0.727358 1.288662 1.447549 2.436459 2.980393
27.214286 0.340985 0.734452 1.296250 1.455168 2.443370 2.986389
27.357143 0.345373 0.740396 1.302468 1.462811 2.452418 2.991374
27.500000 0.350697 0.746447 1.308580 1.470642 2.460686 2.996388
27.642857 0.364321 0.753201 1.314995 1.478417 2.466524 3.002691
27.785714 0.371122 0.759482 1.321666 1.485792 2.474196 3.009058
27.928571 0.378315 0.766151 1.328353 1.493232 2.481978 3.014495
28.071429 0.388655 0.772816 1.335400 1.500650 2.490451 3.019419
28.214286 0.394189 0.778666 1.342244 1.508308 2.498696 3.029136
28.357143 0.399525 0.785202 1.348676 1.515574 2.506396 3.037799
28.500000 0.404404 0.791625 1.355296 1.522905 2.513470 3.044904
28.642857 0.410026 0.797440 1.361634 1.530374 2.521412 3.058352
28.785714 0.431436 0.803674 1.367230 1.537691 2.530497 3.075310
28.928571 0.435317 0.809773 1.373214 1.545073 2.540260 3.090938
29.071429 0.442520 0.815039 1.378914 1.552520 2.550649 3.108355
29.214286 0.448526 0.820670 1.384183 1.559901 2.557453 3.127749
29.357143 0.459450 0.826503 1.389799 1.567221 2.565025 3.141173
29.500000 0.464877 0.833024 1.395806 1.574422 2.573315 3.144896
29.642857 0.482077 0.839378 1.401526 1.581795 2.581084 3.150785
29.785714 0.499683 0.844338 1.406523 1.589117 2.590416 3.157327
29.928571 0.506363 0.850187 1.412114 1.596611 2.597944 3.182487
30.071429 0.511907 0.855579 1.418069 1.603763 2.605353 3.185505
30.214286 0.521051 0.861598 1.423654 1.611321 2.614493 3.195714
30.357143 0.532072 0.867479 1.428917 1.618771 2.621286 3.213160
30.500000 0.549641 0.872421 1.434347 1.626318 2.629665 3.224830
30.642857 0.579278 0.878640 1.439511 1.633598 2.635429 3.228577
30.785714 0.594929 0.884559 1.445160 1.640993 2.640986 3.245021
30.928571 0.602972 0.890245 1.450180 1.648499 2.646670 3.249520
31.071429 0.620810 0.896121 1.454736 1.656251 2.652362 3.272782
31.214286 0.626469 0.902158 1.460259 1.663694 2.658857 3.282891
31.357143 0.632912 0.907982 1.465640 1.671525 2.665029 3.287834
31.500000 0.636329 0.913625 1.470615 1.679038 2.670379 3.299570
31.642857 0.643150 0.919705 1.475440 1.686759 2.674785 3.311315
31.785714 0.649723 0.925532 1.480304 1.694411 2.679454 3.320476
31.928571 0.657044 0.930639 1.485648 1.701911 2.684448 3.333952
32.071429 0.663815 0.936373 1.490399 1.709468 2.689765 3.351348
32.214286 0.681160 0.941882 1.495597 1.716927 2.695043 3.367555
32.357143 0.690627 0.947869 1.501112 1.724356 2.701347 3.387409
32.500000 0.700699 0.953541 1.506707 1.731960 2.705414 3.416201
32.642857 0.707861 0.959252 1.511316 1.739261 2.711269 3.425648
32.785714 0.715772 0.964497 1.516832 1.746875 2.715609 3.437958
32.928571 0.723357 0.970877 1.522821 1.754692 2.721257 3.445645
33.071429 0.729278 0.976301 1.528208 1.761886 2.726743 3.450129
33.214286 0.742673 0.982754 1.533955 1.769549 2.731849 3.456690
33.357143 0.753673 0.990002 1.539889 1.777174 2.736986 3.464072
33.500000 0.762498 0.996712 1.546114 1.785037 2.741362 3.477141
33.642857 0.771241 1.002158 1.551415 1.792492 2.747964 3.488390
33.785714 0.780395 1.009082 1.556741 1.799821 2.753191 3.503536
33.928571 0.787000 1.015447 1.562701 1.807025 2.757704 3.511172
34.071429 0.798151 1.022972 1.568081 1.814670 2.763695 3.522580
34.214286 0.806523 1.032219 1.573567 1.822213 2.768288 3.531525
34.357143 0.813624 1.039602 1.579030 1.829775 2.773901 3.537031
34.500000 0.824271 1.048277 1.585106 1.837341 2.781220 3.543960
34.642857 0.833603 1.053945 1.591135 1.844658 2.786085 3.551329
34.785714 0.841765 1.061230 1.596554 1.852335 2.791923 3.575710
34.928571 0.863330 1.069223 1.602105 1.859781 2.797927 3.586233
35.071429 0.873418 1.077281 1.606729 1.867386 2.803461 3.606498
35.214286 0.883980 1.085262 1.612346 1.874600 2.807607 3.615703
35.357143 0.894341 1.093321 1.617154 1.881857 2.813370 3.622456
35.500000 0.904007 1.100584 1.623104 1.889049 2.818111 3.635030
35.642857 0.918077 1.107665 1.629744 1.896223 2.823376 3.644527
35.785714 0.928164 1.115244 1.635933 1.903486 2.830196 3.650101
35.928571 0.935060 1.120567 1.642237 1.910770 2.835064 3.657668
36.071429 0.960505 1.128330 1.648242 1.918249 2.839465 3.662497
36.214286 0.987079 1.136041 1.654709 1.925856 2.843757 3.672030
36.357143 0.995669 1.142712 1.661401 1.933466 2.848721 3.682935
36.500000 1.006495 1.150400 1.668968 1.940752 2.853723 3.690526
36.642857 1.022367 1.157223 1.674219 1.947943 2.859733 3.699046
36.785714 1.048652 1.165208 1.679004 1.955437 2.863743 3.705880
36.928571 1.068236 1.173024 1.686788 1.963095 2.868754 3.714714
37.071429 1.078530 1.181338 1.693276 1.970592 2.872926 3.722449
37.214286 1.089919 1.189511 1.701278 1.978224 2.878297 3.728045
37.357143 1.097610 1.196286 1.710448 1.985773 2.883372 3.736665
37.500000 1.109250 1.202643 1.726404 1.993716 2.889834 3.743741
37.642857 1.117934 1.208841 1.734704 2.001003 2.896650 3.748556
37.785714 1.122723 1.215122 1.748247 2.008748 2.903119 3.754637
37.928571 1.128254 1.221621 1.762301 2.016115 2.908924 3.761487
38.071429 1.134643 1.228349 1.770431 2.023383 2.913873 3.768332
38.214286 1.140230 1.235697 1.779652 2.030704 2.919848 3.773639
38.357143 1.146057 1.242792 1.787212 2.037830 2.925570 3.777887
38.500000 1.151984 1.248742 1.796084 2.044925 2.932826 3.783738
38.642857 1.160421 1.253937 1.802809 2.052138 2.940721 3.789292
38.785714 1.170886 1.259081 1.814315 2.059466 2.949080 3.794169
38.928571 1.176683 1.265188 1.827583 2.066848 2.960394 3.802396
39.071429 1.184534 1.270909 1.838627 2.074373 2.968947 3.807474
39.214286 1.199045 1.275813 1.846972 2.081765 2.977375 3.812581
39.357143 1.209464 1.281554 1.859480 2.089088 2.982573 3.817695
39.500000 1.219176 1.287291 1.868617 2.096625 2.992697 3.822262
39.642857 1.229426 1.294337 1.880916 2.104407 3.003331 3.828627
39.785714 1.240425 1.300889 1.893466 2.111676 3.011001 3.833204
39.928571 1.248892 1.306781 1.903961 2.119214 3.019182 3.837410
40.071429 1.258493 1.312346 1.915369 2.126854 3.025365 3.845345
40.214286 1.264528 1.318898 1.923542 2.134319 3.030439 3.849725
40.357143 1.273398 1.325434 1.931218 2.141544 3.034337 3.854759
40.500000 1.284172 1.332202 1.937332 2.148561 3.040271 3.859847
40.642857 1.292931 1.338351 1.948946 2.156140 3.047863 3.866494
40.785714 1.305604 1.345918 1.955973 2.163399 3.054345 3.870893
40.928571 1.317330 1.354069 1.964417 2.170683 3.068072 3.878152
41.071429 1.323338 1.363509 1.971743 2.178205 3.074781 3.883765
41.214286 1.331306 1.371581 1.978370 2.185616 3.085385 3.888820
41.357143 1.341182 1.383105 1.985574 2.193427 3.099096 3.894188
41.500000 1.349073 1.392440 1.992440 2.201100 3.109134 3.900972
41.642857 1.358008 1.401188 1.995912 2.208898 3.118976 3.907876
41.785714 1.363851 1.407817 2.002849 2.216634 3.135037 3.914643
41.928571 1.366203 1.415703 2.010702 2.224339 3.145300 3.921016
42.071429 1.370221 1.421832 2.018112 2.232326 3.154447 3.926301
42.214286 1.374304 1.428337 2.024554 2.240253 3.166249 3.930638
42.357143 1.376224 1.434545 2.031412 2.247943 3.176529 3.936947
42.500000 1.380252 1.440717 2.038503 2.255427 3.182692 3.941381
42.642857 1.385385 1.446618 2.044702 2.263044 3.189817 3.946646
42.785714 1.389436 1.452665 2.051462 2.270593 3.196691 3.953479
42.928571 1.394383 1.459774 2.058219 2.278623 3.203157 3.959478
43.071429 1.397993 1.465522 2.067965 2.286573 3.210652 3.965648
43.214286 1.402318 1.471030 2.077225 2.294507 3.220127 3.970388
43.357143 1.406027 1.476034 2.090321 2.302270 3.225987 3.976018
43.500000 1.410104 1.481752 2.101274 2.310331 3.233976 3.980785
43.642857 1.414194 1.487429 2.109931 2.318201 3.241075 3.985091
43.785714 1.419809 1.492887 2.121539 2.326127 3.247099 3.991451
43.928571 1.426633 1.497705 2.133136 2.334238 3.251894 3.997509
44.071429 1.434722 1.503576 2.144447 2.342354 3.257785 4.003370
44.214286 1.439957 1.508642 2.157465 2.349975 3.262605 4.009469
44.357143 1.447079 1.513950 2.170300 2.357964 3.268418 4.015230
44.500000 1.451541 1.519414 2.180747 2.365935 3.272668 4.021152
44.642857 1.457058 1.524583 2.193771 2.373743 3.278514 4.026619
44.785714 1.461533 1.529756 2.202065 2.381693 3.284323 4.032782
44.928571 1.467665 1.535256 2.211590 2.389426 3.288779 4.038316
45.071429 1.475309 1.540684 2.218650 2.397125 3.294768 4.045512
45.214286 1.489180 1.545829 2.228084 2.405171 3.300391 4.051785
45.357143 1.512277 1.551543 2.242740 2.413062 3.305849 4.056718
45.500000 1.518989 1.557004 2.255415 2.421060 3.310975 4.063657
45.642857 1.535355 1.562465 2.268250 2.429151 3.316177 4.069561
45.785714 1.540257 1.567953 2.280698 2.437041 3.322164 4.074864
45.928571 1.545229 1.573085 2.289312 2.444773 3.326944 4.080250
46.071429 1.550412 1.578134 2.293655 2.452749 3.331679 4.085884
46.214286 1.556143 1.583966 2.298310 2.460272 3.336820 4.090725
46.357143 1.561257 1.588886 2.302921 2.467875 3.341996 4.095757
46.500000 1.567051 1.594153 2.311307 2.475515 3.347273 4.100125
46.642857 1.572773 1.599571 2.317865 2.482891 3.351994 4.105414
46.785714 1.577740 1.604972 2.322244 2.490619 3.357098 4.109963
46.928571 1.582661 1.609769 2.327892 2.498091 3.362387 4.113870
47.071429 1.589383 1.615593 2.332663 2.505245 3.366995 4.117754
47.214286 1.595251 1.621685 2.338266 2.512932 3.372178 4.123170
47.357143 1.600591 1.626808 2.343379 2.520334 3.376930 4.127639
47.500000 1.606967 1.633012 2.350902 2.527595 3.382496 4.132561
47.642857 1.614196 1.639435 2.356323 2.535414 3.387297 4.136294
47.785714 1.619707 1.646306 2.361515 2.543013 3.392140 4.140890
47.928571 1.625899 1.652628 2.367210 2.550472 3.397077 4.145621
48.071429 1.632728 1.659600 2.372803 2.558137 3.402138 4.149469
48.214286 1.638945 1.666978 2.380709 2.565990 3.407716 4.154792
48.357143 1.644425 1.674425 2.387952 2.573856 3.412704 4.159773
48.500000 1.651968 1.684999 2.395815 2.581779 3.417255 4.163841
48.642857 1.657796 1.694150 2.404679 2.589754 3.422029 4.168272
48.785714 1.663580 1.704345 2.410616 2.597448 3.426479 4.172877
48.928571 1.669744 1.719466 2.420089 2.605884 3.431762 4.177793
49.071429 1.675012 1.727546 2.430782 2.613921 3.436751 4.181791
49.214286 1.682672 1.740329 2.449990 2.622102 3.441617 4.186124
49.357143 1.688401 1.750461 2.457651 2.630117 3.446925 4.190623
49.500000 1.695170 1.764206 2.497422 2.638245 3.451276 4.195270
49.642857 1.701394 1.775893 2.509522 2.646516 3.456028 4.199394
49.785714 1.708296 1.785380 2.530680 2.654681 3.460650 4.204600
49.928571 1.713608 1.797682 2.551796 2.662754 3.465375 4.209108
50.071429 1.720613 1.809228 2.559100 2.670457 3.470366 4.213747
50.214286 1.728171 1.824732 2.565716 2.678792 3.475394 4.218928
50.357143 1.736602 1.838352 2.570531 2.686628 3.479411 4.223748
50.500000 1.743263 1.848380 2.585797 2.694612 3.484218 4.229526
50.642857 1.748585 1.863415 2.592231 2.702649 3.489473 4.234212
50.785714 1.756906 1.874835 2.598918 2.710729 3.495086 4.239426
50.928571 1.764369 1.889863 2.605625 2.718891 3.499472 4.245340
51.071429 1.770092 1.899723 2.612718 2.727093 3.505034 4.250683
51.214286 1.775761 1.907723 2.622443 2.734944 3.510025 4.256063
51.357143 1.780967 1.918574 2.629048 2.743531 3.515971 4.261429
51.500000 1.787065 1.934106 2.634335 2.751726 3.521861 4.267503
51.642857 1.792244 1.948847 2.639470 2.759924 3.527743 4.273089
51.785714 1.798524 1.959434 2.646380 2.768058 3.534259 4.279638
51.928571 1.806866 1.971870 2.651539 2.776359 3.539616 4.286800
52.071429 1.814111 1.983275 2.655738 2.784696 3.544750 4.292325
52.214286 1.821930 1.999851 2.662235 2.792990 3.551556 4.301659
52.357143 1.825737 2.016857 2.667801 2.801037 3.558695 4.306192
52.500000 1.835359 2.031768 2.673527 2.809514 3.565691 4.313231
52.642857 1.844687 2.045880 2.679777 2.818082 3.572445 4.317441
52.785714 1.854282 2.058927 2.684993 2.826749 3.581912 4.327174
52.928571 1.863371 2.068184 2.690999 2.835018 3.588511 4.332258
53.071429 1.877687 2.083218 2.695703 2.843537 3.597331 4.338629
53.214286 1.885900 2.097465 2.703253 2.851748 3.602754 4.344270
53.357143 1.896750 2.109476 2.711880 2.860461 3.609970 4.350834
53.500000 1.902476 2.120642 2.716655 2.869094 3.616362 4.355634
53.642857 1.915324 2.133319 2.722753 2.877916 3.623725 4.362641
53.785714 1.919900 2.145147 2.727171 2.886375 3.631413 4.369085
53.928571 1.933876 2.156033 2.732611 2.895006 3.638081 4.375107
54.071429 1.944142 2.166281 2.740234 2.903349 3.644039 4.382410
54.214286 1.959539 2.174821 2.744860 2.911856 3.650775 4.389685
54.357143 1.971817 2.183324 2.752382 2.920136 3.656633 4.396998
54.500000 1.979115 2.192515 2.758020 2.928213 3.662663 4.403145
54.642857 1.988790 2.199516 2.767148 2.936257 3.668867 4.409591
54.785714 1.996316 2.207686 2.775720 2.944011 3.674555 4.414549
54.928571 2.002273 2.214613 2.782015 2.951858 3.680259 4.421456
55.071429 2.010372 2.222316 2.790284 2.959451 3.685094 4.428370
55.214286 2.014960 2.230794 2.816665 2.967046 3.690455 4.433890
55.357143 2.022254 2.238070 2.834440 2.974549 3.695270 4.438509
55.500000 2.031455 2.245219 2.863840 2.982268 3.700546 4.445393
55.642857 2.040682 2.251038 2.880439 2.989552 3.705593 4.452299
55.785714 2.049376 2.257087 2.888762 2.996916 3.711015 4.457842
55.928571 2.059074 2.263222 2.899675 3.004489 3.716306 4.462830
56.071429 2.070703 2.269137 2.905918 3.011962 3.721187 4.468475
56.214286 2.089051 2.274963 2.912363 3.019573 3.726577 4.474691
56.357143 2.098776 2.280321 2.927423 3.027006 3.731947 4.481967
56.500000 2.113779 2.288253 2.935634 3.034264 3.737179 4.488082
56.642857 2.123131 2.293508 2.941939 3.041633 3.743030 4.493992
56.785714 2.148355 2.300979 2.946914 3.049047 3.747898 4.500390
56.928571 2.177692 2.309629 2.951445 3.056572 3.753579 4.506182
57.071429 2.195837 2.321005 2.960966 3.064056 3.758591 4.511711
57.214286 2.204524 2.332431 2.964893 3.071650 3.764739 4.518428
57.357143 2.216179 2.336912 2.970166 3.079302 3.770642 4.525659
57.500000 2.237438 2.343053 2.975928 3.087022 3.776669 4.530920
57.642857 2.253086 2.348534 2.978722 3.094442 3.782046 4.535896
57.785714 2.265924 2.353918 2.984892 3.102098 3.787203 4.542536
57.928571 2.287144 2.359851 2.992522 3.109772 3.793828 4.547674
58.071429 2.300183 2.363897 2.997548 3.117282 3.799415 4.553776
58.214286 2.309440 2.369118 3.001814 3.124666 3.805249 4.561617
58.357143 2.324674 2.373657 3.004845 3.132095 3.810732 4.569860
58.500000 2.333611 2.378240 3.011500 3.139953 3.816810 4.576175
58.642857 2.349409 2.382445 3.020618 3.148053 3.823865 4.583626
58.785714 2.358256 2.388767 3.023449 3.156152 3.830294 4.588966
58.928571 2.365774 2.392774 3.033048 3.164209 3.836534 4.596984
59.071429 2.370388 2.396966 3.039390 3.172074 3.843315 4.603451
59.214286 2.375841 2.402300 3.055746 3.179997 3.849446 4.610641
59.357143 2.380842 2.409372 3.069783 3.187839 3.855113 4.617903
59.500000 2.384947 2.415571 3.086443 3.195608 3.860405 4.625135
59.642857 2.389185 2.421913 3.091050 3.203216 3.866774 4.632562
59.785714 2.393557 2.427507 3.108056 3.210897 3.872883 4.639897
59.928571 2.398564 2.433849 3.122124 3.218617 3.878717 4.646413
60.071429 2.402147 2.439558 3.132708 3.226012 3.885105 4.652849
60.214286 2.406794 2.447480 3.145458 3.233589 3.890673 4.659269
60.357143 2.411240 2.453194 3.156819 3.241095 3.896682 4.665332
60.500000 2.416322 2.458533 3.166644 3.248563 3.902301 4.673004
60.642857 2.420290 2.473358 3.183423 3.256392 3.907700 4.681395
60.785714 2.425015 2.489766 3.189310 3.264117 3.912820 4.688263
60.928571 2.429954 2.501924 3.200265 3.271524 3.918443 4.694812
61.071429 2.433448 2.508793 3.208103 3.278946 3.925263 4.699887
61.214286 2.437541 2.513145 3.237276 3.286030 3.931011 4.706364
61.357143 2.441008 2.519195 3.245675 3.293408 3.937725 4.711763
61.500000 2.443921 2.531917 3.261192 3.300632 3.944453 4.718288
61.642857 2.449233 2.543780 3.283010 3.307784 3.949961 4.725036
61.785714 2.453847 2.547025 3.295011 3.315045 3.955844 4.732107
61.928571 2.457622 2.550956 3.308662 3.321948 3.961825 4.738154
62.071429 2.462100 2.559004 3.316424 3.328959 3.966631 4.743208
62.214286 2.465889 2.566016 3.324204 3.335947 3.973724 4.748035
62.357143 2.471107 2.579383 3.337593 3.343017 3.979916 4.752901
62.500000 2.475950 2.593886 3.346031 3.350239 3.986379 4.757441
62.642857 2.480749 2.606981 3.355787 3.356803 3.991595 4.762315
62.785714 2.483836 2.614140 3.367433 3.363473 3.996421 4.767460
62.928571 2.487640 2.620673 3.379964 3.370077 4.001435 4.773678
63.071429 2.493380 2.627290 3.397679 3.376881 4.007986 4.778106
63.214286 2.497685 2.633648 3.407162 3.383703 4.013839 4.782581
63.357143 2.501866 2.641101 3.417760 3.390519 4.019557 4.787607
63.500000 2.507168 2.647423 3.436571 3.397073 4.024689 4.792738
63.642857 2.512278 2.652352 3.448819 3.403635 4.029620 4.798309
63.785714 2.517341 2.661448 3.458414 3.410584 4.034678 4.801742
63.928571 2.521685 2.675204 3.473992 3.417435 4.040056 4.807386
64.071429 2.525717 2.682673 3.482804 3.424355 4.046122 4.811761
64.214286 2.531288 2.696484 3.502284 3.431243 4.051508 4.816386
64.357143 2.536979 2.702507 3.516908 3.438283 4.056369 4.821313
64.500000 2.541556 2.707612 3.525597 3.445281 4.061675 4.826104
64.642857 2.545517 2.713949 3.539810 3.452050 4.067177 4.831712
64.785714 2.550202 2.722958 3.554240 3.459135 4.072378 4.835993
64.928571 2.555079 2.728661 3.565141 3.466409 4.077648 4.841421
65.071429 2.559497 2.734299 3.578169 3.473525 4.082953 4.845984
65.214286 2.563922 2.740434 3.596773 3.481104 4.088094 4.851149
65.357143 2.567440 2.749088 3.613337 3.488389 4.093395 4.856151
65.500000 2.573417 2.754292 3.628447 3.495785 4.098765 4.860086
65.642857 2.579417 2.759281 3.638142 3.502972 4.104606 4.864669
65.785714 2.585470 2.765599 3.643240 3.510362 4.109659 4.869273
65.928571 2.589771 2.772261 3.651455 3.517674 4.114966 4.874441
66.071429 2.596943 2.779594 3.657812 3.525274 4.120429 4.879948
66.214286 2.603169 2.785240 3.663474 3.532839 4.126077 4.884941
66.357143 2.609308 2.792615 3.667311 3.540327 4.131721 4.889967
66.500000 2.616674 2.798884 3.672919 3.547751 4.137401 4.895782
66.642857 2.625762 2.804883 3.679318 3.555260 4.142503 4.901020
66.785714 2.631373 2.810628 3.683838 3.562619 4.147869 4.905757
