depth(m) lower_95(kyr) lower_68(kyr) median(kyr) mean(kyr) upper_68(kyr) upper_95(kyr)
0.045000 2.458758 3.220286 3.912913 3.904356 4.566880 5.273354
0.167500 2.957232 3.634966 4.364644 4.356154 5.047456 5.813040
0.290000 3.354373 4.079006 4.762963 4.785783 5.482189 6.363959
0.412500 3.681880 4.475153 5.218292 5.226428 5.953213 6.899918
0.535000 4.069263 4.904160 5.658637 5.677482 6.428849 7.466652
0.660000 4.540303 5.328578 6.100198 6.155859 6.950137 8.231119
0.785000 5.034558 5.768758 6.557511 6.660182 7.586336 8.716985
0.910000 5.442769 6.209289 7.071712 7.182280 8.212245 9.261049
1.035000 6.014352 6.727464 7.581777 7.713435 8.808256 9.798676
1.162500 6.511878 7.324697 8.266447 8.341483 9.444196 10.523077
1.290000 7.073374 7.957906 8.964800 8.984201 10.087436 11.078736
1.417500 7.760782 8.609434 9.666112 9.663401 10.704467 11.652273
1.545000 8.514281 9.385743 10.363813 10.354973 11.345639 12.130174
1.670000 9.150542 10.126857 11.134948 11.061208 11.990793 12.641311
1.755000 9.622045 10.611291 11.553882 11.497200 12.402676 12.939116
1.840000 10.114217 11.057297 11.980714 11.929905 12.783525 13.293983
1.942500 10.591212 11.661974 12.555117 12.444955 13.224018 13.715317
2.045000 11.073152 12.207069 13.041946 12.927988 13.636867 14.161133
2.120000 11.506721 12.542868 13.377625 13.270756 13.958271 14.540711
2.200000 11.799272 12.886311 13.719366 13.616738 14.292805 14.855965
2.280000 12.215435 13.305122 14.031724 13.949789 14.628998 15.223823
2.403333 12.729694 13.773931 14.467267 14.434691 15.121432 15.811611
2.526667 13.330146 14.227889 14.882053 14.906558 15.577356 16.428033
2.650000 13.895754 14.693372 15.319661 15.385015 16.090428 17.128195
2.777857 14.336497 15.080846 15.789352 15.865729 16.646384 17.799151
2.905714 14.680111 15.478085 16.249019 16.342072 17.211512 18.592366
3.033571 15.164505 15.854348 16.689641 16.814470 17.786021 19.168446
3.161429 15.565983 16.242784 17.119189 17.274166 18.347376 19.959005
3.289286 16.010473 16.576408 17.535790 17.724341 18.871883 20.552087
3.417143 16.378901 16.953549 17.979072 18.173181 19.393763 21.124634
3.545000 16.745085 17.359847 18.404520 18.635162 19.973579 21.714969
3.667500 17.035225 17.729566 18.807907 19.049898 20.434274 22.294951
3.790000 17.372354 18.089318 19.221500 19.480371 20.914246 22.806282
3.912500 17.724908 18.444477 19.653106 19.899624 21.399982 23.542045
4.035000 18.038384 18.810178 20.053211 20.301212 21.815082 24.001591
4.162500 18.364658 19.177506 20.471671 20.727910 22.362984 24.448163
4.290000 18.705093 19.529124 20.905918 21.151866 22.828611 24.991203
4.417500 19.030708 19.915580 21.301451 21.577244 23.370457 25.652855
4.545000 19.354504 20.316441 21.695503 21.999811 23.802606 26.298803
4.690385 19.753153 20.767894 22.160001 22.486510 24.373512 26.792450
4.835769 20.084483 21.192551 22.579236 22.965536 24.881261 27.399044
4.981154 20.405518 21.653494 23.090332 23.461924 25.505289 28.112564
5.126538 20.797938 22.075932 23.589497 23.955057 26.053775 28.757305
5.271923 21.156666 22.552566 24.076298 24.462536 26.570468 29.955368
5.417308 21.627209 23.005226 24.546036 24.975788 27.093468 30.702817
5.562692 22.076413 23.438698 24.992561 25.486588 27.705632 31.278658
5.708077 22.483927 23.846002 25.447211 25.995672 28.270158 32.004867
5.853462 22.897659 24.328329 26.071121 26.520941 28.781038 32.408990
5.998846 23.343547 24.770584 26.589362 27.061716 29.499124 33.078884
6.144231 23.793024 25.226070 27.095142 27.611552 30.070170 33.954339
6.289615 24.213647 25.723701 27.711406 28.174892 30.722191 34.625099
6.435000 24.670524 26.211951 28.235486 28.782920 31.498513 35.616124
6.562500 25.062320 26.597469 28.873016 29.338008 32.064285 36.256655
6.690000 25.549292 27.070874 29.418609 29.921459 32.697433 36.987545
6.817500 25.970942 27.652323 30.130096 30.558559 33.367456 37.599497
6.945000 26.405360 28.355992 30.819290 31.200325 34.148104 38.055454
7.085714 26.805738 28.842120 31.639220 31.909350 34.847789 39.135038
7.226429 27.202453 29.347426 32.381571 32.637322 35.630266 40.565128
7.367143 27.622798 29.958193 33.100942 33.391968 36.563750 41.529847
7.507857 28.155935 30.464565 33.906807 34.130675 37.497687 42.222093
7.648571 28.566522 31.180147 34.664666 34.876827 38.390176 42.819988
7.789286 29.096663 31.787997 35.553460 35.626793 39.228311 43.646230
7.930000 29.658844 32.474322 36.301603 36.378794 40.188395 44.412656
8.058750 30.112856 33.055589 36.838779 37.027865 40.925037 45.075739
8.187500 30.636808 33.692186 37.487436 37.695904 41.767765 45.926084
8.316250 30.942743 34.228540 38.184306 38.325629 42.470079 46.527824
8.445000 31.509514 34.925850 38.785322 38.976265 43.249653 47.144049
8.582500 32.085546 35.405385 39.469136 39.620679 43.947515 47.954494
8.720000 32.653703 35.966219 40.072230 40.268603 44.768996 48.558334
8.857500 33.185818 36.609892 40.731583 40.950349 45.458882 49.224109
8.995000 33.532413 37.157917 41.477000 41.604816 45.933919 49.835324
9.132500 33.945565 37.883996 42.311333 42.247583 46.491385 50.351849
9.270000 34.423200 38.501925 42.906114 42.860088 47.008734 50.708897
9.407500 34.878885 39.009420 43.732944 43.501354 47.519496 51.700675
9.545000 35.463772 39.680396 44.474373 44.129149 48.124191 52.328605
9.682500 35.873551 40.218174 45.279240 44.747733 48.783668 52.701138
9.820000 36.344518 40.816985 46.025630 45.371354 49.343101 53.459990
9.957500 36.833125 41.428095 46.633275 45.981648 50.064970 54.132799
10.095000 37.330251 42.025269 47.289318 46.591320 50.670943 54.570483
10.217500 37.852260 42.600727 47.850341 47.151143 51.208634 55.036222
10.340000 38.371586 43.025982 48.341948 47.667633 51.751811 55.606973
10.462500 38.865438 43.517027 48.872806 48.205420 52.407947 56.028066
10.585000 39.426574 43.992473 49.473444 48.735947 52.942107 56.516627
10.710000 39.994049 44.526248 49.992970 49.261332 53.577054 56.917872
10.835000 40.766579 45.026911 50.552929 49.789775 54.086176 57.281137
10.960000 41.254735 45.456309 51.036808 50.322841 54.511508 57.688032
11.085000 41.582646 45.965975 51.550602 50.834571 55.010027 58.265315
11.210000 42.157207 46.401825 52.023183 51.320726 55.472126 58.793169
11.335000 42.589762 46.917150 52.492830 51.816494 56.090113 59.205623
11.460000 43.136562 47.450796 52.858960 52.319921 56.679388 59.735554
11.585000 43.520146 47.955462 53.252465 52.786645 57.278895 60.203643
11.710000 44.045084 48.500739 53.681911 53.260451 57.753085 60.606333
11.835000 44.813612 48.997128 54.074721 53.716534 58.175636 61.044009
11.960000 45.170815 49.694388 54.512262 54.177682 58.647451 61.377821
12.085000 45.685725 50.211550 54.905359 54.647690 59.019147 61.714727
12.223889 46.267854 50.940197 55.334284 55.150723 59.524800 62.092202
12.362778 47.183595 51.498430 55.809895 55.649776 59.892954 62.456128
12.501667 47.988224 51.957228 56.246100 56.138280 60.279704 62.888346
12.640556 48.584134 52.597824 56.739521 56.624911 60.652799 63.201829
12.779444 49.401859 53.120508 57.225471 57.117255 61.097359 63.647594
12.918333 50.116737 53.630890 57.719341 57.592443 61.517401 64.034163
13.057222 50.765602 54.315260 58.136191 58.082582 61.898575 64.369531
13.196111 51.286184 55.083477 58.548392 58.545143 62.350032 64.686597
13.335000 51.783449 55.725868 58.992401 59.031362 62.787273 65.160144
13.473889 52.333355 56.190472 59.494016 59.496012 63.193307 65.457615
13.612778 52.894252 56.743165 59.934983 59.950912 63.513292 65.718464
13.751667 53.416131 57.386638 60.394277 60.425687 63.900302 66.096799
13.890556 54.033294 57.947679 60.850979 60.891387 64.318538 66.422626
14.029444 54.459170 58.528928 61.317943 61.356831 64.785838 66.724413
14.168333 54.900897 58.989653 61.747948 61.830084 65.210105 67.082754
14.307222 55.431218 59.577436 62.165844 62.303060 65.667212 67.447839
14.446111 55.868230 60.107226 62.648133 62.787448 66.005837 67.842264
14.585000 56.715133 60.583314 63.220687 63.278120 66.454274 68.181481
14.716250 57.380914 61.162692 63.717699 63.751925 66.839509 68.508351
14.847500 58.283273 61.627416 64.248971 64.230641 67.224454 68.868543
14.978750 59.117629 62.091447 64.666183 64.705347 67.667479 69.257656
15.110000 59.525831 62.695713 65.153954 65.185226 68.011878 69.572278
15.241250 60.134610 63.251248 65.661997 65.683924 68.507219 69.963782
15.372500 60.733674 63.837373 66.132109 66.177892 68.946223 70.334178
15.503750 61.595972 64.368894 66.682110 66.683931 69.322626 70.804147
15.635000 62.547868 65.001985 67.170808 67.214166 69.771156 71.241246
15.760000 63.130076 65.490666 67.696819 67.743056 70.161882 71.574350
15.885000 63.704386 66.127186 68.286685 68.267026 70.593291 72.033817
16.010000 64.574096 66.678971 68.836207 68.803090 71.032645 72.402620
16.135000 65.095360 67.342901 69.425004 69.369362 71.492272 72.912985
16.260000 65.832255 68.045610 70.099639 69.984383 71.910330 73.385537
16.385000 66.766357 68.641015 70.733206 70.611580 72.460524 73.983854
16.510000 67.403038 69.329227 71.366737 71.222647 72.950599 74.514116
16.635000 68.208016 70.019661 71.985059 71.859783 73.510382 75.060263
16.760000 69.007227 70.846581 72.788040 72.613277 74.221044 75.985387
16.885000 69.825581 71.739988 73.458035 73.399868 74.947404 76.914862
17.010000 70.931937 72.642341 74.192240 74.200128 75.724665 77.676186
17.135000 71.801601 73.449458 74.956466 74.961242 76.509694 78.338761
17.260000 72.454412 74.216210 75.659848 75.720732 77.370778 79.069528
17.385000 73.130005 74.843581 76.438014 76.467946 78.184226 79.829386
17.510000 73.937350 75.543502 77.193205 77.206662 78.999804 80.502862
17.635000 74.611986 76.198722 77.930854 77.912512 79.720108 81.197923
17.760000 75.242688 76.780360 78.586408 78.600370 80.510142 81.852601
17.885000 75.917772 77.444987 79.287322 79.295764 81.121307 82.604552
18.010000 76.466671 78.161498 80.015530 79.994585 81.789637 83.323326
18.135000 77.160744 78.868452 80.768119 80.695530 82.434736 83.982734
18.262500 77.810872 79.712642 81.476631 81.440731 83.148530 84.741626
18.390000 78.411008 80.418347 82.214349 82.162703 83.815964 85.635636
18.517500 79.239764 81.197085 82.896539 82.861865 84.416043 86.374723
18.645000 79.888697 81.939394 83.556792 83.554795 85.175572 86.952582
18.786429 80.486718 82.663586 84.324314 84.327181 85.907201 88.113665
18.927857 81.573535 83.376446 85.019362 85.093500 86.721200 89.163356
19.069286 82.225794 84.052400 85.652432 85.837823 87.612392 90.280848
19.210714 83.041541 84.718470 86.336447 86.583475 88.437689 91.537867
19.352143 83.505867 85.401777 86.995331 87.303962 89.319431 92.441205
19.493571 84.416182 86.071327 87.724837 88.060009 90.242983 93.246959
19.635000 85.117664 86.808141 88.482816 88.817740 91.125306 94.147369
19.762500 85.868396 87.491871 89.144170 89.507155 91.736850 94.889938
19.890000 86.501930 88.153707 89.802570 90.185859 92.358968 95.715398
20.017500 87.283954 88.907165 90.486135 90.865143 92.969737 96.337171
20.145000 87.802298 89.671977 91.184203 91.557886 93.599628 96.867825
20.270000 88.548282 90.297445 91.978425 92.281634 94.371550 97.793552
20.395000 89.126658 90.909171 92.650061 92.973987 95.199519 98.415461
20.520000 89.570845 91.653777 93.392571 93.675366 95.876748 98.814803
20.645000 90.014125 92.280502 94.227002 94.393430 96.670803 99.556729
20.786429 90.631562 92.958951 94.981369 95.164302 97.526452 100.241661
20.927857 91.346001 93.631705 95.741349 95.919763 98.443978 100.813840
21.069286 92.095995 94.279487 96.436107 96.640739 99.144352 101.592910
21.210714 92.619865 94.979108 97.108750 97.382770 99.932830 102.427895
21.352143 93.567650 95.682625 97.965300 98.145018 100.753782 103.330135
21.493571 94.387529 96.437930 98.714372 98.870734 101.445096 104.324360
21.635000 95.054045 97.031024 99.470214 99.594889 102.179056 104.862001
21.762500 95.760787 97.615279 100.204192 100.250662 102.788331 105.397077
21.890000 96.524329 98.232173 100.921972 100.915906 103.445389 106.173328
22.017500 97.067532 98.941573 101.622841 101.581022 104.042143 106.823202
22.145000 97.605085 99.580785 102.381554 102.248778 104.595574 107.497038
22.267500 98.216638 100.156493 102.936801 102.876646 105.208820 108.406733
22.390000 98.809397 100.861793 103.573683 103.539936 105.940590 109.391507
22.512500 99.329938 101.558187 104.191091 104.225484 106.675429 109.982434
22.635000 100.015991 102.192537 104.871568 104.912476 107.404606 110.939410
22.760000 100.785109 103.003406 105.561850 105.633757 108.172351 111.654836
22.885000 101.233246 103.797274 106.243902 106.373932 108.877303 112.069685
23.010000 101.852899 104.608752 107.064056 107.166324 109.686083 112.802724
23.135000 102.788715 105.533840 107.878367 107.972079 110.471986 113.566581
23.260000 103.522989 106.413126 108.843819 108.829275 111.365513 114.261725
23.385000 104.335325 107.332009 109.720576 109.667411 112.123317 114.843827
23.510000 105.194092 108.252848 110.656691 110.561659 112.921862 115.556292
23.635000 106.149124 109.093217 111.575777 111.430945 113.703780 116.247341
23.760000 107.121508 109.961446 112.466598 112.354368 114.706496 116.847216
23.885000 108.462488 110.998151 113.432915 113.311265 115.599906 117.728092
24.010000 109.467832 112.171556 114.413163 114.324468 116.623239 118.465373
24.135000 110.584928 113.338825 115.344430 115.333838 117.396148 119.297433
24.260000 112.128512 114.401977 116.454903 116.420897 118.501622 120.307314
24.385000 113.481583 115.619216 117.545284 117.523213 119.643768 121.373267
24.510000 114.335360 116.743846 118.652801 118.588221 120.441383 122.070867
24.635000 116.194838 117.893486 119.738079 119.630982 121.351636 122.937361
24.760000 117.221295 118.862478 120.636028 120.573956 122.268500 123.791646
24.885000 117.962613 119.750499 121.604985 121.483192 123.079013 124.519788
25.010000 118.929291 120.711891 122.492901 122.352116 123.946675 125.255355
25.135000 119.964581 121.702219 123.324462 123.206146 124.740123 125.955530
25.235000 120.596841 122.422355 123.901005 123.858477 125.368927 126.571203
25.335000 121.242175 123.018546 124.556749 124.468959 125.899908 127.136033
25.460000 122.103867 123.843200 125.386555 125.304057 126.709876 128.031158
25.585000 122.969269 124.691571 126.223346 126.135461 127.586442 128.781107
25.710000 123.849100 125.603292 126.998926 126.952168 128.292524 129.591446
25.835000 124.782609 126.554593 127.805873 127.762861 129.112988 130.226410
25.960000 125.692325 127.214227 128.546562 128.495700 129.812166 130.964366
26.085000 126.470700 128.004679 129.187417 129.190739 130.463882 131.742718
26.210000 127.294806 128.645708 129.876726 129.873923 131.049928 132.279459
26.335000 128.080872 129.356864 130.521608 130.540779 131.732909 133.015322
26.460000 128.786937 129.970200 131.146624 131.169875 132.359161 133.776303
26.585000 129.451188 130.600317 131.742320 131.798796 133.007128 134.314733
26.710000 129.927676 131.207090 132.359948 132.404996 133.609100 135.109114
26.835000 130.690105 131.782496 132.907071 132.993901 134.229655 135.754776
26.960000 131.279311 132.314170 133.477747 133.580809 134.847344 136.545269
27.085000 131.867183 132.835115 134.033455 134.163276 135.506183 137.400699
27.210000 132.289421 133.354393 134.551536 134.714862 136.113934 138.226702
27.335000 132.744370 133.826468 135.021809 135.233065 136.672240 138.818632
27.477857 133.210638 134.384539 135.544802 135.799329 137.364368 139.546836
27.620714 133.769578 134.850564 136.064079 136.338664 137.982554 140.264145
27.763571 134.182517 135.317877 136.494239 136.852723 138.541574 140.983433
27.906429 134.665660 135.766500 136.985253 137.359340 139.093176 141.537468
28.049286 135.144423 136.239546 137.490857 137.864591 139.625203 142.103013
28.192143 135.681236 136.754633 137.964226 138.380286 140.237887 142.772062
28.335000 136.128237 137.277833 138.437241 138.886041 140.721181 143.200802
28.460000 136.578115 137.688060 138.874085 139.327558 141.215651 143.749111
28.585000 137.017358 138.165417 139.324692 139.785191 141.719057 144.120915
28.710000 137.468193 138.572677 139.763944 140.251769 142.254801 144.609820
28.835000 137.896094 139.017114 140.182430 140.702802 142.806883 145.155094
28.960000 138.310367 139.385480 140.669207 141.165533 143.323807 145.637980
29.085000 138.679030 139.786151 141.148340 141.635177 143.900768 146.171240
29.210000 139.107370 140.189135 141.622068 142.106770 144.526529 146.538681
29.335000 139.504406 140.637696 142.115715 142.578883 145.145377 147.096896
29.460000 139.946533 141.088989 142.584548 143.057341 145.598277 147.557365
29.585000 140.311793 141.536385 143.103437 143.550607 146.093816 148.103179
29.710000 140.705531 141.912172 143.600931 144.033079 146.533257 148.662760
29.835000 141.063974 142.307522 144.078230 144.526963 147.086668 149.456212
29.960000 141.434572 142.720919 144.509597 144.991642 147.529764 150.049575
30.085000 141.795208 143.186972 145.000581 145.464127 148.026288 150.702285
30.210000 142.182466 143.587884 145.509785 145.929210 148.431658 151.107019
30.335000 142.645338 144.050862 145.995988 146.414410 148.952308 151.692683
30.477857 143.010530 144.450405 146.552457 146.938668 149.520499 152.213614
30.620714 143.514020 144.927568 147.155379 147.483745 150.110793 152.685520
30.763571 143.874833 145.404336 147.710724 148.005459 150.646681 153.132195
30.906429 144.285622 145.919633 148.258010 148.531437 151.195855 153.817339
31.049286 144.587894 146.445706 148.832911 149.052555 151.740848 154.281135
31.192143 145.074812 146.942492 149.449405 149.568239 152.305204 154.649631
31.335000 145.407167 147.385257 149.945913 150.073276 152.806194 155.265068
31.477857 145.800649 147.951880 150.492814 150.598979 153.342059 155.752590
31.620714 146.232092 148.451606 151.067150 151.120367 153.827147 156.151442
31.763571 146.726874 148.953535 151.649644 151.653080 154.443795 156.703470
31.906429 147.058716 149.421548 152.215934 152.181183 154.942694 157.338708
32.049286 147.523036 149.931398 152.726982 152.719532 155.560575 157.792956
32.192143 147.993154 150.361374 153.258197 153.251713 156.096189 158.286345
32.335000 148.370196 150.922731 153.826213 153.784824 156.550839 158.818612
32.477857 148.687781 151.454063 154.421056 154.320696 157.096557 159.337723
32.620714 149.195454 151.884987 155.081797 154.871450 157.595491 159.857474
32.763571 149.608766 152.470199 155.634999 155.435665 158.277008 160.456024
32.906429 150.032481 153.082901 156.226411 156.008093 158.838897 160.945597
33.049286 150.395292 153.605134 156.875330 156.574600 159.348638 161.589721
33.192143 150.760677 154.219350 157.461756 157.158604 159.952830 162.039286
33.335000 151.224271 154.801374 157.988299 157.723596 160.498927 162.613697
33.460000 151.779395 155.252919 158.529895 158.222072 160.911694 163.381418
33.585000 151.974772 155.794173 159.108246 158.744610 161.483253 163.982441
33.710000 152.422601 156.295011 159.594136 159.272067 161.932481 164.704934
33.835000 153.125490 156.788173 160.088231 159.815587 162.529789 165.164427
33.960000 153.681914 157.206517 160.642255 160.349564 163.068617 165.863629
34.085000 154.130571 157.891394 161.111404 160.890847 163.706181 166.550953
34.210000 154.585938 158.455869 161.648153 161.430530 164.236659 167.152957
34.335000 155.316394 158.915783 162.139850 161.949708 164.737947 167.812100
34.477857 155.901403 159.491127 162.690504 162.550999 165.419439 168.468407
34.620714 156.616951 160.074446 163.227375 163.156038 166.118121 169.296950
34.763571 157.518984 160.749877 163.758646 163.779713 166.674384 169.922618
34.906429 158.268446 161.391704 164.361517 164.382170 167.244302 170.930771
35.049286 158.863957 161.948734 164.869614 164.981479 167.850100 171.674088
35.192143 159.503624 162.582306 165.410134 165.615773 168.522198 172.485765
35.335000 160.056486 163.205076 165.941436 166.241132 169.129680 173.492965
35.465000 160.653198 163.843969 166.580623 166.821084 169.695365 174.268765
35.595000 161.185210 164.441694 167.114787 167.425326 170.416111 175.237342
35.725000 161.966383 165.039798 167.701046 168.003308 171.035128 175.645827
35.855000 162.430452 165.695237 168.293908 168.614759 171.647369 176.249055
35.985000 163.115832 166.319728 168.925686 169.234004 172.211882 177.124547
