depth(m) lower_95(kyr) lower_68(kyr) median(kyr) mean(kyr) upper_68(kyr) upper_95(kyr)
0.130000 0.388487 1.139395 1.901968 1.922242 2.737257 3.445201
0.180000 2.630205 3.640989 4.591426 4.641918 5.667487 6.958149
0.230000 5.157068 6.290948 7.441532 7.544967 8.918016 10.051014
0.280000 8.136394 9.449953 10.955779 10.918220 12.251231 13.394362
0.330000 11.142480 12.854663 14.521586 14.355474 15.651240 16.964021
0.430000 16.423112 18.149499 20.497528 20.700176 23.279276 26.182431
0.480000 19.226420 21.256007 23.781562 24.097990 27.070022 29.940428
0.530000 22.388781 24.582549 27.391834 27.843727 31.102248 34.696834
0.580000 26.090724 28.666638 32.413158 32.719784 36.272979 42.796400
0.630000 29.168170 32.528026 36.850691 37.578083 42.728935 49.995853
0.680000 32.437709 36.302103 41.450708 42.668259 49.930851 56.630398
0.730000 35.179370 39.278953 45.769885 46.955456 55.914598 61.617768
0.780000 37.730556 42.273416 50.966283 51.188957 60.743131 64.728984
0.830000 40.308349 45.126281 56.676152 55.495972 65.096027 68.169847
0.880000 43.855003 48.346504 62.171245 59.197541 68.270178 70.672827
0.930000 47.237343 51.390632 66.482591 62.879007 71.214503 73.508717
0.980000 51.328410 55.370788 70.701504 66.711928 74.075183 76.794300
1.090000 59.560158 73.622583 76.863748 76.323966 79.866241 83.722102
1.140000 71.266851 76.313573 79.295820 79.302890 82.966567 87.171932
1.190000 74.983957 78.855940 82.064841 82.252668 86.286427 89.797535
1.240000 77.111199 81.257328 85.671946 85.169997 88.697072 91.824322
1.290000 80.695935 85.421083 88.202069 87.931247 90.553453 93.920599
1.340000 84.323047 88.235108 90.380236 90.307844 92.518745 96.070051
1.390000 87.504977 90.417263 92.346739 92.456649 94.577018 98.807516
1.440000 89.641795 92.473422 94.475832 94.701242 96.958311 101.496803
1.490000 92.093514 94.538375 96.833740 97.086428 99.702333 104.096376
1.540000 94.644320 97.081088 99.516441 99.765737 102.727023 106.407342
1.590000 97.312723 99.859340 102.612736 102.632112 105.539412 108.595891
1.640000 99.332042 102.442399 105.683326 105.535825 108.603787 111.220408
1.690000 101.564670 105.327992 108.708748 108.367147 111.286127 113.696897
1.790000 105.602303 109.505031 113.401709 112.917084 115.906545 118.317272
1.840000 108.483654 112.171477 115.396836 115.089467 117.862211 120.862575
1.890000 111.986340 115.022912 117.465582 117.528890 120.185069 123.479909
1.940000 115.848893 118.236171 120.432980 120.697207 123.345264 126.167190
1.990000 118.976236 121.780812 124.738635 124.451749 127.057920 128.809249
2.040000 123.647180 127.096565 128.823541 128.695668 130.550135 132.186375
2.090000 128.820685 130.550750 132.241114 132.194971 133.834354 135.772426
2.140000 132.508380 134.616031 136.873607 136.890275 139.195873 141.248480
2.190000 135.710598 137.645840 140.289290 140.142256 142.541891 144.403157
2.240000 138.231579 140.614245 142.971480 142.865006 144.955474 146.909185
2.290000 140.869466 143.387330 145.460533 145.398708 147.369983 149.408706
2.340000 143.683778 145.762963 147.740552 147.689860 149.528838 151.808200
2.390000 146.081809 147.977406 149.921165 149.873828 151.713907 153.914255
2.440000 147.823826 149.953909 152.063474 152.005142 153.914408 156.056839
2.490000 149.878635 152.100492 154.028609 154.039592 155.959004 158.009038
2.590000 153.792198 155.774747 157.824538 157.852524 159.741749 162.148456
2.640000 155.951972 157.983472 159.878460 160.053369 162.085928 164.825381
2.690000 158.250372 160.303951 162.220879 162.458732 164.538455 168.898088
2.790000 162.628307 164.754979 167.275317 168.019573 171.299731 177.517059
2.840000 165.039439 167.405725 170.597350 171.464306 175.818729 180.983498
2.940000 169.339171 173.064386 178.134587 178.159616 183.364565 185.797822
2.990000 172.134118 176.953466 182.223892 181.666060 186.159218 188.307767
3.040000 175.205364 181.316338 185.704452 185.074518 188.706129 190.630285
3.090000 180.461273 186.200004 189.195657 188.776000 191.562462 193.232773
3.140000 186.841372 190.881336 193.109911 193.078564 195.276192 200.248543
3.190000 193.268672 196.144154 198.716285 198.900919 201.476551 206.241233
3.240000 195.818279 201.460285 204.542188 204.294417 207.344924 210.033546
3.290000 199.665931 206.623962 210.246333 209.597326 212.768259 214.771749
3.340000 204.414201 212.354444 215.039000 214.391571 216.953142 218.986943
3.390000 214.634591 217.286311 219.261734 219.239488 221.331224 224.200352
3.490000 220.849614 223.110175 225.651459 225.703999 228.208494 230.956131
3.540000 224.143626 226.491170 229.987785 229.620801 232.477657 234.381017
3.590000 230.519300 233.779868 235.763521 235.509377 237.217292 239.182567
3.640000 236.939885 238.370854 239.721155 239.680035 240.975077 242.528157
3.740000 243.524398 245.296362 247.407779 248.130997 251.118622 257.058407
3.790000 246.197108 248.962424 252.149815 252.385009 255.751188 259.612771
3.840000 248.637959 252.631885 255.801491 255.771552 259.024175 262.071896
3.890000 250.927256 255.982923 258.893491 258.695534 261.593189 264.329856
3.940000 255.197476 258.318027 261.310688 261.284752 264.305464 266.699498
3.990000 257.673614 260.897231 264.043132 263.863854 266.759735 268.913826
4.065000 261.548540 264.814656 268.300483 267.816723 270.485725 272.284021
4.140000 265.814318 269.704123 271.962210 271.594634 273.482785 274.901698
4.190000 269.925557 272.323709 273.989486 273.821060 275.388297 276.494955
4.240000 272.820339 274.283487 275.679826 275.652134 277.001322 278.165814
4.290000 274.702735 276.018266 277.245495 277.291877 278.646187 279.744726
4.390000 277.872680 278.946662 280.009788 280.046243 281.005050 282.372507
4.440000 279.362189 280.385338 281.314495 281.417040 282.414794 283.835000
4.490000 280.921989 281.759200 282.729954 282.830672 283.761124 285.128816
4.540000 282.198807 283.154513 284.145689 284.243957 285.196701 286.495412
4.590000 283.661907 284.586957 285.504833 285.681094 286.724507 288.189400
4.640000 285.134643 286.027678 287.149154 287.395896 288.645892 290.673458
