depth(m) lower_95(kyr) lower_68(kyr) median(kyr) mean(kyr) upper_68(kyr) upper_95(kyr)
210.000000 208.779507 209.409959 210.056376 210.129816 210.893137 211.637737
210.142857 208.881334 209.546626 210.184374 210.254841 211.006510 211.797751
210.285714 209.036848 209.671108 210.293214 210.379075 211.120496 211.896479
210.428571 209.179243 209.795470 210.411751 210.504355 211.245686 211.996581
210.571429 209.274131 209.914190 210.526051 210.623217 211.367542 212.111584
210.714286 209.365739 210.030378 210.648544 210.744489 211.523825 212.279273
210.857143 209.478411 210.140697 210.761011 210.861103 211.628447 212.399602
211.000000 209.580807 210.249418 210.887936 210.971899 211.787953 212.507893
211.142857 209.676454 210.363924 211.001891 211.084166 211.916789 212.651114
211.285714 209.787783 210.469963 211.112468 211.195307 212.030010 212.749412
211.428571 209.890161 210.584317 211.208724 211.307434 212.159936 212.871530
211.571429 209.986771 210.691915 211.318289 211.416344 212.275879 213.016292
211.714286 210.074532 210.804083 211.437443 211.526052 212.436942 213.168260
211.857143 210.162497 210.914204 211.551705 211.639044 212.559335 213.255986
212.000000 210.275998 211.029067 211.652546 211.748936 212.679379 213.372184
212.142857 210.383115 211.125145 211.759140 211.860460 212.787700 213.511638
212.285714 210.502382 211.244913 211.857484 211.967504 212.906926 213.599247
212.428571 210.601929 211.349938 211.952559 212.078174 213.028198 213.723284
212.571429 210.702422 211.444979 212.042710 212.183629 213.127176 213.844669
212.714286 210.840675 211.540332 212.152542 212.290332 213.235823 213.945103
212.857143 210.931956 211.651481 212.278988 212.402829 213.337717 214.042669
213.000000 211.011270 211.753320 212.405671 212.507974 213.443006 214.141483
213.142857 211.086311 211.851550 212.514942 212.616409 213.582172 214.241832
213.285714 211.271711 211.957399 212.619503 212.724708 213.699525 214.334780
213.428571 211.355524 212.053917 212.734606 212.833923 213.797430 214.424442
213.571429 211.457896 212.146943 212.858951 212.942489 213.893123 214.557484
213.714286 211.552744 212.245194 212.966975 213.052579 213.998091 214.728336
213.857143 211.669316 212.340839 213.067587 213.162510 214.088227 214.802752
214.000000 211.778870 212.439440 213.176978 213.271793 214.175503 214.920324
214.142857 211.875864 212.551320 213.286511 213.378378 214.286805 215.028015
214.285714 211.995563 212.673957 213.430662 213.489655 214.382043 215.141380
214.428571 212.097899 212.769017 213.546945 213.600527 214.492228 215.284826
214.571429 212.198812 212.880175 213.669185 213.709087 214.610187 215.418310
214.714286 212.323553 212.979562 213.769509 213.817548 214.711861 215.535300
214.857143 212.470640 213.082400 213.885132 213.931577 214.817998 215.633998
215.000000 212.588463 213.197251 214.011690 214.042155 214.918437 215.764488
215.142857 212.663392 213.307911 214.133890 214.155063 215.019894 215.865478
215.285714 212.760535 213.420846 214.263821 214.268241 215.125329 215.960563
215.428571 212.871559 213.555491 214.379480 214.381954 215.231421 216.076172
215.571429 212.953635 213.660353 214.502689 214.496301 215.349323 216.154642
215.714286 213.053070 213.781529 214.643805 214.614701 215.454299 216.281185
215.857143 213.173652 213.887047 214.776115 214.733866 215.547575 216.390595
216.000000 213.216518 214.002821 214.910910 214.852116 215.645232 216.485764
216.142857 213.347489 214.115145 215.039457 214.974804 215.744379 216.559679
216.285714 213.515149 214.272894 215.186500 215.100190 215.855969 216.658513
216.428571 213.654849 214.416298 215.290436 215.224700 215.970110 216.758165
216.571429 213.782269 214.549615 215.410069 215.350632 216.068373 216.868927
216.714286 213.929861 214.704033 215.546237 215.482711 216.202212 216.994576
216.857143 214.060423 214.860080 215.667642 215.618620 216.310021 217.086870
217.000000 214.200601 215.032901 215.794246 215.749230 216.424046 217.206397
217.142857 214.367312 215.181281 215.929435 215.885589 216.555123 217.312359
217.285714 214.470575 215.344689 216.074898 216.025750 216.690676 217.412292
217.428571 214.593522 215.507322 216.195550 216.162097 216.825827 217.553820
217.571429 214.715381 215.663995 216.325060 216.300486 216.956979 217.673509
217.714286 214.832793 215.794826 216.464066 216.438043 217.081106 217.787604
217.857143 214.973185 215.963605 216.592336 216.575270 217.215619 217.891193
218.000000 215.127612 216.107137 216.723397 216.712520 217.386865 218.015643
218.142857 215.276491 216.270901 216.869901 216.851768 217.514141 218.177808
218.285714 215.396425 216.401678 217.018044 216.996724 217.667685 218.340733
218.428571 215.553140 216.540366 217.154494 217.142568 217.829932 218.470241
218.571429 215.676194 216.661341 217.295596 217.289203 217.977481 218.623458
218.714286 215.865597 216.815132 217.431224 217.441112 218.101631 218.829890
218.857143 216.056392 216.945247 217.564075 217.590716 218.251788 218.990443
219.000000 216.253431 217.063118 217.704439 217.735937 218.410076 219.171514
219.142857 216.532430 217.211886 217.830743 217.878445 218.572173 219.332332
219.285714 216.679544 217.374560 217.990262 218.028785 218.716354 219.507713
219.428571 216.896695 217.505839 218.129828 218.176585 218.878114 219.653225
219.571429 216.999837 217.673484 218.263442 218.322479 219.058349 219.772835
219.714286 217.178441 217.800342 218.406716 218.470445 219.218968 219.912753
219.857143 217.278117 217.937934 218.563638 218.619321 219.386314 220.105633
220.000000 217.398819 218.096967 218.725726 218.768671 219.535330 220.283036
220.142857 217.504307 218.251588 218.869822 218.924428 219.693572 220.408067
220.285714 217.644712 218.388963 219.055062 219.093084 219.875905 220.579606
220.428571 217.746283 218.549958 219.237358 219.256299 220.042466 220.719342
220.571429 217.913926 218.672434 219.412159 219.418984 220.190092 220.935946
220.714286 218.056934 218.834909 219.578193 219.578216 220.351943 221.116877
220.857143 218.158402 218.985070 219.751714 219.740863 220.532622 221.278963
221.000000 218.270833 219.138070 219.907823 219.897616 220.680647 221.412855
221.142857 218.353967 219.292100 220.094307 220.052164 220.817788 221.660155
221.285714 218.454349 219.434175 220.287846 220.212206 220.980797 221.837716
221.428571 218.583860 219.542310 220.433935 220.366384 221.156879 222.002202
221.571429 218.703211 219.675659 220.591065 220.522084 221.321221 222.201894
221.714286 218.868085 219.800697 220.739435 220.672872 221.486434 222.417971
221.857143 218.976357 219.922395 220.873517 220.825826 221.657721 222.682713
222.000000 219.087955 220.040786 221.035644 220.973174 221.833690 222.864157
222.142857 219.249600 220.160439 221.183220 221.114055 221.990901 223.070797
222.285714 219.422703 220.288401 221.296918 221.250504 222.154072 223.270829
222.428571 219.572401 220.394809 221.427547 221.380076 222.290972 223.417400
222.571429 219.725993 220.522870 221.543531 221.511760 222.454821 223.541895
222.714286 219.845476 220.629297 221.674087 221.640455 222.570849 223.662000
222.857143 219.935016 220.737368 221.789066 221.769041 222.705443 223.766896
223.000000 220.032070 220.865714 221.910310 221.894789 222.831208 223.928873
223.142857 220.164176 220.976682 222.056277 222.018883 222.957020 224.073906
223.285714 220.266190 221.087844 222.165696 222.143279 223.098250 224.169694
223.428571 220.322621 221.198269 222.300226 222.270095 223.217934 224.289147
223.571429 220.482120 221.320171 222.405525 222.388230 223.344740 224.465393
223.714286 220.542838 221.405653 222.535301 222.509407 223.496308 224.620516
223.857143 220.720974 221.521522 222.643983 222.625041 223.641399 224.722599
224.000000 220.800507 221.653769 222.755830 222.742621 223.766566 224.866021
224.142857 220.896125 221.764388 222.879253 222.860190 223.892330 224.990220
224.285714 221.043699 221.866359 222.994786 222.981031 224.013974 225.143946
224.428571 221.185259 221.967253 223.118512 223.102235 224.151265 225.240542
224.571429 221.330454 222.087633 223.233589 223.222323 224.288512 225.361963
224.714286 221.443807 222.227131 223.335689 223.343680 224.421633 225.464599
224.857143 221.562084 222.345619 223.458774 223.464652 224.545225 225.608928
225.000000 221.673490 222.458439 223.571350 223.589216 224.666311 225.709259
225.142857 221.753155 222.566737 223.689970 223.709701 224.784596 225.875702
225.285714 221.842748 222.667528 223.806471 223.827273 224.889811 226.095660
225.428571 221.953849 222.780961 223.919434 223.946832 225.025578 226.261032
225.571429 222.063566 222.917585 224.048949 224.067681 225.160291 226.438048
225.714286 222.171125 223.034513 224.160159 224.187992 225.289324 226.567450
225.857143 222.266106 223.150397 224.288128 224.302219 225.412959 226.700057
226.000000 222.350575 223.274540 224.398085 224.418108 225.508926 226.936327
226.142857 222.464564 223.357513 224.498567 224.536468 225.645035 227.075035
226.285714 222.585966 223.483331 224.596915 224.653199 225.788173 227.256597
226.428571 222.703303 223.584697 224.723409 224.772871 225.926773 227.462059
226.571429 222.841761 223.707468 224.853206 224.887801 226.048787 227.551955
226.714286 222.926151 223.837581 224.961975 225.005708 226.194190 227.623404
226.857143 223.031736 223.949032 225.079882 225.122301 226.315107 227.740793
227.000000 223.140358 224.062751 225.218949 225.243478 226.443182 227.858567
227.142857 223.264627 224.195891 225.336908 225.363415 226.585941 227.940645
227.285714 223.354658 224.295423 225.466649 225.482173 226.692969 228.022412
227.428571 223.445995 224.376939 225.575759 225.599410 226.795276 228.139037
227.571429 223.533336 224.486012 225.699812 225.718883 226.942812 228.358068
227.714286 223.637552 224.584357 225.804290 225.833614 227.044760 228.471063
227.857143 223.752480 224.734365 225.917504 225.950977 227.146486 228.543255
228.000000 223.877256 224.849068 226.041044 226.074141 227.284143 228.664916
228.142857 223.998502 224.961559 226.155593 226.194213 227.408963 228.772552
228.285714 224.131035 225.046549 226.275579 226.318708 227.548663 228.963880
228.428571 224.237246 225.178759 226.379542 226.439273 227.696257 229.092167
228.571429 224.326192 225.293746 226.500197 226.560037 227.827575 229.208647
228.714286 224.408254 225.434159 226.625386 226.680076 227.939829 229.375246
228.857143 224.527390 225.535343 226.746124 226.795563 228.054304 229.511445
229.000000 224.674060 225.642266 226.866566 226.923037 228.179343 229.658126
229.142857 224.760625 225.755426 226.983268 227.046552 228.283340 229.778566
229.285714 224.855505 225.890245 227.097219 227.168944 228.429671 229.913443
229.428571 224.949954 226.013805 227.215898 227.292700 228.563614 229.990735
229.571429 225.104602 226.131867 227.337894 227.417028 228.703868 230.102012
229.714286 225.236896 226.278600 227.446782 227.543722 228.847273 230.241489
229.857143 225.322998 226.408694 227.571856 227.673422 229.001871 230.304325
230.000000 225.458961 226.587446 227.699489 227.806317 229.128090 230.425414
230.142857 225.561882 226.720900 227.848740 227.941104 229.276733 230.561488
230.285714 225.728432 226.903002 227.995421 228.079915 229.399742 230.675299
230.428571 225.812632 227.023624 228.115147 228.216910 229.510718 230.730198
230.571429 225.939053 227.162319 228.276317 228.359979 229.653657 230.865746
230.714286 226.035569 227.287540 228.432386 228.501600 229.804049 230.980418
230.857143 226.125761 227.422777 228.584009 228.647638 229.987535 231.070953
231.000000 226.246160 227.586116 228.744547 228.807245 230.138025 231.199583
231.142857 226.421880 227.726955 228.908217 228.962797 230.285581 231.399993
231.285714 226.554649 227.898799 229.089366 229.119792 230.464863 231.568629
231.428571 226.757744 228.078326 229.259344 229.279895 230.589230 231.672545
231.571429 226.856955 228.262116 229.427727 229.442499 230.755208 231.745507
231.714286 227.100040 228.435772 229.576391 229.613553 230.910899 231.846081
231.857143 227.296289 228.627785 229.715607 229.779430 231.069753 232.012471
232.000000 227.475814 228.819156 229.904683 229.958314 231.229878 232.177478
232.142857 227.737943 229.003092 230.102241 230.140102 231.404823 232.307946
232.285714 227.960129 229.173916 230.297398 230.331470 231.569754 232.495811
232.428571 228.235936 229.374073 230.514735 230.531224 231.755740 232.665102
232.571429 228.439309 229.576533 230.716464 230.723081 231.936824 232.851731
232.714286 228.717372 229.814626 230.902916 230.920282 232.133563 232.996588
232.857143 228.950692 230.049115 231.118955 231.120230 232.300680 233.135331
233.000000 229.122914 230.277591 231.347631 231.323432 232.506580 233.342979
233.142857 229.295132 230.469925 231.532795 231.522914 232.680622 233.520935
233.285714 229.542132 230.655718 231.750625 231.721404 232.844008 233.733766
233.428571 229.783083 230.870372 231.939958 231.929921 233.023353 233.913725
233.571429 229.957306 231.070214 232.143366 232.129566 233.245044 234.120875
233.714286 230.186839 231.287305 232.335452 232.339900 233.450231 234.254068
233.857143 230.481730 231.500597 232.526962 232.541724 233.660190 234.471197
234.000000 230.764452 231.751363 232.730607 232.739309 233.828560 234.632192
234.142857 230.890663 231.945729 232.931875 232.943339 234.036487 234.909950
234.285714 231.070425 232.144991 233.089034 233.133890 234.203764 235.189148
234.428571 231.325052 232.332062 233.269614 233.324931 234.383787 235.401124
234.571429 231.596677 232.528162 233.497665 233.515341 234.571048 235.584392
234.714286 231.783833 232.707923 233.679823 233.705117 234.751255 235.763395
234.857143 231.978075 232.867338 233.863794 233.900433 234.921298 236.039031
235.000000 232.218653 233.047891 234.069352 234.081419 235.078319 236.188835
235.142857 232.412531 233.207202 234.230249 234.258292 235.257660 236.340253
235.285714 232.538490 233.368539 234.403200 234.437780 235.470029 236.661548
235.428571 232.720882 233.546095 234.567671 234.612001 235.625987 236.845570
235.571429 232.833060 233.750566 234.737463 234.789460 235.828435 237.023241
235.714286 232.997518 233.916641 234.918875 234.960115 236.009641 237.170253
235.857143 233.150903 234.107484 235.118794 235.135018 236.184327 237.354377
236.000000 233.312586 234.300341 235.301109 235.310624 236.325765 237.474464
236.142857 233.463043 234.466407 235.466778 235.490778 236.528512 237.673690
236.285714 233.664905 234.659732 235.644060 235.665005 236.688449 237.851056
236.428571 233.842649 234.814463 235.814841 235.839682 236.875049 238.030071
236.571429 234.014710 234.970622 235.981459 236.020651 237.055949 238.197761
236.714286 234.145299 235.155164 236.146953 236.205203 237.267234 238.448549
236.857143 234.244488 235.373270 236.301387 236.382384 237.411154 238.617503
237.000000 234.383850 235.554821 236.471465 236.563544 237.628746 238.792870
237.142857 234.573538 235.731299 236.634153 236.722509 237.807500 238.940161
237.285714 234.708895 235.889455 236.783550 236.889435 237.990566 239.131618
237.428571 234.861489 236.076995 236.943185 237.056042 238.126061 239.278092
237.571429 234.988335 236.249048 237.098374 237.228282 238.313224 239.396823
237.714286 235.140760 236.405017 237.311126 237.398874 238.547130 239.539696
237.857143 235.359146 236.575888 237.475540 237.570583 238.743566 239.700527
238.000000 235.509643 236.771122 237.630964 237.741058 238.936335 239.857771
238.142857 235.655714 236.928743 237.817315 237.906008 239.088687 240.074566
238.285714 235.792661 237.059426 237.976165 238.071159 239.255212 240.297573
238.428571 235.923366 237.221656 238.156655 238.234395 239.385738 240.439936
238.571429 236.035375 237.363866 238.336091 238.398547 239.552489 240.527205
238.714286 236.155400 237.532582 238.533332 238.572446 239.717380 240.713500
238.857143 236.302251 237.749582 238.707242 238.738096 239.886223 240.830893
239.000000 236.460261 237.890640 238.861895 238.901746 240.068807 240.984366
239.142857 236.587339 238.014585 239.021525 239.062988 240.231662 241.158679
239.285714 236.761120 238.178886 239.193079 239.226032 240.397074 241.285404
239.428571 236.877629 238.320825 239.359300 239.396028 240.554026 241.519197
239.571429 237.006919 238.481426 239.534194 239.562336 240.705012 241.757716
239.714286 237.225914 238.633621 239.725016 239.735789 240.851891 241.888870
239.857143 237.395931 238.849492 239.905215 239.904736 241.054560 242.026995
240.000000 237.593669 239.062080 240.078087 240.074431 241.194712 242.175875
240.142857 237.774462 239.238384 240.252319 240.259748 241.394423 242.339702
240.285714 238.090044 239.419876 240.422592 240.448212 241.589080 242.551536
240.428571 238.324802 239.608236 240.626119 240.640164 241.749902 242.750365
240.571429 238.466084 239.786341 240.839210 240.820083 241.908548 242.936663
240.714286 238.711202 239.988839 241.033660 241.007414 242.055989 243.145347
240.857143 238.831572 240.203924 241.221711 241.200891 242.200858 243.270422
241.000000 239.007186 240.394572 241.431064 241.389708 242.395549 243.434242
241.142857 239.151527 240.603497 241.635116 241.591388 242.621699 243.677060
241.285714 239.318677 240.778203 241.812719 241.791840 242.820830 243.763765
241.428571 239.560218 241.002300 242.028109 241.999549 243.050113 244.050557
241.571429 239.807715 241.229105 242.247738 242.206270 243.249954 244.204952
241.714286 240.126884 241.415044 242.451974 242.411495 243.417076 244.381785
241.857143 240.315742 241.621782 242.648787 242.621775 243.637256 244.573013
242.000000 240.668977 241.848774 242.849284 242.839088 243.812154 244.775696
242.142857 240.861186 242.062814 243.067169 243.058691 243.986770 244.977939
242.285714 241.108998 242.282440 243.273158 243.275855 244.238967 245.178059
242.428571 241.444066 242.512628 243.534244 243.506858 244.498173 245.376612
242.571429 241.699847 242.756005 243.720888 243.720256 244.691363 245.610994
242.714286 242.008032 243.036844 243.946787 243.953672 244.902420 245.888189
242.857143 242.196566 243.269552 244.190457 244.180015 245.098854 246.090900
243.000000 242.498826 243.496934 244.436833 244.407369 245.345603 246.240820
243.142857 242.754448 243.739997 244.676366 244.655609 245.542576 246.498807
243.285714 243.016930 243.941766 244.896558 244.896963 245.774976 246.896953
243.428571 243.176289 244.155244 245.174287 245.140429 246.053895 247.181948
243.571429 243.394305 244.337582 245.401182 245.385460 246.331093 247.543416
243.714286 243.617685 244.596286 245.645290 245.635479 246.564887 247.815736
243.857143 243.841680 244.856076 245.859094 245.872508 246.816896 248.168191
244.000000 244.114185 245.071397 246.089303 246.105775 247.058499 248.421427
244.142857 244.343643 245.245371 246.332538 246.340610 247.341264 248.681266
244.285714 244.565402 245.441311 246.556695 246.581378 247.586676 249.062730
244.428571 244.785262 245.622980 246.803605 246.820286 247.838223 249.294246
244.571429 244.973030 245.870041 247.047887 247.055260 248.101809 249.562008
244.714286 245.177994 246.082083 247.250777 247.284280 248.351622 249.854559
244.857143 245.360604 246.305053 247.465197 247.510169 248.613437 250.215141
245.000000 245.527380 246.528275 247.687747 247.735513 248.875288 250.423422
245.142857 245.763317 246.740328 247.915841 247.966487 249.093697 250.765274
245.285714 245.891865 246.935022 248.138177 248.187303 249.375975 250.960504
245.428571 246.012913 247.095986 248.382734 248.411096 249.668949 251.357045
245.571429 246.226884 247.287316 248.579467 248.630676 249.945726 251.581239
245.714286 246.417515 247.491848 248.773971 248.850073 250.180647 252.066483
245.857143 246.605607 247.711412 248.981315 249.064253 250.421681 252.244111
246.000000 246.817267 247.917540 249.189745 249.274136 250.645906 252.589490
246.142857 247.062970 248.105083 249.381322 249.467683 250.828046 252.938015
246.285714 247.217084 248.251136 249.554237 249.671783 251.058799 253.235786
246.428571 247.382465 248.384568 249.725592 249.868362 251.243299 253.574182
246.571429 247.583822 248.568017 249.928089 250.060326 251.405397 253.748586
246.714286 247.745778 248.734722 250.123810 250.245139 251.630998 253.926671
