depth(m) lower_95(kyr) lower_68(kyr) median(kyr) mean(kyr) upper_68(kyr) upper_95(kyr)
5.000000 0.905300 3.047622 5.014628 5.003473 6.970398 8.204828
5.142857 0.983041 3.085523 5.077772 5.060713 7.019572 8.276532
5.285714 1.079181 3.152248 5.130933 5.116279 7.070452 8.338609
5.428571 1.151178 3.211442 5.180033 5.172223 7.112521 8.383425
5.571429 1.234503 3.269226 5.239056 5.225119 7.154612 8.451800
5.714286 1.300646 3.324871 5.283675 5.275554 7.200482 8.489228
5.857143 1.424727 3.389453 5.324948 5.327916 7.249948 8.548387
6.000000 1.480841 3.439649 5.366449 5.379305 7.298752 8.584730
6.142857 1.525219 3.481860 5.410311 5.430948 7.349874 8.641675
6.285714 1.577018 3.519204 5.477355 5.482996 7.394063 8.684910
6.428571 1.652878 3.585064 5.523361 5.531938 7.439545 8.726599
6.571429 1.698809 3.632269 5.565173 5.580588 7.479693 8.779758
6.714286 1.755145 3.694526 5.620068 5.630987 7.522981 8.874429
6.857143 1.794873 3.742810 5.654425 5.678383 7.553748 8.934864
7.000000 1.843551 3.800423 5.699229 5.726822 7.607770 8.974192
7.142857 1.916898 3.848114 5.742634 5.772759 7.649984 9.020942
7.285714 1.968714 3.888287 5.800075 5.819028 7.683812 9.056017
7.428571 2.023825 3.938928 5.851395 5.867485 7.745284 9.084638
7.571429 2.089327 3.974132 5.892719 5.912624 7.788046 9.119713
7.714286 2.149387 4.010338 5.925446 5.958321 7.825535 9.154280
7.857143 2.188716 4.053813 5.970360 6.003033 7.883345 9.181615
8.000000 2.257463 4.109546 6.018362 6.047911 7.934074 9.207113
8.142857 2.315166 4.168644 6.063807 6.093599 7.978092 9.238486
8.285714 2.353301 4.214704 6.116833 6.139005 8.005791 9.309545
8.428571 2.399447 4.252777 6.171561 6.184632 8.036201 9.362174
8.571429 2.449325 4.293900 6.215059 6.231805 8.062992 9.430556
8.714286 2.490571 4.331338 6.264285 6.277533 8.093691 9.471249
8.857143 2.542236 4.371804 6.307423 6.321526 8.131903 9.502176
9.000000 2.584774 4.434426 6.352952 6.366443 8.168421 9.537419
9.142857 2.659262 4.491559 6.397400 6.412856 8.209784 9.594104
9.285714 2.699604 4.531626 6.446923 6.458299 8.239664 9.635033
9.428571 2.733770 4.584534 6.490567 6.502838 8.263703 9.673014
9.571429 2.786259 4.624441 6.541937 6.547297 8.294932 9.703240
9.714286 2.833069 4.674821 6.586126 6.590936 8.334164 9.730946
9.857143 2.859410 4.717605 6.627419 6.636252 8.378006 9.762900
10.000000 2.923358 4.781414 6.701247 6.684179 8.412936 9.780090
10.142857 2.962906 4.840855 6.739668 6.731147 8.466084 9.843502
10.285714 2.995080 4.910978 6.778483 6.776971 8.499872 9.894207
10.428571 3.034566 4.965483 6.830031 6.820921 8.539158 9.942000
10.571429 3.074677 5.007851 6.878559 6.864991 8.584601 9.983824
10.714286 3.123992 5.072084 6.938479 6.911589 8.621617 10.016960
10.857143 3.168452 5.124050 6.977714 6.956089 8.652140 10.053477
11.000000 3.196531 5.173079 7.023634 7.002600 8.683029 10.091124
11.142857 3.231574 5.237298 7.085012 7.048760 8.748662 10.133497
11.285714 3.275253 5.290250 7.136812 7.095035 8.813894 10.165102
11.428571 3.305152 5.342646 7.180940 7.141611 8.877870 10.206729
11.571429 3.353355 5.390547 7.241821 7.187435 8.915706 10.254634
11.714286 3.388720 5.420801 7.286883 7.232622 8.950546 10.313545
11.857143 3.418398 5.480979 7.349277 7.279225 8.974824 10.399481
12.000000 3.468888 5.527504 7.398732 7.324755 9.029119 10.483563
12.142857 3.511506 5.610024 7.459588 7.373344 9.082655 10.587512
12.285714 3.548014 5.655112 7.508483 7.418787 9.126357 10.622506
12.428571 3.583758 5.698834 7.539930 7.465463 9.159814 10.668340
12.571429 3.624184 5.738224 7.586247 7.512506 9.229009 10.745849
12.714286 3.674339 5.781158 7.629838 7.559102 9.261282 10.819537
12.857143 3.724382 5.824056 7.679157 7.606963 9.306899 10.868979
13.000000 3.791849 5.876214 7.732263 7.657606 9.381228 10.919017
13.142857 3.878411 5.935531 7.781280 7.709400 9.451798 10.977783
13.285714 3.942333 5.995059 7.822627 7.758150 9.541125 11.029863
13.428571 3.969982 6.037433 7.855065 7.808352 9.571842 11.086343
13.571429 3.997657 6.072150 7.917001 7.857030 9.614382 11.132821
13.714286 4.024564 6.127979 7.961703 7.908387 9.629902 11.186211
13.857143 4.047771 6.160383 7.997745 7.958396 9.683465 11.212162
14.000000 4.068625 6.201685 8.055006 8.009801 9.752438 11.249487
14.142857 4.125590 6.257333 8.102843 8.063326 9.815240 11.387975
14.285714 4.174935 6.331287 8.169302 8.116765 9.873461 11.448436
14.428571 4.230504 6.375255 8.208541 8.168455 9.922091 11.509173
14.571429 4.269384 6.416928 8.271607 8.216853 9.947283 11.554934
14.714286 4.331380 6.455778 8.309342 8.267142 9.996826 11.603563
14.857143 4.387666 6.503130 8.368195 8.315974 10.070621 11.663373
15.000000 4.456828 6.553445 8.423749 8.368187 10.161777 11.732626
15.142857 4.508368 6.598804 8.474497 8.421233 10.220320 11.870743
15.285714 4.540296 6.635698 8.520539 8.475919 10.295368 11.938214
15.428571 4.584266 6.680034 8.557086 8.529229 10.369490 12.038325
15.571429 4.623219 6.746538 8.617758 8.584524 10.412370 12.121501
15.714286 4.686894 6.822817 8.668805 8.637560 10.440626 12.175308
15.857143 4.747029 6.848190 8.716365 8.694123 10.492154 12.229241
16.000000 4.853798 6.887744 8.769087 8.751401 10.577724 12.364621
16.142857 4.927602 6.950946 8.805998 8.804757 10.668856 12.471993
16.285714 4.996849 6.992947 8.853400 8.861385 10.723108 12.603320
16.428571 5.040895 7.041591 8.899716 8.917802 10.766851 12.668141
16.571429 5.080818 7.104655 8.949191 8.974137 10.829579 12.762030
16.714286 5.164351 7.169847 8.996585 9.028649 10.869739 12.845585
16.857143 5.219706 7.231654 9.045267 9.081535 10.927234 12.951288
17.000000 5.340748 7.272283 9.118845 9.135141 10.969415 13.028002
17.142857 5.421161 7.321178 9.165425 9.188605 11.017619 13.128414
17.285714 5.533942 7.369289 9.222477 9.240520 11.057348 13.214248
17.428571 5.581736 7.420690 9.283633 9.292132 11.122628 13.283378
17.571429 5.627833 7.496990 9.324767 9.344675 11.191983 13.359086
17.714286 5.659099 7.549402 9.396542 9.397122 11.250182 13.437371
17.857143 5.708738 7.605540 9.442982 9.450128 11.284884 13.508320
18.000000 5.746097 7.657735 9.500026 9.504188 11.335595 13.552152
18.142857 5.821559 7.720325 9.557619 9.558923 11.389928 13.615143
18.285714 5.932443 7.795095 9.601663 9.613460 11.446562 13.684246
18.428571 5.988674 7.865839 9.642066 9.667888 11.501551 13.762037
18.571429 6.045303 7.951926 9.687610 9.721564 11.541614 13.827369
18.714286 6.100041 8.004775 9.737053 9.775914 11.574155 13.879770
18.857143 6.186456 8.076803 9.784854 9.831255 11.623184 13.924031
19.000000 6.268110 8.140116 9.857754 9.885089 11.679552 13.985939
19.142857 6.327619 8.178291 9.900057 9.939562 11.706579 14.079379
19.285714 6.369197 8.230125 9.946330 9.994245 11.774358 14.143511
19.428571 6.422254 8.286262 9.990372 10.050730 11.823125 14.222041
19.571429 6.478653 8.349110 10.053012 10.107176 11.866871 14.257172
19.714286 6.621224 8.393415 10.102387 10.162316 11.902151 14.311170
19.857143 6.694230 8.434613 10.160337 10.221020 11.944651 14.368984
20.000000 6.739057 8.493244 10.196359 10.277317 11.988518 14.448381
20.142857 6.794685 8.557632 10.244046 10.337083 12.060584 14.546090
20.285714 6.850853 8.652972 10.294426 10.399455 12.097267 14.660556
20.428571 6.936537 8.717673 10.357965 10.462253 12.143953 14.739802
20.571429 6.992535 8.784969 10.415945 10.529590 12.215540 14.782598
20.714286 7.053708 8.856847 10.454993 10.594185 12.255144 14.898841
20.857143 7.120225 8.894140 10.498838 10.664912 12.295280 15.050332
21.000000 7.196468 8.961009 10.556708 10.740103 12.375720 15.115347
21.142857 7.295109 9.020171 10.600402 10.815029 12.456894 15.157711
21.285714 7.374860 9.089848 10.659860 10.885836 12.505352 15.234820
21.428571 7.433190 9.150335 10.745332 10.965110 12.571397 15.301308
21.571429 7.614454 9.256475 10.790500 11.046531 12.723505 15.384432
21.714286 7.646432 9.351388 10.877219 11.131404 12.824768 15.452631
21.857143 7.760846 9.442376 10.947129 11.227463 12.932175 15.553309
22.000000 7.885812 9.567336 11.055272 11.330957 13.053634 15.610003
22.142857 8.136225 9.856211 11.268453 11.516087 13.320686 15.792789
22.285714 8.325652 10.153892 11.529916 11.753536 13.603626 15.876734
22.428571 8.859479 10.482567 11.939756 12.101354 13.787541 15.968132
22.571429 9.123057 10.773969 12.243414 12.392462 14.091284 16.025188
22.714286 9.699359 11.090598 12.557453 12.694015 14.321594 16.110295
22.857143 10.029883 11.466514 12.835272 12.961585 14.579573 16.254065
23.000000 10.383179 11.730335 13.217645 13.233089 14.865409 16.339796
23.142857 10.889055 12.035180 13.540814 13.592651 15.279768 16.707308
23.285714 11.059736 12.373604 13.864119 13.921936 15.504195 17.072955
23.428571 11.205711 12.592437 14.262451 14.237241 15.863242 17.261485
23.571429 11.368456 12.845150 14.612711 14.521494 16.047590 17.584443
23.714286 11.460481 13.087513 14.965112 14.822791 16.366035 17.825875
23.857143 11.518162 13.291896 15.273988 15.137507 16.822257 18.393201
24.000000 11.594188 13.716130 15.570198 15.437819 17.080711 18.748912
24.142857 11.674595 14.008287 15.874925 15.741713 17.399098 19.247285
24.285714 11.774469 14.358187 16.152401 16.020137 17.705306 19.932187
24.428571 11.814443 14.528051 16.427366 16.308623 18.026723 20.136019
24.571429 11.901702 14.774353 16.703421 16.609266 18.396120 20.536572
24.714286 11.941550 15.008711 17.022428 16.933386 19.026043 21.361342
24.857143 12.011229 15.231977 17.312827 17.208999 19.337120 21.898597
25.000000 12.112471 15.554020 17.477679 17.404229 19.488463 22.221121
25.142857 12.204815 15.610015 17.582340 17.543086 19.639816 22.342077
25.285714 12.257970 15.715490 17.719871 17.656361 19.752035 22.413764
25.428571 12.338981 15.775284 17.864163 17.762213 19.832812 22.535554
25.571429 12.407099 15.995210 17.961419 17.864885 19.950374 22.589954
25.714286 12.494749 16.084228 18.064639 17.958540 20.050305 22.639005
25.857143 12.568425 16.122407 18.158203 18.048774 20.146889 22.704574
26.000000 12.618886 16.159855 18.290893 18.141929 20.258207 22.764061
26.142857 12.656605 16.212070 18.372959 18.231099 20.403014 22.851770
26.285714 12.721315 16.306812 18.459079 18.319312 20.459556 22.893160
26.428571 12.794341 16.391782 18.563977 18.407548 20.544078 23.005424
26.571429 12.829715 16.517404 18.643587 18.492800 20.649059 23.064331
26.714286 12.887365 16.619462 18.752626 18.588008 20.727002 23.094778
26.857143 12.945418 16.684953 18.829787 18.665054 20.871490 23.190555
27.000000 12.980271 16.759670 18.929570 18.740800 20.951728 23.248007
27.142857 13.038811 16.829313 19.017017 18.814412 21.016964 23.330653
27.285714 13.085751 16.900050 19.115914 18.893572 21.114513 23.376058
27.428571 13.142538 16.967616 19.190102 18.968023 21.213551 23.450635
27.571429 13.186014 17.012662 19.280037 19.045058 21.285110 23.540712
27.714286 13.231409 17.075298 19.343551 19.123035 21.333206 23.635967
27.857143 13.272090 17.134585 19.444302 19.201698 21.402519 23.696383
28.000000 13.331798 17.181743 19.539926 19.278942 21.489982 23.776778
28.142857 13.396389 17.230290 19.631714 19.354997 21.583804 23.814725
28.285714 13.455039 17.272990 19.725760 19.424837 21.668852 23.874249
28.428571 13.504724 17.309209 19.803524 19.497302 21.720137 23.992233
28.571429 13.594758 17.348848 19.863027 19.566135 21.807633 24.058417
28.714286 13.642832 17.396154 19.938977 19.639627 21.930402 24.292900
28.857143 13.786914 17.444949 20.016947 19.712942 22.003635 24.349246
29.000000 13.841274 17.491126 20.098644 19.783448 22.047979 24.392649
29.142857 13.923426 17.583772 20.166318 19.852763 22.092887 24.427756
29.285714 13.995817 17.673282 20.228544 19.924361 22.137298 24.473343
29.428571 14.075360 17.732998 20.291768 19.992651 22.195795 24.518652
29.571429 14.122335 17.799653 20.350447 20.065197 22.268330 24.553955
29.714286 14.191701 17.862958 20.398635 20.136913 22.309936 24.595363
29.857143 14.267114 17.933427 20.478985 20.206456 22.366582 24.630575
30.000000 14.357476 17.978022 20.532196 20.276763 22.417322 24.663608
30.142857 14.428189 18.127392 20.607383 20.348197 22.465915 24.704961
30.285714 14.494459 18.204281 20.700160 20.417537 22.506044 24.763337
30.428571 14.551501 18.269428 20.774962 20.490891 22.565591 24.798767
30.571429 14.626193 18.375141 20.855569 20.556197 22.636399 24.849845
30.714286 14.673053 18.490050 20.911550 20.622857 22.689707 24.928568
30.857143 14.706237 18.560465 21.000959 20.695854 22.741689 24.978081
31.000000 14.753205 18.621248 21.064282 20.767351 22.830368 25.027823
31.142857 14.904069 18.671144 21.152264 20.837919 22.883946 25.064747
31.285714 14.999361 18.713214 21.201303 20.911133 22.952099 25.132223
31.428571 15.047088 18.766190 21.295880 20.979534 23.032302 25.201570
31.571429 15.096910 18.803692 21.369486 21.051677 23.108894 25.250135
31.714286 15.186927 18.928863 21.433072 21.123179 23.189087 25.292262
31.857143 15.217975 19.010030 21.512010 21.197004 23.299079 25.379068
32.000000 15.280097 19.091718 21.568509 21.268105 23.443683 25.475866
32.142857 15.391025 19.178511 21.677734 21.341565 23.515943 25.527150
32.285714 15.428652 19.267557 21.754592 21.411007 23.575709 25.604508
32.428571 15.579708 19.331965 21.828766 21.480775 23.663169 25.715605
32.571429 15.675173 19.400326 21.883866 21.547829 23.762931 25.777463
32.714286 15.718650 19.516741 21.947211 21.616443 23.835076 25.867787
32.857143 15.750331 19.572099 22.035106 21.690019 23.901039 25.991327
33.000000 15.810279 19.641990 22.109482 21.760158 23.989025 26.037945
33.142857 15.864857 19.678852 22.183947 21.827607 24.050266 26.070624
33.285714 15.908413 19.726721 22.260587 21.896809 24.110312 26.102658
33.428571 15.958571 19.823897 22.310400 21.964666 24.180081 26.134119
33.571429 16.051561 19.856074 22.362017 22.036480 24.229427 26.194523
33.714286 16.126535 19.880375 22.420560 22.105827 24.296456 26.315580
33.857143 16.209890 19.945922 22.475565 22.176890 24.388121 26.489117
34.000000 16.290364 20.003814 22.565353 22.248731 24.499064 26.552394
34.142857 16.369660 20.075010 22.631962 22.321304 24.621362 26.623880
34.285714 16.431465 20.142377 22.697697 22.386853 24.693346 26.717797
34.428571 16.473873 20.204020 22.767239 22.458564 24.788162 27.005294
34.571429 16.537482 20.268685 22.830566 22.526722 24.842303 27.080248
34.714286 16.632006 20.323913 22.905137 22.599047 24.917883 27.146308
34.857143 16.696634 20.406428 22.970632 22.667318 25.002184 27.198958
35.000000 16.773424 20.478134 23.016634 22.728789 25.059025 27.240726
35.142857 16.848319 20.523939 23.073450 22.796894 25.121766 27.311040
35.285714 16.898121 20.570529 23.150392 22.862431 25.198992 27.497661
35.428571 16.976457 20.670103 23.228393 22.928090 25.275011 27.595003
35.571429 17.021636 20.746508 23.298878 22.996190 25.345539 27.754905
35.714286 17.080106 20.789855 23.377565 23.063588 25.434880 27.828725
35.857143 17.146813 20.841108 23.444892 23.126816 25.507870 27.891610
36.000000 17.173129 20.916098 23.504455 23.196274 25.584137 27.959196
36.142857 17.220453 21.007129 23.561301 23.262360 25.668410 28.041694
36.285714 17.296450 21.070981 23.619812 23.327158 25.755175 28.104354
36.428571 17.351152 21.122603 23.680585 23.394867 25.804410 28.167342
36.571429 17.394588 21.225381 23.749995 23.464043 25.867515 28.253896
36.714286 17.441062 21.295292 23.805741 23.529706 25.946154 28.345731
36.857143 17.484377 21.361052 23.851896 23.596785 26.040255 28.396362
37.000000 17.537237 21.438529 23.921301 23.661405 26.124171 28.489917
37.142857 17.597384 21.520363 23.991619 23.728192 26.184327 28.542001
37.285714 17.645575 21.612762 24.044534 23.794683 26.271833 28.607232
37.428571 17.684818 21.717485 24.104940 23.862414 26.331112 28.695749
37.571429 17.719840 21.785472 24.150225 23.922211 26.417629 28.736784
37.714286 17.751185 21.911436 24.215767 23.981461 26.459959 28.814780
37.857143 17.871122 21.977441 24.272598 24.043827 26.515423 28.864921
38.000000 17.948979 22.022068 24.321884 24.105562 26.579365 28.905636
38.142857 18.024868 22.106888 24.387377 24.166713 26.659649 29.023767
38.285714 18.117117 22.199113 24.430813 24.224325 26.723006 29.083770
38.428571 18.177040 22.264300 24.490813 24.281606 26.778781 29.238048
38.571429 18.224982 22.331358 24.541041 24.343738 26.829812 29.313138
38.714286 18.328183 22.395031 24.588040 24.403991 26.872256 29.407985
38.857143 18.522134 22.462430 24.629551 24.464545 26.923258 29.462231
39.000000 18.588521 22.538317 24.677178 24.522183 26.957351 29.504529
39.142857 18.635645 22.585832 24.733525 24.580112 27.010021 29.547502
39.285714 18.709572 22.663731 24.772355 24.638894 27.056906 29.610831
39.428571 18.814039 22.734554 24.810586 24.698794 27.123155 29.657072
39.571429 18.878103 22.794489 24.859464 24.758635 27.186990 29.704445
39.714286 18.963946 22.853792 24.906632 24.820493 27.238816 29.764171
39.857143 19.022926 22.924952 24.955452 24.878023 27.286765 29.820654
40.000000 19.071378 22.975995 25.000908 24.936920 27.352728 29.899194
40.142857 19.188096 23.043396 25.035473 24.995273 27.389287 29.950913
40.285714 19.283419 23.095861 25.096743 25.057871 27.440259 30.000681
40.428571 19.346283 23.156516 25.136385 25.116089 27.514124 30.031463
40.571429 19.425853 23.218219 25.172728 25.174364 27.588197 30.066359
40.714286 19.543596 23.262883 25.216054 25.231632 27.613544 30.154596
40.857143 19.622020 23.335322 25.255872 25.288750 27.662455 30.209276
41.000000 19.676869 23.388078 25.307890 25.350139 27.726794 30.280509
41.142857 19.732347 23.437662 25.347425 25.410088 27.771901 30.353812
41.285714 19.826449 23.483764 25.381227 25.467603 27.817821 30.429704
41.428571 19.892357 23.513451 25.425569 25.522226 27.868237 30.490770
41.571429 19.952550 23.568899 25.472454 25.579242 27.930486 30.543118
41.714286 20.012122 23.615283 25.507820 25.635505 27.983268 30.601441
41.857143 20.074497 23.672182 25.568647 25.694253 28.021232 30.661483
42.000000 20.176297 23.753647 25.623696 25.749416 28.061302 30.712338
42.142857 20.211047 23.828279 25.658212 25.804114 28.096870 30.754790
42.285714 20.306680 23.862074 25.704347 25.861897 28.144229 30.803328
42.428571 20.489731 23.929870 25.759908 25.922545 28.221279 30.848184
42.571429 20.601385 23.989205 25.813146 25.980025 28.279024 30.905194
42.714286 20.699156 24.038199 25.851423 26.037555 28.343794 30.947343
42.857143 20.797825 24.095546 25.899197 26.095396 28.402952 30.998312
43.000000 20.930581 24.168072 25.948204 26.154798 28.453736 31.055375
43.142857 20.984242 24.210656 26.008042 26.210760 28.527594 31.098989
43.285714 21.052578 24.267422 26.072787 26.268300 28.583198 31.158269
43.428571 21.172301 24.328897 26.139541 26.329010 28.650194 31.189033
43.571429 21.235211 24.384593 26.186716 26.388124 28.700481 31.222961
43.714286 21.331724 24.447666 26.243149 26.447393 28.742969 31.319013
43.857143 21.378533 24.496079 26.285774 26.505528 28.781602 31.409902
44.000000 21.486052 24.551081 26.344509 26.564518 28.807194 31.482580
44.142857 21.580423 24.598005 26.400985 26.622217 28.854296 31.517779
44.285714 21.683029 24.649786 26.483320 26.681909 28.971748 31.594544
44.428571 21.748336 24.718216 26.563801 26.739399 29.061061 31.642629
44.571429 21.810910 24.775101 26.608532 26.796176 29.117832 31.725771
44.714286 21.890127 24.824079 26.672743 26.853405 29.163911 31.794164
44.857143 21.984255 24.852393 26.744515 26.909650 29.206045 31.835256
45.000000 22.040253 24.893497 26.804885 26.966345 29.259068 31.875232
45.142857 22.098499 24.949025 26.863157 27.026611 29.352156 31.973956
45.285714 22.175661 24.996380 26.938332 27.085488 29.422641 32.098742
45.428571 22.246623 25.044308 26.994512 27.142753 29.486553 32.171100
45.571429 22.384249 25.100380 27.050913 27.201967 29.547317 32.221403
45.714286 22.446496 25.179891 27.104291 27.257020 29.627417 32.274643
45.857143 22.492301 25.240789 27.163884 27.312512 29.692841 32.318195
46.000000 22.546618 25.288565 27.221015 27.369071 29.739449 32.364800
46.142857 22.639493 25.343458 27.259100 27.425474 29.804068 32.422053
46.285714 22.702133 25.389793 27.331105 27.483442 29.850200 32.537030
46.428571 22.842990 25.427837 27.386569 27.542791 29.891795 32.596770
46.571429 22.932338 25.460194 27.455398 27.602857 29.938190 32.773616
