depth(m) lower_95(kyr) lower_68(kyr) median(kyr) mean(kyr) upper_68(kyr) upper_95(kyr)
40.870000 1496.195025 1502.414793 1506.461129 1506.115015 1509.340883 1515.585840
40.920000 1506.263858 1509.599267 1512.324369 1512.647111 1515.826386 1521.041687
40.970000 1512.328048 1515.355390 1518.822885 1518.828249 1522.488613 1525.334583
41.020000 1517.416807 1521.414837 1524.972052 1524.527841 1527.668006 1529.555632
41.070000 1525.560094 1528.348045 1530.497420 1530.383058 1532.579213 1534.600276
41.120000 1529.889891 1531.738793 1533.588541 1533.581875 1535.231660 1538.054058
41.170000 1532.986115 1534.584469 1536.088540 1536.290800 1537.967963 1541.181785
41.220000 1535.999424 1537.561764 1538.910594 1539.099327 1540.406100 1543.796037
41.270000 1539.046164 1540.593222 1541.919717 1542.202108 1543.672609 1547.515331
41.320000 1542.263477 1543.588825 1545.283830 1545.870708 1547.996412 1553.295638
41.370000 1546.154987 1547.854974 1550.980833 1551.440544 1555.292738 1559.226030
41.420000 1550.544432 1553.921482 1557.869833 1557.607386 1561.017721 1564.242429
41.470000 1556.926026 1561.225374 1564.255305 1563.975321 1566.752504 1569.078982
41.520000 1568.571623 1570.814114 1572.594647 1572.739961 1574.900214 1577.889866
41.570000 1573.743164 1575.645981 1577.683110 1577.801334 1580.009103 1582.489475
41.620000 1579.159779 1581.580763 1583.835081 1584.350871 1586.507059 1594.254519
41.670000 1584.523082 1586.835718 1589.559926 1590.602203 1594.952799 1601.930749
41.720000 1588.093591 1590.811843 1595.190485 1595.711088 1599.596187 1608.431106
41.770000 1591.550508 1596.389126 1599.748474 1600.604661 1603.432462 1619.372191
41.820000 1596.650865 1601.094020 1603.746447 1605.335127 1607.209255 1624.959388
41.870000 1600.824429 1604.572592 1607.667776 1610.524864 1620.800363 1629.012443
41.920000 1604.707600 1607.897515 1618.699308 1617.654426 1627.863433 1632.382785
41.970000 1609.494873 1617.082702 1626.679838 1624.946681 1631.916261 1634.977431
42.020000 1619.346094 1627.467261 1632.796496 1631.512014 1635.431865 1637.734619
42.070000 1625.117918 1633.519664 1636.259486 1635.715060 1638.614440 1640.342853
42.170000 1637.773242 1640.471817 1642.309023 1642.262107 1644.298918 1646.534148
42.220000 1641.868164 1643.736203 1645.493981 1645.528035 1647.340004 1649.544985
42.270000 1644.394452 1646.236123 1648.006247 1648.181908 1650.065976 1652.494765
42.320000 1646.742033 1648.679862 1650.574867 1650.685618 1652.702154 1655.208897
42.370000 1649.295684 1651.222419 1653.042682 1653.151792 1655.031007 1657.770105
42.420000 1652.211549 1653.693995 1655.549510 1655.636810 1657.447921 1659.981628
42.470000 1654.568782 1656.259723 1658.097564 1658.212671 1660.126983 1662.731035
42.520000 1657.153765 1658.910056 1660.904925 1661.102859 1663.116118 1667.170381
42.620000 1661.449793 1663.532853 1666.257237 1667.539632 1670.173875 1685.105002
42.670000 1663.804663 1666.057269 1669.210843 1671.143357 1675.838768 1692.593477
42.745000 1667.261925 1670.099720 1675.066716 1677.397216 1685.024299 1697.140399
42.820000 1670.617997 1674.463475 1682.677250 1683.920880 1693.584512 1702.589667
42.895000 1675.441513 1681.097013 1689.430228 1689.703907 1697.662673 1707.336988
42.970000 1680.958104 1688.503499 1694.671534 1695.223576 1701.423661 1712.039222
43.020000 1686.492691 1692.828139 1697.552204 1698.513453 1704.078070 1715.347325
43.070000 1691.660128 1696.461628 1700.568615 1701.698307 1706.844713 1718.866758
43.120000 1695.380070 1699.338731 1703.478579 1704.681424 1709.507908 1721.603359
43.170000 1698.482938 1702.184582 1706.247595 1707.573254 1712.388906 1724.991348
43.220000 1701.564346 1704.945304 1708.907111 1710.277934 1715.407011 1727.123678
43.320000 1706.744645 1710.400357 1713.798302 1715.673365 1722.958637 1732.180311
43.370000 1710.191269 1713.401722 1716.867388 1718.772214 1725.941053 1735.324804
43.420000 1713.326253 1716.375821 1719.956095 1721.913278 1729.791685 1737.788850
43.520000 1718.478571 1721.446969 1725.807226 1727.800637 1736.291741 1742.228954
43.570000 1720.772542 1724.097245 1729.287296 1730.981937 1739.812685 1744.888967
43.670000 1725.506395 1729.297623 1736.199190 1737.207948 1745.931093 1749.930476
43.720000 1727.938989 1731.903740 1740.234250 1740.259252 1748.651063 1752.323893
43.770000 1730.455597 1735.078546 1744.010641 1743.465004 1751.455389 1755.250633
43.870000 1736.254310 1741.965741 1751.118231 1749.798754 1756.029392 1759.564554
43.920000 1740.209856 1747.463960 1754.254670 1753.292973 1758.563497 1762.096698
43.970000 1744.056675 1752.604289 1757.549869 1756.949006 1761.533498 1765.089787
44.020000 1749.389386 1756.461732 1760.496293 1760.386888 1764.603443 1768.350200
44.070000 1754.175751 1759.986723 1763.898384 1763.793004 1767.661444 1771.554994
44.120000 1758.893087 1763.132272 1767.003577 1766.914899 1770.672241 1775.539667
44.170000 1761.749312 1765.866599 1769.833978 1769.873773 1773.545678 1778.690211
44.220000 1764.135569 1768.358900 1772.535075 1772.867425 1776.741574 1783.455964
44.270000 1766.399112 1771.108281 1775.467165 1776.121621 1780.823991 1791.000070
44.320000 1769.395276 1773.677941 1777.906406 1779.363091 1783.450127 1803.107330
44.370000 1771.784393 1776.083273 1780.327780 1782.824251 1788.692580 1807.249600
44.420000 1774.651945 1778.692897 1782.898304 1786.769214 1802.760594 1810.841565
44.470000 1777.524114 1781.237824 1785.738526 1790.598659 1806.538895 1813.776118
44.520000 1780.228941 1784.021794 1789.612818 1794.642321 1810.184872 1816.271973
44.570000 1783.052053 1787.327524 1797.646260 1799.199736 1813.488816 1818.971991
44.620000 1785.460038 1790.850218 1803.282657 1804.019075 1816.669268 1821.530423
44.670000 1788.563468 1797.389434 1808.549524 1808.447621 1819.470555 1823.899261
44.720000 1792.542573 1802.721480 1814.809462 1812.977519 1822.873184 1826.215859
44.770000 1799.607332 1807.674673 1819.383621 1817.274198 1825.578333 1828.540527
44.845000 1806.007358 1815.294452 1825.594878 1823.352031 1829.927820 1832.309955
44.920000 1814.387681 1824.597846 1831.168327 1829.357254 1833.690213 1835.501944
44.970000 1819.363110 1829.917980 1834.228703 1832.875034 1836.102591 1837.598223
45.020000 1827.063212 1833.794094 1836.614917 1835.859558 1838.121083 1839.353950
45.070000 1834.785740 1837.513463 1838.973099 1838.757060 1840.136173 1841.118447
45.120000 1839.575706 1840.405523 1841.271572 1841.291395 1842.183957 1843.000294
45.170000 1841.685165 1842.778732 1843.864698 1844.131433 1845.383654 1848.175853
45.220000 1843.839691 1845.231759 1847.501017 1848.117802 1851.122370 1855.820148
45.270000 1846.069260 1848.180361 1852.432658 1852.626156 1857.257858 1860.112029
45.320000 1849.694283 1853.908680 1858.984068 1857.943356 1861.133929 1862.439634
45.370000 1861.247586 1862.106100 1863.068655 1863.045880 1863.937068 1864.811549
45.420000 1863.914605 1865.347093 1867.120080 1867.772167 1870.095783 1874.936309
45.470000 1866.878651 1869.389229 1872.434939 1872.918895 1876.688517 1881.093609
45.570000 1873.004116 1877.860934 1882.123996 1881.702464 1885.187880 1887.866560
45.620000 1875.945270 1881.760699 1885.338386 1884.987492 1888.065335 1890.902315
45.670000 1879.829462 1884.739753 1888.162467 1887.813086 1890.823000 1893.457071
45.720000 1883.921533 1887.600024 1890.940494 1890.757040 1893.603524 1896.664514
45.770000 1888.123746 1891.317855 1894.424863 1894.542515 1897.591815 1902.188158
45.820000 1894.374379 1897.572968 1901.217732 1901.782434 1906.430354 1910.775933
45.857000 1897.179156 1900.765720 1906.019207 1905.847255 1910.557039 1914.378561
45.870000 1898.042852 1901.798317 1907.089682 1906.959091 1911.697280 1915.360678
45.920000 1902.935622 1908.504351 1912.838856 1912.653052 1916.821955 1921.208857
45.970000 1908.238245 1913.259157 1917.057469 1917.083533 1921.443888 1924.762187
46.020000 1913.210103 1917.174625 1921.141184 1921.173256 1925.283740 1929.176830
46.070000 1916.409916 1920.647875 1924.682744 1924.616920 1928.893582 1932.529750
46.120000 1919.278911 1923.749299 1927.916659 1927.825119 1932.026830 1935.273463
46.220000 1925.807633 1929.803715 1933.657351 1933.465284 1937.198621 1939.854064
46.270000 1928.503991 1932.781409 1936.466694 1936.170662 1939.640969 1941.910790
46.320000 1931.139595 1935.612004 1939.281676 1938.734088 1941.891840 1943.809833
46.370000 1934.481727 1938.175825 1941.736029 1941.227236 1944.079645 1945.804282
46.420000 1937.474034 1941.229258 1944.088111 1943.699895 1946.071705 1947.660332
46.470000 1941.339775 1944.214368 1946.364601 1946.124223 1948.128034 1949.532222
46.520000 1943.905850 1946.669694 1948.429178 1948.265635 1949.932450 1951.327483
46.570000 1946.665045 1948.710854 1950.230796 1950.150128 1951.640992 1952.914791
46.620000 1948.889244 1950.558048 1951.875018 1951.841815 1953.228267 1954.445178
46.670000 1950.709391 1952.309842 1953.545730 1953.476972 1954.732518 1955.765690
46.720000 1952.659949 1953.928829 1955.084471 1955.046339 1956.107777 1957.281114
46.770000 1954.903375 1955.838008 1956.736906 1956.726859 1957.633407 1958.500866
46.820000 1956.525478 1957.801404 1958.912600 1959.159220 1960.451238 1963.995904
46.870000 1958.402739 1959.960167 1961.549809 1962.049461 1964.480766 1967.152453
46.920000 1960.661751 1962.372215 1965.106214 1965.247076 1968.187080 1970.326905
46.990000 1963.598015 1966.032040 1969.191575 1968.911318 1971.547321 1973.579141
47.040000 1965.985167 1968.771495 1971.502190 1971.192756 1973.523501 1975.283014
47.090000 1968.947924 1971.363687 1973.594226 1973.415412 1975.458364 1976.872019
47.140000 1971.285368 1973.551280 1975.495175 1975.439247 1977.330894 1979.194591
47.190000 1973.074627 1975.336151 1977.154047 1977.149599 1979.052928 1980.841320
47.240000 1974.917367 1976.948870 1978.777042 1978.732573 1980.445430 1982.342596
47.290000 1976.514632 1978.571405 1980.242025 1980.259213 1982.024051 1983.617268
47.340000 1978.240533 1980.098687 1981.786848 1981.774106 1983.522212 1985.085807
47.390000 1979.764619 1981.544866 1983.321288 1983.298207 1985.051613 1986.762718
47.440000 1981.290395 1983.140605 1984.795532 1984.823104 1986.489991 1988.401006
47.490000 1983.075798 1984.765706 1986.423438 1986.416220 1988.077739 1989.838591
47.540000 1984.757939 1986.405808 1988.094087 1988.106118 1989.787377 1991.368429
47.590000 1986.421215 1988.060577 1989.796899 1989.787687 1991.438010 1993.524606
47.640000 1988.129213 1989.764353 1991.495348 1991.520603 1993.204293 1995.365728
47.690000 1989.780405 1991.418424 1993.260264 1993.387534 1995.307538 1997.841512
47.740000 1991.571835 1993.277143 1995.229691 1995.529112 1997.767840 2000.833987
47.790000 1993.349112 1995.138840 1997.429389 1997.721402 2000.446356 2003.287353
47.840000 1995.066248 1997.153570 1999.740411 1999.890157 2002.823205 2005.139491
47.890000 1996.867163 1999.226262 2002.192331 2002.119870 2005.095881 2007.375063
47.940000 1998.822131 2001.461430 2004.461464 2004.303941 2007.183165 2009.130902
47.990000 2001.220534 2003.890162 2006.699673 2006.577024 2009.106215 2011.236302
48.040000 2003.550781 2006.322732 2009.021630 2008.915215 2011.254813 2014.313521
48.090000 2005.774247 2008.504407 2011.190605 2011.390149 2014.273172 2018.450148
48.140000 2007.904399 2010.607321 2013.256611 2014.078965 2017.738984 2025.009880
48.190000 2009.757556 2012.774458 2015.430241 2017.902371 2025.430518 2032.452086
48.240000 2011.307603 2014.525364 2017.244969 2021.322033 2033.651302 2038.531771
48.290000 2013.228949 2016.336212 2019.211437 2024.260339 2037.431669 2042.347346
48.340000 2015.057167 2018.419653 2021.799755 2027.060658 2040.453756 2045.986683
48.465000 2021.287312 2025.815301 2034.186315 2036.021652 2047.452936 2053.617952
48.590000 2032.935668 2037.863557 2044.790058 2045.573012 2055.180486 2059.018100
48.640000 2036.402910 2041.414636 2047.687025 2048.747741 2057.581011 2060.861498
48.690000 2039.241585 2044.686693 2051.573351 2051.903103 2059.951076 2062.916617
48.740000 2042.391507 2048.025131 2055.600564 2054.977096 2062.104979 2064.810867
48.840000 2049.313234 2055.820724 2063.069205 2061.932517 2066.965466 2070.222700
48.940000 2060.924613 2065.321438 2068.555144 2068.358357 2071.580258 2074.695555
49.015000 2064.861452 2068.860530 2071.988992 2071.807813 2074.735680 2077.491808
49.090000 2069.014460 2072.274152 2075.219373 2075.039622 2077.789858 2080.116141
49.140000 2071.657539 2074.350254 2077.302021 2077.119376 2079.734098 2081.938244
49.190000 2073.965235 2076.756747 2079.297678 2079.193348 2081.706462 2083.993371
49.240000 2076.238069 2078.714919 2081.177603 2081.106064 2083.529406 2085.767332
49.340000 2080.153475 2082.322954 2084.674270 2084.710158 2086.974035 2089.314540
49.390000 2082.020901 2084.285334 2086.570570 2086.651358 2088.957886 2091.371660
49.440000 2084.123988 2086.530747 2088.790233 2088.944600 2091.299445 2094.803524
49.490000 2086.366114 2088.748667 2091.113299 2091.391966 2093.752443 2099.069821
49.540000 2088.480304 2090.918404 2093.574098 2094.010721 2096.840902 2103.031619
