depth(m) lower_95(kyr) lower_68(kyr) median(kyr) mean(kyr) upper_68(kyr) upper_95(kyr)
117.310000 1552.656873 1556.672284 1559.830421 1559.563876 1562.577473 1564.299623
117.390000 1555.515346 1558.607154 1561.492318 1561.208591 1563.858312 1565.359659
117.490000 1557.712699 1560.654381 1563.327514 1563.080483 1565.490400 1566.771540
117.610000 1560.351554 1563.247168 1565.642822 1565.268947 1567.300850 1568.323751
117.700000 1562.840735 1565.546110 1567.412054 1567.151917 1568.697437 1569.787492
117.790000 1566.531609 1568.370814 1569.644713 1569.543618 1570.666809 1572.208998
117.910000 1569.553512 1570.875934 1572.082668 1572.252118 1573.681247 1575.982972
117.990000 1571.166830 1572.316013 1573.642508 1573.920135 1575.665294 1577.771175
118.090000 1573.203008 1574.347086 1575.921414 1576.027616 1577.637799 1579.489673
118.220000 1575.579526 1577.141721 1579.045563 1578.902288 1580.624457 1581.899422
118.300000 1577.737990 1579.237245 1581.093308 1580.908608 1582.487510 1583.509573
118.390000 1579.597175 1581.389203 1582.770873 1582.679923 1584.010788 1585.134506
118.510000 1581.857434 1583.449768 1584.616868 1584.545141 1585.689621 1586.614449
118.590000 1583.530541 1584.668840 1585.700909 1585.670407 1586.712500 1587.714465
118.660000 1584.700105 1585.638372 1586.664593 1586.650497 1587.626805 1588.630312
118.735000 1585.685457 1586.656392 1587.639686 1587.635546 1588.643880 1589.552298
118.810000 1586.724320 1587.685747 1588.609693 1588.623452 1589.644827 1590.527985
118.890000 1587.604730 1588.741347 1589.677553 1589.678953 1590.620050 1591.638919
118.990000 1589.005726 1590.027285 1590.981569 1590.971251 1591.920884 1592.977694
119.110000 1590.596427 1591.605842 1592.536624 1592.544284 1593.484109 1594.485668
119.200000 1591.747748 1592.824136 1593.717755 1593.732949 1594.650706 1595.627121
119.290000 1592.863944 1593.980309 1594.912935 1594.957671 1595.917776 1597.103759
119.410000 1594.401091 1595.480695 1596.528163 1596.565452 1597.611661 1598.778127
119.490000 1595.433179 1596.530335 1597.596459 1597.679109 1598.782410 1600.259596
119.590000 1597.018650 1598.029078 1599.199543 1599.292689 1600.430704 1602.166638
119.710000 1598.881593 1599.995940 1601.345686 1601.506938 1602.971350 1604.714886
119.800000 1600.652786 1601.866981 1603.401200 1603.551984 1605.171978 1607.092738
119.890000 1602.479027 1604.125585 1605.940873 1606.017692 1607.882788 1609.783425
120.010000 1608.212011 1610.415174 1612.532051 1612.860085 1615.404541 1618.989830
120.110000 1611.127213 1613.367455 1616.365997 1616.769882 1620.145384 1624.377281
120.210000 1613.942184 1616.601324 1619.799678 1620.360396 1624.390290 1629.031414
120.310000 1617.401155 1619.711182 1623.330893 1623.813125 1628.469381 1632.021740
120.410000 1619.667202 1623.051519 1627.202181 1627.363100 1631.733371 1634.979190
120.510000 1622.496788 1627.125045 1631.196255 1630.930145 1634.853558 1637.972918
120.610000 1626.698331 1631.238834 1634.730568 1634.387728 1637.675716 1639.966996
120.700000 1629.120833 1634.542089 1637.616957 1637.278097 1640.212562 1642.506270
120.790000 1633.239944 1637.682046 1640.418961 1640.039583 1642.506073 1644.775134
120.910000 1639.400710 1641.806065 1643.969768 1643.873604 1646.095052 1648.030132
120.990000 1642.047526 1643.986941 1646.098635 1646.106960 1648.300890 1650.181265
121.090000 1644.486418 1646.444017 1648.470283 1648.441320 1650.475759 1652.068996
121.210000 1647.382478 1649.240681 1651.184621 1651.073736 1652.850264 1654.323980
121.300000 1649.307696 1651.106101 1652.959879 1652.830162 1654.514918 1655.829150
121.390000 1651.160992 1652.829368 1654.476322 1654.351733 1655.833146 1657.188187
121.510000 1653.189574 1654.735735 1656.389518 1656.259746 1657.709258 1658.784564
121.590000 1654.588437 1656.107610 1657.624450 1657.580210 1658.983179 1660.327427
121.660000 1655.915764 1657.299362 1658.812834 1658.815347 1660.263588 1661.588177
121.735000 1657.317063 1658.675193 1660.188450 1660.202244 1661.637984 1663.267474
121.810000 1658.620082 1659.982262 1661.472162 1661.540660 1663.020072 1664.881513
121.890000 1659.797537 1661.205990 1662.738380 1662.835826 1664.467959 1666.415221
121.990000 1661.024274 1662.522494 1664.107813 1664.262691 1666.091684 1668.009498
122.110000 1662.558076 1664.163214 1665.779991 1665.957088 1667.820969 1670.093089
122.200000 1663.760993 1665.402423 1667.143777 1667.343460 1669.309430 1671.952940
122.290000 1665.044605 1666.748808 1668.583518 1668.832554 1670.980170 1673.965415
122.390000 1666.439529 1668.318540 1670.422108 1670.738712 1673.121261 1676.647146
122.490000 1667.856730 1669.923044 1672.279147 1672.672779 1675.420550 1679.695848
122.586500 1669.279670 1671.546311 1674.239687 1674.623763 1677.727929 1681.887973
122.683000 1670.728257 1673.227970 1676.349770 1676.657442 1679.969971 1684.499628
122.710000 1671.269972 1673.706542 1676.919090 1677.237835 1680.644736 1685.183228
122.800000 1672.777676 1675.406182 1678.977329 1679.165642 1682.757611 1687.424824
122.890000 1674.604515 1677.460540 1681.241988 1681.234318 1684.861753 1688.845746
123.010000 1676.938055 1680.115014 1683.907731 1683.869622 1687.559610 1691.127835
123.090000 1678.597933 1682.274597 1685.884211 1685.812032 1689.415260 1692.695049
123.160000 1680.155302 1684.004579 1687.595173 1687.640104 1691.243514 1694.637274
123.235000 1682.447861 1686.102039 1689.761153 1689.714986 1693.261426 1696.301164
123.310000 1685.057915 1688.352329 1691.990833 1691.881357 1695.208824 1698.438049
123.400000 1688.453238 1692.129615 1695.273504 1695.118534 1698.086846 1700.900949
123.490000 1692.575299 1695.547702 1697.997348 1698.066018 1700.641623 1703.255245
123.610000 1694.829266 1697.800390 1700.388063 1700.374083 1703.010061 1706.392387
123.700000 1696.147855 1699.133261 1702.005145 1701.956116 1704.754734 1707.910063
123.790000 1697.377673 1700.391433 1703.551810 1703.461797 1706.111523 1709.930899
123.910000 1699.066073 1702.367157 1705.409332 1705.389665 1707.936342 1712.716892
123.990000 1700.505268 1703.709313 1706.691348 1706.681767 1709.283811 1714.196047
124.090000 1702.082457 1705.534897 1708.333892 1708.309316 1710.686170 1716.064337
124.210000 1704.062725 1707.600530 1710.223970 1710.214815 1712.499760 1717.943191
124.300000 1706.217970 1709.153901 1711.623859 1711.701127 1713.887362 1719.323250
124.405000 1708.456294 1710.958112 1713.205887 1713.438448 1715.500303 1721.550204
124.510000 1710.610182 1712.747468 1714.847357 1715.214835 1717.281774 1723.998109
124.590000 1712.004226 1714.077449 1716.087510 1716.541253 1718.648324 1725.370934
124.660000 1712.987408 1715.207607 1717.181795 1717.674987 1719.766331 1726.885854
124.735000 1714.174572 1716.197222 1718.270457 1718.849941 1721.028544 1728.502887
124.810000 1715.360130 1717.270713 1719.363750 1720.074368 1722.552251 1729.882930
124.890000 1716.586016 1718.434825 1720.483391 1721.399503 1724.184147 1732.342667
124.990000 1717.943447 1719.810597 1721.995592 1723.179613 1726.748523 1734.584656
125.110000 1719.560368 1721.476316 1723.932362 1725.366169 1730.289001 1737.222910
125.200000 1720.796901 1722.890651 1725.543778 1727.145651 1732.432238 1739.471365
