depth(m) lower_95(kyr) lower_68(kyr) median(kyr) mean(kyr) upper_68(kyr) upper_95(kyr)
68.140000 1480.898578 1483.749704 1487.678527 1493.753813 1514.179657 1524.649027
68.225000 1481.787218 1484.607834 1488.443577 1494.568855 1515.579292 1525.431365
68.310000 1482.672725 1485.473596 1489.066473 1495.356680 1516.545124 1525.944375
68.450000 1483.908874 1486.855062 1490.322753 1496.650853 1519.103226 1526.714760
68.525000 1484.547170 1487.535930 1490.957275 1497.349371 1520.290835 1527.214257
68.600000 1485.257489 1488.222964 1491.554339 1498.060255 1521.129270 1527.740684
68.685000 1486.039214 1488.955900 1492.327089 1498.868906 1522.000299 1528.253709
68.770000 1486.886958 1489.683168 1493.006951 1499.678981 1522.859525 1528.816429
68.904286 1487.864555 1490.618546 1493.896662 1501.044049 1524.426993 1529.583089
69.038571 1489.082047 1491.608859 1494.851975 1502.479321 1525.590683 1530.309018
69.172857 1490.575155 1492.618473 1495.659839 1503.956564 1526.865769 1531.163878
69.307143 1491.737698 1493.587105 1496.539325 1505.414832 1528.159035 1531.940417
69.441429 1492.775915 1494.686557 1497.402122 1506.883554 1529.468990 1532.814685
69.575714 1493.980659 1495.660656 1498.203183 1508.394294 1530.636328 1533.699027
69.710000 1494.893627 1496.655039 1499.053379 1509.812326 1531.886564 1534.458068
69.810000 1495.658200 1497.370489 1499.718930 1510.662983 1532.858690 1535.134078
69.950000 1496.563916 1498.374814 1500.561227 1511.855840 1534.466624 1536.406787
70.056667 1497.307370 1499.136314 1501.195005 1512.641883 1535.376850 1537.463581
70.163333 1498.156688 1499.862877 1501.919955 1513.457525 1536.356666 1538.463750
70.270000 1498.934077 1500.564843 1502.663297 1514.239389 1537.183383 1539.418180
70.370000 1499.683272 1501.167033 1503.297818 1514.973365 1538.020177 1540.121066
70.492500 1500.523179 1501.977157 1504.084122 1515.866337 1539.031404 1540.958758
70.615000 1501.201399 1502.726227 1504.961856 1516.740763 1540.017059 1541.960710
70.737500 1502.036980 1503.490423 1505.886543 1517.648485 1541.092877 1543.149916
70.860000 1502.828929 1504.312091 1506.630491 1518.572707 1542.096022 1544.129219
70.985000 1503.577680 1505.205309 1507.642751 1519.559962 1543.128994 1545.449163
71.110000 1504.346416 1506.035975 1508.605972 1520.530194 1544.039594 1546.547769
71.216667 1505.098631 1506.801427 1509.564666 1521.547218 1544.956311 1548.101599
71.323333 1505.893176 1507.589317 1510.677662 1522.536121 1545.876145 1549.327349
71.430000 1506.563715 1508.373125 1511.939559 1523.576853 1546.888747 1550.594550
71.573333 1507.317940 1509.360389 1514.193523 1525.119827 1548.512920 1552.631414
71.716667 1508.225148 1510.311215 1516.524904 1526.667856 1550.071136 1554.242682
71.860000 1509.279626 1511.420068 1519.113656 1528.225367 1551.778279 1556.208993
71.985000 1510.538436 1512.594784 1521.109963 1529.642211 1553.453391 1557.860404
72.110000 1511.663490 1514.089216 1523.081794 1531.152730 1555.101115 1559.362345
72.245000 1513.023844 1516.216863 1524.740727 1533.154727 1557.409645 1562.175314
72.380000 1514.493281 1518.610880 1526.254132 1535.071739 1559.477314 1564.352806
72.515000 1516.501199 1520.917130 1527.781681 1537.073437 1561.316660 1565.921584
72.650000 1519.121879 1523.122048 1529.564819 1539.021376 1563.394549 1567.739735
72.785000 1521.471323 1525.706776 1531.258583 1540.981839 1565.585208 1568.986214
72.920000 1524.216238 1527.736671 1532.632583 1542.854306 1567.473600 1570.139654
73.046667 1526.346168 1529.700271 1535.297632 1544.440924 1568.566402 1571.273372
73.173333 1528.156456 1531.357094 1538.001554 1545.949363 1569.342686 1572.392071
73.300000 1529.790627 1532.978636 1540.718028 1547.409300 1570.131812 1573.273093
73.443000 1531.773870 1534.948849 1542.427703 1549.109979 1570.959743 1574.540049
73.586000 1533.680479 1536.970835 1544.830476 1550.814397 1571.673218 1575.602678
73.729000 1535.348834 1539.118930 1546.864946 1552.487207 1572.407414 1576.786751
73.872000 1537.055806 1541.414947 1548.884199 1554.131567 1573.035662 1577.639274
74.015000 1539.076001 1543.438631 1551.125854 1555.770159 1573.583794 1578.572967
74.158000 1540.894363 1545.819232 1552.908817 1557.336649 1574.281128 1579.533894
74.301000 1542.818199 1547.851514 1555.046417 1559.021861 1574.911067 1580.491427
74.444000 1545.739220 1549.946673 1557.224119 1560.657021 1575.512435 1581.396168
74.587000 1547.826679 1552.400470 1559.177160 1562.328647 1576.080136 1582.177960
74.730000 1549.885864 1554.497852 1561.305196 1563.914230 1576.714412 1582.846579
74.873000 1552.088136 1556.825127 1563.494030 1565.601170 1577.250140 1583.868094
75.016000 1554.579688 1558.877651 1565.528915 1567.250906 1577.851359 1584.897139
75.159000 1556.893928 1561.059208 1567.338025 1568.880738 1578.471543 1585.806987
75.302000 1558.724863 1563.300013 1569.020263 1570.454975 1579.115001 1586.657902
75.445000 1560.668212 1565.519941 1571.013003 1572.088239 1579.709273 1587.485883
75.588000 1562.729218 1567.965228 1572.795758 1573.732512 1580.372954 1588.380770
75.731000 1565.315509 1570.249718 1574.565678 1575.417463 1581.068465 1589.320476
75.874000 1568.170312 1572.466942 1576.376041 1577.110412 1581.822339 1590.048001
76.017000 1570.446196 1574.794303 1578.255643 1578.778442 1582.411957 1591.157529
76.160000 1572.788263 1577.170596 1580.025010 1580.446113 1583.251736 1591.749566
76.235000 1573.670556 1578.044174 1580.825516 1581.277337 1583.854731 1592.298099
76.310000 1574.857801 1579.111811 1581.728363 1582.131390 1584.520487 1592.944369
76.420000 1577.183631 1580.423966 1582.811922 1583.344714 1585.817165 1593.890562
76.530000 1579.310539 1581.687346 1583.957047 1584.610090 1587.421408 1594.709053
76.620000 1580.246487 1582.743812 1584.931582 1585.658567 1589.007495 1595.276530
76.710000 1581.457484 1583.782271 1586.050075 1586.800217 1590.823614 1595.813890
76.847500 1583.283543 1585.551500 1588.150534 1588.795581 1592.963579 1596.660740
76.985000 1584.705304 1587.468668 1590.867738 1590.917384 1594.826779 1597.690705
77.122500 1586.325985 1589.797347 1593.291205 1593.059491 1596.404484 1598.740448
77.260000 1588.418033 1592.482927 1595.759063 1595.225033 1598.015457 1599.693816
77.380000 1589.854349 1594.973578 1597.572363 1597.027441 1599.395527 1600.700251
77.500000 1591.835559 1597.159949 1599.132871 1598.662216 1600.667384 1601.885278
77.585000 1593.494441 1598.354070 1600.093258 1599.660994 1601.482573 1602.664904
77.670000 1594.535568 1599.473110 1600.957404 1600.572682 1602.270527 1603.366567
77.750000 1596.801175 1600.225953 1601.685933 1601.321445 1602.924106 1604.023372
77.830000 1597.756851 1600.940567 1602.390197 1602.020024 1603.561871 1604.634639
77.948000 1598.750798 1601.858324 1603.289418 1602.930505 1604.366550 1605.417663
78.066000 1600.000228 1602.740410 1604.163952 1603.820954 1605.210491 1606.180185
78.184000 1601.468713 1603.669993 1604.949275 1604.685397 1606.001549 1607.053691
78.302000 1602.400748 1604.524015 1605.749870 1605.546636 1606.853857 1607.961000
78.420000 1603.522621 1605.524539 1606.606955 1606.423403 1607.665903 1608.649022
78.510000 1604.595314 1606.253747 1607.284311 1607.145633 1608.304652 1609.412698
78.600000 1605.353312 1606.958690 1607.961376 1607.847315 1608.990791 1610.080620
78.710000 1606.256075 1607.791092 1608.828501 1608.738686 1609.869478 1611.244972
78.813333 1607.148987 1608.551114 1609.701341 1609.634066 1610.781797 1612.717069
78.916667 1607.950408 1609.289631 1610.492387 1610.484531 1611.764336 1614.433916
79.020000 1608.643789 1610.047233 1611.276630 1611.357933 1612.787899 1615.862162
79.162500 1609.715324 1611.016912 1612.365034 1612.546702 1614.174398 1617.065440
79.305000 1610.599090 1612.076425 1613.481271 1613.777864 1615.864501 1618.768072
79.447500 1611.680715 1613.126026 1614.605963 1614.997233 1617.410136 1619.900199
79.590000 1612.629482 1614.147832 1615.760469 1616.172413 1618.551030 1621.108795
79.732500 1613.623573 1615.228275 1617.047987 1617.372744 1619.831642 1622.511950
79.875000 1614.572791 1616.306350 1618.316511 1618.606726 1621.228676 1623.583423
80.017500 1615.855497 1617.520405 1619.661214 1619.857023 1622.457840 1624.631498
80.160000 1616.802839 1618.645333 1621.007507 1621.089159 1623.529007 1625.767538
80.296667 1617.762574 1619.754582 1622.171947 1622.242406 1624.789755 1626.819784
80.433333 1618.954146 1620.829450 1623.511598 1623.442024 1625.947864 1628.017320
80.570000 1620.027822 1622.064955 1624.780754 1624.602027 1626.990167 1629.054093
80.690000 1621.086176 1623.203637 1625.898393 1625.720638 1628.025881 1629.969554
80.810000 1622.121187 1624.493434 1627.044375 1626.878471 1629.045130 1630.989839
80.900000 1623.080136 1625.453334 1627.922012 1627.771772 1629.743556 1631.993049
80.990000 1623.870901 1626.384482 1628.872204 1628.650576 1630.444996 1632.696132
81.000000 1623.947117 1626.517352 1628.967327 1628.751634 1630.561497 1632.837100
81.095000 1624.889056 1627.638799 1630.143357 1629.910652 1631.787209 1634.846241
81.190000 1625.723510 1628.889419 1631.245797 1631.049643 1633.067415 1636.003936
81.290000 1626.702846 1629.792093 1632.185547 1632.112974 1634.436545 1637.520448
81.390000 1627.693340 1630.753058 1633.075746 1633.111959 1635.547627 1638.650584
81.475000 1628.623407 1631.569389 1633.937739 1633.993602 1636.641598 1639.376838
81.560000 1629.643407 1632.333341 1634.659890 1634.837641 1637.580221 1640.340201
81.610000 1630.167652 1632.855822 1635.154636 1635.363433 1638.163673 1640.791634
81.730000 1631.922482 1634.213879 1636.427852 1636.616225 1639.275051 1641.911050
81.830000 1633.044014 1635.316816 1637.601882 1637.708907 1640.325594 1642.718918
81.850000 1633.165030 1635.562320 1637.798429 1637.920225 1640.542295 1642.822865
81.930000 1634.225687 1636.406950 1638.651256 1638.730715 1641.323874 1643.578079
82.010000 1635.255410 1637.255361 1639.456451 1639.514484 1641.978544 1644.164636
82.135000 1636.688270 1638.628754 1640.731477 1640.774647 1643.101319 1645.159668
82.260000 1638.342853 1640.047782 1642.012476 1642.084480 1644.127326 1646.350114
82.390000 1639.825160 1641.430472 1643.333532 1643.447542 1645.536221 1647.744322
82.520000 1641.318255 1642.733795 1644.720603 1644.819040 1646.962783 1649.040836
82.615000 1642.249344 1643.764359 1645.696941 1645.853461 1647.952875 1650.324743
82.710000 1643.021378 1644.699883 1646.655186 1646.845834 1649.042968 1651.384110
82.750000 1643.462435 1645.075012 1647.012272 1647.261924 1649.532713 1651.896054
82.875000 1644.512625 1646.153758 1648.142401 1648.391591 1650.731861 1653.018118
83.000000 1645.600354 1647.318078 1649.280830 1649.515299 1651.889733 1654.282549
83.125000 1646.621315 1648.319118 1650.443055 1650.625007 1653.015961 1655.129648
83.250000 1647.503778 1649.350198 1651.459515 1651.686086 1654.052644 1656.474832
83.395000 1648.481963 1650.423339 1652.756033 1652.867720 1655.214765 1657.898990
83.540000 1649.713322 1651.518183 1653.922449 1654.034244 1656.416354 1659.262941
83.640000 1650.580130 1652.308382 1654.738621 1654.856461 1657.268559 1660.260565
83.740000 1651.279700 1653.135887 1655.547340 1655.672547 1658.175682 1661.098442
83.840000 1652.225734 1653.951246 1656.454890 1656.540322 1659.087146 1662.123566
83.980000 1653.348461 1655.196899 1657.559232 1657.736285 1660.276243 1663.553056
84.120000 1654.507110 1656.344692 1658.671215 1658.944561 1661.387027 1665.294110
84.260000 1655.697347 1657.513842 1659.796187 1660.174140 1662.735372 1667.191588
84.400000 1656.816415 1658.688007 1661.060419 1661.488111 1664.076409 1668.736565
84.540000 1658.011673 1659.831671 1662.227542 1662.738793 1665.481268 1670.269081
84.645000 1658.779987 1660.691051 1663.214412 1663.822234 1666.780683 1672.631463
84.750000 1659.801590 1661.647523 1664.193748 1665.009451 1668.335821 1674.239285
84.850000 1660.657294 1662.555475 1665.160373 1666.151918 1670.124259 1675.808771
84.950000 1661.444146 1663.348492 1666.174125 1667.336288 1671.730228 1678.188536
85.050000 1662.289748 1664.182110 1667.201878 1668.609044 1673.682914 1680.945820
85.150000 1662.968097 1664.981523 1668.313190 1669.808048 1675.460338 1683.409791
85.250000 1663.659010 1665.873999 1669.257002 1671.046938 1677.402834 1685.444115
85.350000 1664.668251 1666.696329 1670.186785 1672.314295 1679.426937 1687.059829
85.480000 1665.700893 1667.752240 1671.560421 1674.091329 1682.453229 1689.222879
85.610000 1666.544843 1669.015742 1673.122585 1675.937840 1685.615616 1691.246945
85.640000 1666.824081 1669.402226 1673.550730 1676.297679 1685.875624 1691.563406
85.765000 1668.000275 1670.751377 1676.500267 1678.223311 1687.396168 1693.036368
85.890000 1669.276039 1672.562588 1679.073810 1680.210380 1688.560593 1694.046409
86.015000 1670.186095 1674.222129 1681.901651 1682.166006 1690.437629 1695.143533
86.140000 1671.430722 1676.150568 1684.606948 1684.119695 1691.911126 1696.407681
86.250000 1672.380469 1678.068325 1686.375265 1685.745415 1693.107915 1697.276710
86.395000 1673.859975 1680.554653 1688.577340 1687.879285 1694.499861 1698.355380
86.540000 1675.821258 1683.602095 1690.681385 1689.968488 1696.033744 1699.435335
86.643333 1677.436424 1685.288317 1691.928770 1691.237488 1696.987078 1700.173639
86.746667 1678.662935 1687.127007 1692.961218 1692.427091 1697.823793 1700.973858
86.850000 1680.599548 1688.664039 1693.882721 1693.539209 1698.618933 1701.973884
86.956667 1682.227059 1689.862876 1694.778693 1694.567435 1699.418747 1702.589722
87.063333 1684.261155 1691.274258 1695.673812 1695.584418 1700.338381 1703.549305
87.170000 1685.961555 1692.325928 1696.614061 1696.521766 1700.968655 1704.213103
87.315000 1688.532729 1693.982083 1697.763625 1697.774812 1702.060564 1705.218416
87.460000 1690.844043 1695.310653 1698.900198 1698.973003 1702.987425 1706.374011
87.555000 1692.284853 1696.167574 1699.562607 1699.738096 1703.606765 1707.010003
87.650000 1693.203306 1696.970661 1700.288748 1700.510079 1704.153595 1707.685819
87.750000 1694.094460 1697.731557 1701.108875 1701.274194 1704.886991 1708.346261
87.850000 1694.969045 1698.620012 1701.893805 1702.033712 1705.549057 1709.047743
87.950000 1695.713031 1699.374136 1702.601169 1702.776295 1706.351145 1709.988692
88.050000 1696.434749 1700.200446 1703.347088 1703.494370 1706.971045 1710.723505
88.195000 1697.450473 1701.093217 1704.299747 1704.500959 1707.978553 1711.988831
88.340000 1698.240882 1702.121631 1705.318748 1705.526141 1709.031546 1713.646223
88.440000 1698.981684 1702.858616 1705.966482 1706.284868 1709.811292 1715.084130
88.540000 1699.811575 1703.590806 1706.757535 1707.053943 1710.637463 1716.295790
88.640000 1700.564455 1704.305752 1707.469115 1707.803119 1711.302401 1717.554239
88.743333 1701.336059 1705.068050 1708.244277 1708.589544 1712.241714 1718.655198
88.846667 1702.273325 1705.767699 1708.972880 1709.401075 1713.089358 1720.458360
88.950000 1703.069623 1706.535896 1709.663379 1710.208371 1713.895826 1721.441121
89.045000 1703.615695 1707.233891 1710.379408 1710.992070 1714.704231 1722.298012
89.140000 1704.550604 1707.847610 1711.093041 1711.789484 1715.481310 1723.852487
89.250000 1705.427537 1708.657064 1712.082477 1712.724197 1716.556026 1724.922925
89.375000 1706.270847 1709.545456 1713.277930 1713.881347 1717.918001 1726.115013
89.500000 1707.117960 1710.519557 1714.331355 1715.065141 1719.933889 1727.131807
89.600000 1707.829626 1711.457252 1715.241138 1716.067272 1721.116577 1728.201633
89.700000 1708.718661 1712.285359 1716.212682 1717.082321 1722.395150 1729.306741
89.800000 1709.475091 1713.222505 1717.300165 1718.170497 1723.656146 1730.172938
89.930000 1710.512558 1714.680779 1718.869171 1719.625436 1725.105041 1731.300649
90.060000 1711.883051 1716.107176 1720.445070 1721.150063 1726.754068 1732.558937
90.190000 1712.831551 1717.514090 1722.022694 1722.688627 1728.500239 1734.223022
90.320000 1713.600956 1718.925433 1723.651692 1724.215472 1730.034515 1735.503722
90.450000 1714.968218 1720.396745 1725.391205 1725.763845 1731.750895 1737.052895
90.535000 1715.722375 1721.349690 1726.438796 1726.730840 1732.608112 1737.799261
90.620000 1716.564788 1722.469587 1727.464438 1727.691526 1733.481987 1738.391525
90.750000 1717.949390 1723.914913 1728.976095 1729.125411 1734.822809 1739.467473
90.875000 1719.485872 1725.235055 1730.460140 1730.532821 1736.067072 1740.980094
91.000000 1721.130643 1726.484806 1731.777350 1731.888286 1737.402271 1742.330464
91.116667 1723.137962 1727.675527 1732.989701 1733.190988 1738.753438 1743.222941
91.233333 1724.614447 1728.852729 1734.461705 1734.467736 1739.812136 1744.062395
91.350000 1726.291977 1730.166959 1735.833556 1735.776874 1740.986118 1745.129376
91.450000 1727.582493 1731.534293 1737.285107 1736.983025 1742.049437 1746.227979
91.550000 1728.688143 1732.898755 1738.456370 1738.172297 1742.957088 1747.147903
91.650000 1730.065619 1734.397388 1739.647763 1739.376255 1743.864430 1748.206857
91.783333 1732.026975 1736.369457 1741.240437 1740.996285 1745.046711 1749.150546
91.916667 1734.214161 1738.527904 1742.798247 1742.630681 1746.298460 1750.230717
92.050000 1737.159018 1740.580994 1744.221621 1744.261999 1747.792077 1751.261545
92.150000 1738.505056 1741.933464 1745.433166 1745.470900 1748.761946 1752.132662
92.250000 1740.027849 1743.270276 1746.614620 1746.638191 1749.749479 1752.790820
92.355000 1741.726271 1744.480565 1747.847391 1747.780633 1750.796188 1753.726862
92.460000 1743.040561 1745.758251 1749.004825 1748.917776 1751.786508 1754.731450
92.563333 1744.265015 1746.990599 1750.082481 1750.060341 1752.883207 1755.644047
92.666667 1745.419508 1748.308707 1751.164196 1751.210377 1753.904760 1756.808489
92.770000 1746.696737 1749.624416 1752.190235 1752.390881 1755.015260 1757.723916
92.890000 1748.055099 1751.014481 1753.514047 1753.723775 1756.250800 1759.328321
93.010000 1749.147539 1752.426806 1754.831238 1755.023362 1757.538484 1760.752091
93.123333 1750.394891 1753.559467 1756.027169 1756.235758 1758.772057 1762.204279
93.236667 1751.832055 1754.656493 1757.246657 1757.480283 1760.032246 1764.168642
93.350000 1753.086280 1755.676010 1758.467636 1758.722435 1761.257257 1765.455751
93.463333 1754.048332 1756.776452 1759.633339 1759.957768 1762.802614 1767.199821
93.576667 1754.950045 1757.885339 1760.795837 1761.149605 1764.015840 1768.849987
93.690000 1755.810752 1758.965842 1761.832185 1762.324690 1765.377148 1771.623347
93.793333 1757.075248 1759.990108 1762.936200 1763.431096 1766.678520 1773.161937
93.896667 1758.090032 1760.838230 1763.835989 1764.463728 1767.801100 1774.632274
94.000000 1758.891130 1761.671628 1764.840635 1765.512911 1769.104702 1775.965613
94.125000 1759.894957 1762.772531 1765.979636 1766.738498 1770.246358 1777.642372
94.250000 1761.079455 1763.813643 1767.126541 1767.959166 1771.517885 1779.466087
94.356667 1762.000905 1764.935159 1768.092710 1769.015482 1772.476350 1782.237813
94.463333 1763.019666 1766.021656 1769.121777 1770.141271 1773.646491 1784.380081
94.570000 1763.962670 1767.026023 1770.363584 1771.264472 1774.613894 1786.497449
94.705000 1765.174215 1768.261089 1771.771901 1772.790620 1776.277802 1790.627510
94.840000 1766.507477 1769.702167 1773.188822 1774.359449 1777.876421 1793.511258
94.970000 1767.651239 1770.964430 1774.563861 1775.966407 1779.737710 1799.449986
95.100000 1769.037583 1772.289230 1776.038724 1777.663528 1782.059269 1803.209651
95.220000 1770.187190 1773.475910 1777.606149 1779.460607 1784.525886 1805.394643
95.340000 1771.694442 1774.757190 1779.301501 1781.412117 1787.027526 1807.862944
95.460000 1772.759971 1776.178980 1781.103245 1783.457594 1789.772433 1810.053734
95.605000 1774.066241 1777.632305 1783.534209 1786.610409 1796.729008 1812.622655
95.750000 1775.262469 1779.185332 1786.160648 1789.738405 1802.374920 1814.376039
95.853333 1776.278429 1780.511941 1788.284610 1791.640158 1804.563305 1816.103353
95.956667 1777.488106 1782.008592 1790.297782 1793.573197 1806.817986 1817.276469
96.060000 1778.683173 1783.521789 1792.531439 1795.485575 1808.799095 1819.504317
