depth(m) lower_95(kyr) lower_68(kyr) median(kyr) mean(kyr) upper_68(kyr) upper_95(kyr)
49.300000 1481.129720 1485.168224 1490.636079 1490.937348 1496.366730 1504.107643
49.400000 1484.338946 1488.854274 1493.521419 1494.001787 1498.639207 1507.010689
49.500000 1488.503137 1492.861959 1497.753528 1497.890458 1502.665259 1509.178736
49.600000 1492.700514 1497.302977 1502.416626 1502.153324 1505.925329 1512.800245
49.700000 1497.951076 1503.306460 1506.868954 1506.779464 1509.523714 1517.515968
49.800000 1504.855503 1508.804156 1511.581811 1512.131757 1515.562178 1522.957592
49.900000 1510.152015 1513.268746 1518.024106 1518.351006 1523.664247 1527.108594
50.000000 1513.474025 1519.672349 1525.865290 1524.659209 1528.654656 1530.701247
50.100000 1519.458794 1526.923577 1530.164433 1529.391218 1532.131364 1534.037513
50.200000 1526.537961 1531.685151 1534.145348 1533.873715 1536.447498 1538.938521
50.300000 1534.761935 1536.675739 1538.633100 1538.572443 1540.446599 1542.632708
50.400000 1539.990487 1542.045200 1543.705121 1543.716202 1545.477026 1547.623933
50.500000 1543.453282 1545.392480 1547.112599 1547.133521 1548.967984 1550.793684
50.600000 1546.077906 1547.664692 1549.421395 1549.466464 1551.365176 1552.913060
50.700000 1548.201953 1549.790565 1551.517533 1551.571868 1553.348660 1555.142801
50.800000 1549.969797 1551.821464 1553.664409 1553.604090 1555.343999 1556.894333
50.900000 1551.903744 1553.833319 1555.809042 1555.671958 1557.399324 1558.898519
50.997000 1553.799259 1555.823800 1557.705011 1557.582316 1559.348826 1560.658262
51.094000 1555.863144 1557.776285 1559.630858 1559.520462 1561.132680 1562.583730
51.200000 1558.120626 1560.013691 1561.675462 1561.585514 1563.108687 1564.580468
51.300000 1560.121511 1561.991053 1563.549193 1563.484651 1565.013953 1566.297159
51.400000 1562.094672 1563.980271 1565.438241 1565.412496 1566.894506 1568.252613
51.500000 1564.136643 1566.016960 1567.494844 1567.461240 1568.980017 1570.463237
51.600000 1566.552299 1568.174101 1569.560156 1569.587515 1570.917353 1572.732167
51.733333 1569.320047 1570.940477 1572.496509 1572.682141 1574.317721 1577.014927
51.866667 1572.153893 1573.741083 1575.550744 1575.751325 1577.613998 1580.967442
52.000000 1574.455496 1576.684816 1578.619378 1578.830977 1580.976432 1584.119139
52.133333 1577.238316 1579.407443 1581.517300 1581.904417 1584.626504 1588.600442
52.266667 1580.355279 1582.157446 1584.280291 1584.913626 1588.223357 1592.014632
52.400000 1583.101165 1584.842758 1587.136760 1587.971991 1591.966279 1595.528898
52.500000 1585.474162 1587.011875 1589.371864 1590.444327 1594.602359 1598.839996
52.600000 1587.794392 1589.601119 1591.979163 1593.244108 1597.356618 1604.897563
52.700000 1590.244341 1592.728673 1595.404960 1596.431037 1599.888609 1609.456107
52.800000 1593.721281 1596.737722 1599.536289 1600.552408 1605.085036 1611.747463
52.900000 1598.494566 1601.765600 1606.283622 1606.124935 1609.879857 1614.350595
53.000000 1609.733850 1612.069515 1613.862305 1614.013846 1615.980617 1618.441352
53.100000 1615.619169 1617.136955 1618.586590 1618.726801 1620.390006 1622.172357
53.120000 1616.511408 1617.920448 1619.436696 1619.529050 1621.151185 1622.937160
53.170000 1618.186084 1619.680391 1621.217707 1621.277486 1622.825889 1624.850522
53.200000 1619.150593 1620.622268 1622.254237 1622.313829 1623.945566 1625.796400
53.220000 1619.778769 1621.400556 1623.026052 1623.037619 1624.660804 1626.391649
53.270000 1621.661461 1623.208552 1624.877033 1624.854978 1626.522938 1628.070784
53.300000 1622.870239 1624.530273 1626.017656 1626.042856 1627.574313 1628.956422
53.320000 1623.713637 1625.238544 1626.847619 1626.808723 1628.328674 1629.736528
53.370000 1625.415096 1627.042655 1628.665604 1628.614774 1630.183936 1631.545594
53.400000 1626.395887 1628.151570 1629.791486 1629.716348 1631.327543 1632.607386
53.420000 1627.048884 1628.840850 1630.453935 1630.399786 1631.866434 1633.185156
53.470000 1629.013477 1630.615194 1632.114779 1632.038359 1633.405653 1634.832410
53.500000 1630.046207 1631.498894 1632.971137 1632.924423 1634.245312 1635.621788
53.520000 1630.818776 1632.052214 1633.507158 1633.484979 1634.903216 1636.143227
53.570000 1632.008517 1633.372203 1634.761150 1634.736393 1636.010292 1637.489922
53.620000 1633.169338 1634.578550 1635.964868 1635.935614 1637.266532 1638.731962
53.670000 1634.430974 1635.772156 1637.151731 1637.156454 1638.555847 1639.901119
53.720000 1635.786978 1637.175855 1638.489972 1638.517865 1639.906755 1641.311895
53.770000 1637.134044 1638.558723 1639.955885 1639.972339 1641.446572 1642.930344
53.820000 1638.416328 1639.934432 1641.419710 1641.461510 1643.105811 1644.651107
53.870000 1639.637473 1641.239194 1642.734726 1642.812434 1644.432757 1646.289834
53.920000 1641.065268 1642.713413 1644.244960 1644.290556 1645.846757 1647.838314
54.020000 1643.366416 1644.938722 1646.551109 1646.686841 1648.479220 1650.575764
54.120000 1645.223580 1647.042051 1648.766063 1648.874455 1650.765884 1652.697114
54.170000 1646.420004 1648.181478 1649.953274 1650.073657 1652.023214 1654.025480
54.270000 1648.591378 1650.530083 1652.410916 1652.463693 1654.554376 1656.339114
54.320000 1649.703489 1651.754497 1653.624170 1653.714797 1655.764623 1657.492038
54.420000 1652.081922 1654.297542 1656.223135 1656.221450 1658.085147 1659.902430
54.470000 1653.486137 1655.838776 1657.606261 1657.643491 1659.537732 1661.333040
54.520000 1655.640656 1657.353142 1659.241707 1659.212369 1661.016917 1662.815305
54.570000 1657.405284 1659.047552 1661.116529 1661.056288 1662.966725 1664.959248
54.620000 1659.102925 1660.598374 1662.597443 1662.717730 1664.810907 1667.278789
54.670000 1660.589011 1662.268739 1664.305040 1664.510408 1666.779528 1669.564108
54.720000 1662.115856 1663.783791 1666.034099 1666.259805 1668.851695 1671.728558
54.845000 1665.024682 1667.206570 1670.125591 1670.359922 1673.424253 1677.021238
54.970000 1667.740509 1670.577402 1674.001962 1674.285805 1677.875927 1681.934800
55.045000 1669.825234 1672.625287 1676.226537 1676.552255 1680.377636 1684.363446
55.120000 1672.387142 1674.927313 1678.726223 1678.877541 1682.776665 1686.760846
55.220000 1674.753760 1677.666254 1682.061853 1681.963379 1685.941598 1689.336439
55.320000 1677.520668 1680.778377 1685.304037 1685.158029 1689.359716 1692.790826
55.420000 1679.983265 1684.021578 1688.830274 1688.564112 1692.649312 1696.470996
55.470000 1681.617257 1685.956095 1690.822867 1690.569295 1694.893160 1698.424910
55.603333 1686.511585 1691.427621 1697.146172 1697.302321 1703.083558 1708.979864
55.736667 1691.040126 1697.641684 1704.812270 1704.325623 1710.581234 1715.921862
55.870000 1698.806573 1706.650059 1712.344431 1711.498695 1716.093875 1720.324652
55.970000 1707.932967 1713.569750 1716.838456 1716.645100 1720.076614 1723.087852
56.070000 1713.191119 1717.642929 1720.499379 1720.589884 1723.858347 1727.561576
56.170000 1716.538501 1721.358160 1724.615881 1724.638816 1728.118806 1732.186074
56.220000 1718.322411 1722.996568 1726.633015 1726.527581 1730.059674 1733.959223
56.345000 1722.652008 1726.864069 1730.553834 1730.506744 1734.244233 1737.565869
56.470000 1726.850825 1730.993110 1734.564525 1734.541552 1738.323597 1741.342671
56.520000 1728.820783 1732.986088 1736.334702 1736.305475 1739.993015 1742.817321
56.630000 1733.848515 1737.291348 1740.343492 1740.349921 1743.550799 1746.472567
56.730000 1737.757280 1740.962412 1743.953516 1743.926562 1747.062307 1749.470339
56.830000 1740.938625 1743.705729 1746.920994 1746.875854 1749.848635 1752.486033
56.930000 1743.203217 1746.610356 1749.937748 1749.778865 1752.878114 1755.374272
57.030000 1746.065964 1749.254099 1752.635594 1752.550141 1755.735426 1758.097283
57.130000 1748.959504 1752.186714 1755.456560 1755.342258 1758.514563 1760.921470
57.230000 1751.449465 1755.116170 1758.353565 1758.168397 1761.149423 1764.277163
57.330000 1754.130986 1757.964154 1761.285235 1761.159313 1763.995991 1767.971514
57.430000 1756.829464 1760.610109 1764.023601 1764.152444 1767.330193 1773.054498
57.530000 1759.165465 1763.072191 1766.773093 1767.076766 1770.919338 1778.139534
57.658571 1762.270533 1766.262205 1770.303187 1771.327203 1776.267919 1786.089823
57.787143 1765.567927 1769.418635 1774.334593 1775.605572 1782.707016 1790.911155
57.915714 1768.091072 1772.586979 1778.445715 1779.977106 1788.649522 1795.715191
58.044286 1770.876157 1775.651147 1783.144517 1784.397785 1793.940948 1800.331881
58.172857 1774.111430 1778.983451 1789.030654 1788.870294 1798.871881 1805.102729
58.301429 1777.430657 1782.224281 1795.091065 1793.608481 1803.833013 1808.751933
58.430000 1780.676962 1786.166329 1800.432666 1798.133189 1808.296566 1812.638818
58.530000 1784.929432 1790.029700 1803.327043 1801.636992 1811.370283 1815.610966
58.630000 1788.413342 1795.518063 1807.005044 1805.398987 1814.260187 1818.172082
58.730000 1792.706167 1801.189760 1810.314797 1809.166511 1816.849623 1820.779446
58.830000 1801.899286 1806.152336 1813.823295 1813.124499 1819.664403 1823.616361
58.930000 1805.874208 1810.890597 1817.192657 1816.817311 1822.351373 1826.133487
59.030000 1809.474677 1815.180710 1820.827023 1820.327380 1825.466452 1828.614529
59.130000 1813.985966 1818.888685 1824.256084 1823.750450 1828.534490 1831.363058
59.230000 1818.046198 1823.196698 1827.834807 1827.362068 1831.637048 1833.835112
59.330000 1823.251132 1827.864326 1831.775726 1831.267338 1834.623555 1836.454024
59.430000 1828.892188 1832.837294 1835.744461 1835.230740 1837.487986 1839.023512
59.530000 1834.385224 1836.940870 1838.538029 1838.372049 1839.909128 1841.055739
59.630000 1839.249314 1840.178013 1841.131081 1841.101962 1842.036809 1842.878638
59.730000 1841.551705 1842.675706 1843.873421 1844.003190 1845.268743 1847.477678
59.830000 1843.981180 1845.464614 1847.357743 1847.877506 1850.524462 1853.819106
59.930000 1846.840708 1848.824452 1852.134530 1852.134947 1855.410995 1857.478155
60.030000 1849.928264 1853.277689 1856.922771 1856.217630 1858.739929 1860.134784
60.130000 1854.540744 1858.525925 1860.290965 1859.951152 1861.530525 1862.603550
60.230000 1860.995967 1861.949661 1862.891512 1862.854886 1863.723969 1864.513517
60.330000 1863.066411 1864.008027 1865.137914 1865.255577 1866.411163 1868.530418
60.430000 1864.925266 1866.075466 1867.460318 1867.774913 1869.615664 1872.572025
60.530000 1866.871129 1868.122685 1869.706701 1870.187834 1872.290114 1876.390509
60.640000 1868.919255 1870.393728 1872.381693 1872.930051 1875.588672 1879.806160
60.740000 1871.092187 1872.637150 1875.084482 1875.711630 1879.027307 1883.250202
60.840000 1873.213925 1875.246712 1878.132945 1878.791116 1882.495037 1887.120300
60.940000 1875.624760 1877.977508 1881.837739 1882.187007 1886.766344 1890.564891
61.040000 1878.029686 1881.142719 1886.071801 1885.920855 1890.605290 1893.238637
61.140000 1881.003823 1885.557231 1890.680795 1889.851149 1893.549527 1895.609679
61.240000 1884.964969 1891.055493 1894.227707 1893.651137 1896.420416 1898.187438
61.340000 1889.697405 1894.558986 1897.058793 1896.682042 1898.915416 1900.696362
61.440000 1896.296335 1898.244329 1900.041681 1899.956608 1901.661840 1903.448688
61.540000 1899.049384 1900.711190 1902.411725 1902.415301 1904.123830 1905.933542
61.640000 1901.078714 1902.865885 1904.584669 1904.673060 1906.551881 1908.403264
61.740000 1903.154832 1904.973026 1906.827604 1906.841356 1908.699372 1910.868094
61.840000 1905.352110 1907.081834 1908.987139 1909.028994 1910.909843 1913.272891
61.930000 1907.177759 1908.938552 1911.024010 1911.030910 1913.041306 1915.530973
62.030000 1909.256485 1911.266484 1913.397419 1913.443853 1915.676741 1918.147394
62.140000 1911.717779 1914.066050 1916.404880 1916.572414 1918.924364 1922.464311
62.240000 1914.268461 1916.729416 1919.435223 1919.738537 1922.531466 1927.526203
62.340000 1917.231091 1920.049065 1923.165546 1923.798703 1927.612454 1933.087146
62.440000 1920.963295 1924.073698 1928.185323 1928.730235 1933.541686 1939.121611
62.540000 1924.755297 1928.776467 1933.802490 1934.066765 1939.065720 1944.370080
62.640000 1928.963216 1933.655478 1939.507035 1939.361063 1944.876151 1948.638236
62.740000 1933.499654 1939.477797 1945.840493 1944.899802 1950.102459 1952.510171
62.840000 1940.275971 1946.614094 1951.765151 1950.561791 1953.808783 1955.113759
62.940000 1954.247592 1955.038825 1955.976023 1955.954665 1956.805159 1957.676842
63.040000 1956.593489 1957.799207 1959.018385 1959.140795 1960.560735 1962.262858
63.090000 1957.838522 1959.059938 1960.547522 1960.772530 1962.661926 1964.451866
63.140000 1958.975389 1960.416346 1962.134317 1962.296967 1964.339971 1966.047996
63.190000 1960.235105 1961.784241 1963.773812 1963.815564 1965.883555 1967.770638
63.240000 1961.599740 1963.147529 1965.214651 1965.229429 1967.306711 1969.189945
63.290000 1962.998651 1964.548185 1966.670964 1966.659663 1968.734654 1970.707321
63.340000 1964.255003 1965.975843 1968.107436 1968.048803 1970.001720 1971.809094
63.390000 1965.634831 1967.526863 1969.540626 1969.525653 1971.437394 1973.122973
63.440000 1967.079885 1969.258854 1971.177756 1971.134166 1972.943412 1974.834910
63.490000 1969.052131 1970.943751 1972.764584 1972.770047 1974.530281 1976.596226
63.540000 1970.884491 1972.706209 1974.502934 1974.595232 1976.431419 1978.801678
63.590000 1972.557571 1974.522784 1976.374898 1976.444850 1978.371315 1980.959648
63.640000 1974.156840 1976.219236 1978.202872 1978.333678 1980.504489 1983.072633
63.690000 1975.895730 1977.986738 1980.098539 1980.166030 1982.413535 1985.024687
63.740000 1977.280444 1979.553057 1981.902293 1982.005575 1984.627025 1987.202471
63.790000 1978.755705 1981.111514 1983.909974 1983.980113 1986.918748 1989.831525
63.890000 1981.674465 1984.443372 1987.724856 1987.917124 1991.399254 1995.081797
63.990000 1984.825771 1988.447060 1991.662845 1991.817670 1995.452490 1999.867970
64.090000 1989.334977 1992.243178 1995.459288 1995.713918 1999.452920 2003.008681
64.190000 1993.865952 1996.459787 1999.414655 1999.610251 2003.016755 2005.569102
64.240000 1995.980488 1998.464300 2001.418637 2001.535562 2004.808056 2007.106440
64.290000 1998.054813 2000.504284 2003.574922 2003.532961 2006.652717 2008.893516
64.340000 1999.969367 2002.629972 2005.674439 2005.568378 2008.506049 2010.386607
64.390000 2001.990022 2004.782282 2007.686611 2007.527274 2010.065361 2011.953667
64.440000 2004.317866 2007.112901 2009.808277 2009.495797 2011.783439 2013.469588
64.490000 2006.794941 2009.406608 2011.534604 2011.335797 2013.367373 2014.872802
64.540000 2008.557823 2011.249561 2013.275891 2013.110920 2014.997085 2016.631739
64.590000 2010.562767 2012.862978 2014.865553 2014.676241 2016.395544 2018.207115
64.640000 2011.979475 2014.431352 2016.309354 2016.057197 2017.635124 2019.586764
64.690000 2013.298285 2015.830203 2017.578362 2017.414594 2018.955535 2020.898019
64.740000 2015.008839 2017.388490 2018.983784 2018.904584 2020.534323 2022.457820
64.790000 2017.122027 2019.046983 2020.627690 2020.639614 2022.354899 2024.215871
64.840000 2018.664793 2020.440430 2022.000702 2022.173202 2024.038723 2026.163886
64.890000 2020.429407 2021.811709 2023.455517 2023.650708 2025.614997 2027.844366
64.940000 2021.916397 2023.325564 2025.082705 2025.244754 2027.283975 2029.326541
64.990000 2023.254440 2024.696449 2026.720640 2026.820865 2028.950841 2030.737860
65.040000 2024.613884 2026.281840 2028.459376 2028.446303 2030.568259 2032.305123
65.090000 2026.236568 2027.989314 2030.244018 2030.139641 2032.233811 2033.679570
65.140000 2027.831339 2029.732659 2031.968464 2031.823842 2033.691024 2035.553119
65.190000 2029.519803 2031.593149 2033.741915 2033.566426 2035.369805 2037.025973
65.240000 2031.188481 2033.125663 2035.126581 2035.025484 2036.913789 2038.468452
65.290000 2032.756364 2034.532559 2036.478495 2036.424849 2038.268808 2040.027488
65.340000 2034.366262 2036.166854 2037.998146 2037.961849 2039.694728 2041.561901
65.390000 2035.933292 2037.907549 2039.659921 2039.591976 2041.320994 2043.076840
65.440000 2037.588522 2039.424767 2041.104921 2041.106968 2042.797568 2044.509335
65.490000 2039.036778 2040.877499 2042.480769 2042.541164 2044.243120 2046.275926
65.540000 2040.556962 2042.306730 2043.889116 2043.979423 2045.623882 2047.661083
65.590000 2041.945701 2043.783761 2045.347995 2045.475443 2047.129390 2049.417426
65.640000 2043.734933 2045.331974 2047.075169 2047.160363 2049.028429 2051.214506
65.690000 2045.286125 2046.921768 2048.829646 2048.866338 2050.754606 2052.908968
65.765000 2047.153009 2048.924357 2050.880226 2050.947710 2052.931177 2054.925150
65.840000 2049.168417 2050.866572 2052.814236 2052.842778 2054.791262 2056.782042
65.940000 2051.219063 2053.207357 2055.226214 2055.174376 2057.150807 2059.255410
66.040000 2053.365770 2055.434963 2057.478456 2057.432473 2059.446996 2061.294596
66.140000 2055.700426 2057.725784 2059.732792 2059.706637 2061.654373 2063.465399
66.240000 2058.431637 2060.390640 2062.286110 2062.263321 2064.072521 2065.987073
66.340000 2061.610983 2063.411236 2065.233870 2065.291023 2067.115601 2069.092434
66.390000 2063.676241 2065.377987 2067.214074 2067.250962 2069.105996 2071.154238
66.440000 2065.162994 2067.023880 2068.795655 2068.912237 2070.807122 2073.131025
66.540000 2068.134504 2069.747274 2071.694012 2071.862886 2073.982511 2076.634045
66.615000 2070.129202 2071.791559 2073.967905 2074.183613 2076.703772 2079.355068
66.690000 2071.971650 2073.841416 2076.320947 2076.518471 2079.252877 2081.926045
66.765000 2073.862405 2075.914464 2078.427999 2078.669683 2081.480027 2084.097243
66.840000 2075.676882 2078.038481 2080.653463 2080.820749 2083.678157 2086.439643
66.890000 2077.166992 2079.683162 2082.298085 2082.372549 2085.226679 2087.950607
66.940000 2078.713718 2081.082785 2083.974186 2083.932142 2086.730652 2089.311500
67.040000 2081.862360 2084.444569 2087.318511 2087.353503 2090.202288 2093.271514
67.140000 2085.683776 2088.696648 2091.809330 2091.805170 2094.780606 2098.352695
67.230000 2088.932646 2091.683689 2094.825460 2095.096699 2098.756529 2102.259987
67.240000 2089.240797 2092.078647 2095.132081 2095.475429 2099.085877 2102.691614
67.340000 2092.289948 2095.192939 2098.498916 2099.077414 2103.061116 2108.132333
67.440000 2095.047414 2098.164431 2102.102693 2102.674720 2107.315895 2113.909406
