depth(m) lower_95(kyr) lower_68(kyr) median(kyr) mean(kyr) upper_68(kyr) upper_95(kyr)
201.840000 1513.648512 1520.507990 1523.808579 1522.944656 1525.578574 1526.518381
201.940000 1514.195388 1521.014095 1524.280839 1523.430628 1526.028867 1526.872815
202.040000 1515.038318 1521.547900 1524.736712 1523.909052 1526.426657 1527.177805
202.140000 1515.566421 1522.082379 1525.164480 1524.368305 1526.787693 1527.548058
202.240000 1516.325132 1522.583330 1525.564494 1524.823565 1527.143252 1527.900700
202.340000 1517.040934 1523.027313 1525.992313 1525.272702 1527.510419 1528.221571
202.440000 1518.324182 1523.652250 1526.425439 1525.729780 1527.835726 1528.567339
202.540000 1519.335003 1524.159959 1526.778334 1526.169885 1528.193365 1528.877253
202.640000 1520.328138 1524.689590 1527.171466 1526.598875 1528.535527 1529.150676
202.740000 1521.598929 1525.168807 1527.581598 1527.030801 1528.868118 1529.473304
202.840000 1522.324202 1525.639452 1527.961975 1527.469287 1529.209762 1529.789537
202.940000 1523.244665 1526.171521 1528.335987 1527.893312 1529.569100 1530.161515
203.040000 1524.200517 1526.574387 1528.719306 1528.322102 1529.918067 1530.501330
203.140000 1524.817324 1527.072319 1529.136824 1528.751418 1530.241914 1530.894303
203.240000 1525.591004 1527.588518 1529.502480 1529.164405 1530.577990 1531.274539
203.340000 1526.160638 1528.139312 1529.917416 1529.600493 1530.935152 1531.571304
203.440000 1526.829171 1528.573568 1530.356792 1530.006498 1531.296466 1531.909709
203.540000 1527.341865 1529.108563 1530.714333 1530.439791 1531.631408 1532.283213
203.640000 1528.067247 1529.645001 1531.138342 1530.875601 1531.964721 1532.667321
203.740000 1528.637448 1530.231334 1531.551830 1531.300343 1532.311670 1533.093518
203.840000 1529.122186 1530.678255 1531.947086 1531.738540 1532.683663 1533.547154
203.940000 1529.859638 1531.166952 1532.355599 1532.188310 1533.090836 1533.919416
204.040000 1530.389055 1531.704157 1532.776779 1532.649977 1533.490239 1534.529569
204.140000 1531.078020 1532.246090 1533.181578 1533.125584 1533.946529 1535.081107
204.240000 1531.684815 1532.755663 1533.622087 1533.596752 1534.409695 1535.623374
204.340000 1532.106580 1533.167902 1534.032281 1534.057471 1534.939743 1536.196334
204.440000 1532.535348 1533.578123 1534.456615 1534.513278 1535.443648 1536.653293
204.540000 1533.042831 1534.073320 1534.853167 1534.955455 1535.930656 1537.094514
204.650000 1533.536064 1534.488670 1535.261761 1535.396117 1536.388122 1537.595268
204.760000 1533.918520 1534.916182 1535.733935 1535.843808 1536.876635 1538.186585
204.840000 1534.152485 1535.220770 1536.042786 1536.160768 1537.224447 1538.619837
204.950000 1534.756619 1535.603770 1536.468989 1536.600956 1537.708375 1539.040269
205.060000 1535.288465 1536.066760 1536.914910 1537.058987 1538.221836 1539.440702
205.160000 1535.737831 1536.458873 1537.361745 1537.491750 1538.584937 1539.801921
205.260000 1536.111232 1536.886818 1537.784322 1537.929067 1539.065218 1540.211783
205.360000 1536.555849 1537.310773 1538.266956 1538.376356 1539.522854 1540.616041
205.460000 1536.975046 1537.720827 1538.785918 1538.873617 1540.059154 1541.261380
205.560000 1537.452978 1538.208273 1539.304426 1539.380119 1540.530866 1541.826843
205.660000 1537.855994 1538.728774 1539.825332 1539.894731 1541.040192 1542.355650
205.760000 1538.196414 1539.241520 1540.424944 1540.442270 1541.588806 1542.879273
205.860000 1538.691558 1539.728598 1540.968481 1541.002609 1542.237050 1543.722704
205.960000 1539.117441 1540.238566 1541.543138 1541.557803 1542.828661 1544.328364
206.080000 1539.649675 1540.794836 1542.121566 1542.172621 1543.483432 1545.299967
206.200000 1540.144340 1541.272507 1542.659740 1542.767035 1544.250395 1546.176784
206.320000 1540.648834 1541.786270 1543.194161 1543.359979 1544.934072 1547.094968
206.440000 1541.123072 1542.297557 1543.785787 1543.970970 1545.646286 1547.690855
206.560000 1541.662158 1542.903195 1544.387989 1544.604992 1546.404441 1548.644163
206.680000 1542.311286 1543.539720 1545.047208 1545.331409 1547.223552 1549.400498
206.800000 1542.780379 1544.190753 1545.933761 1546.128401 1548.123251 1550.244149
206.920000 1543.236774 1544.765917 1546.855950 1546.908011 1549.040618 1551.102932
207.040000 1543.741414 1545.387788 1547.682474 1547.663120 1549.921483 1551.954581
207.160000 1544.439527 1545.945148 1548.525445 1548.422596 1550.732735 1552.738758
207.260000 1544.862936 1546.342963 1549.158327 1548.986453 1551.372405 1553.413130
207.360000 1545.316488 1546.839648 1549.777030 1549.550850 1551.960848 1554.157278
207.460000 1545.714542 1547.364326 1550.310771 1550.114862 1552.635979 1554.885656
207.560000 1546.193296 1547.879718 1550.858266 1550.708961 1553.367022 1555.397178
207.660000 1546.718955 1548.478075 1551.436243 1551.301182 1553.959680 1555.921497
207.760000 1547.233853 1549.018889 1552.123275 1551.914779 1554.509459 1556.409782
207.860000 1547.635605 1549.711303 1552.768648 1552.529083 1555.084411 1556.972096
207.960000 1548.019715 1550.539874 1553.391016 1553.177376 1555.587625 1557.502527
208.060000 1548.563111 1551.241708 1554.106585 1553.820204 1556.196698 1557.974686
208.180000 1549.207121 1552.149608 1555.031397 1554.704697 1557.105066 1558.977900
208.300000 1549.728179 1553.087391 1556.006796 1555.669829 1558.101182 1560.082425
208.420000 1550.181177 1554.108567 1557.017093 1556.648881 1559.078633 1561.046011
208.540000 1550.733857 1555.142650 1557.962841 1557.618510 1560.011827 1562.003934
208.660000 1551.227929 1556.238205 1559.062418 1558.619514 1560.999921 1562.956761
208.780000 1551.811881 1557.239843 1560.069922 1559.550586 1561.887405 1563.767379
208.900000 1552.487257 1558.317050 1560.915009 1560.454334 1562.830902 1564.469999
209.020000 1553.240656 1559.330750 1561.809633 1561.363306 1563.773921 1565.196055
209.140000 1553.883224 1560.178796 1562.817493 1562.280843 1564.669618 1566.000930
209.260000 1554.254214 1561.216360 1563.779129 1563.130035 1565.384261 1566.783983
209.360000 1554.694157 1562.025918 1564.477464 1563.837606 1566.093739 1567.446488
209.460000 1555.080072 1562.687523 1565.190937 1564.526133 1566.784130 1568.070470
209.560000 1555.437128 1563.442973 1565.822315 1565.164905 1567.452606 1568.726331
209.660000 1555.857073 1564.029442 1566.466931 1565.779746 1567.979634 1569.471508
209.760000 1556.802601 1564.580609 1567.066614 1566.363518 1568.549110 1570.174040
209.860000 1557.316802 1565.142662 1567.536806 1566.899695 1569.057373 1571.154730
209.996364 1557.959704 1565.733288 1568.054937 1567.508640 1569.637157 1571.995137
210.132727 1559.182431 1566.361132 1568.559657 1568.099613 1570.199595 1572.810632
210.269091 1560.162958 1566.775001 1569.004163 1568.652452 1570.778715 1573.479268
210.405455 1561.614497 1567.332893 1569.471168 1569.197213 1571.248150 1574.245505
210.541818 1562.979524 1567.756280 1569.933433 1569.744495 1571.672605 1574.875711
210.678182 1564.030951 1568.283866 1570.328594 1570.261587 1572.140734 1575.694716
210.814545 1565.237820 1568.813776 1570.762263 1570.780446 1572.587017 1576.373094
210.950909 1566.465514 1569.258648 1571.208036 1571.292496 1573.078442 1577.074045
211.087273 1567.709085 1569.847982 1571.578508 1571.790751 1573.498026 1577.904864
211.223636 1568.648369 1570.461359 1572.020089 1572.313880 1573.905875 1578.440915
211.360000 1569.451015 1570.980126 1572.461288 1572.824945 1574.347082 1579.093450
211.460000 1570.074441 1571.429663 1572.848543 1573.220820 1574.661907 1579.431348
211.560000 1570.468084 1571.896179 1573.168202 1573.595650 1575.023120 1579.757839
211.660000 1570.837428 1572.248004 1573.519039 1573.969628 1575.408352 1580.147146
211.794286 1571.328031 1572.749124 1573.944444 1574.450693 1575.953129 1580.698165
211.928571 1571.852406 1573.206707 1574.424379 1574.921652 1576.495158 1580.951687
212.062857 1572.257390 1573.608519 1574.888129 1575.399442 1577.028474 1581.536120
212.197143 1572.692296 1574.027167 1575.352628 1575.863074 1577.585078 1581.978447
212.331429 1573.213976 1574.478373 1575.754553 1576.322873 1578.163508 1582.776651
212.465714 1573.682274 1574.929445 1576.187296 1576.805722 1578.649428 1583.538944
212.600000 1574.075817 1575.326572 1576.658129 1577.295260 1579.273034 1584.019540
212.740000 1574.535805 1575.769953 1577.124003 1577.854414 1580.271691 1584.620006
212.880000 1574.944260 1576.200292 1577.618709 1578.414205 1581.112138 1585.318935
213.020000 1575.384415 1576.687649 1578.112760 1578.979105 1581.883024 1586.188697
213.160000 1575.801110 1577.108577 1578.610078 1579.543489 1582.718403 1586.885636
213.300000 1576.152447 1577.560875 1579.067017 1580.105524 1583.628161 1587.270938
213.440000 1576.651060 1577.997640 1579.558828 1580.683259 1584.564680 1587.983139
213.580000 1577.037427 1578.397541 1580.054932 1581.254334 1585.454066 1588.602786
213.720000 1577.482839 1578.815970 1580.535807 1581.824543 1586.320158 1589.283754
213.860000 1577.893044 1579.260088 1581.026445 1582.410421 1587.205481 1589.994641
214.000000 1578.335379 1579.720089 1581.509055 1582.992559 1587.923585 1590.669594
214.140000 1578.768056 1580.190644 1582.040823 1583.602650 1588.746822 1591.337826
214.280000 1579.359533 1580.645962 1582.609161 1584.239146 1589.705812 1592.194175
214.420000 1579.860913 1581.099802 1583.198649 1584.893069 1590.626130 1592.813426
214.560000 1580.369131 1581.609952 1583.766009 1585.565777 1591.481158 1593.564651
214.700000 1580.864572 1582.158096 1584.447907 1586.259402 1592.196492 1594.230784
214.835000 1581.418801 1582.746169 1585.275134 1586.964314 1592.854575 1594.858653
214.970000 1581.934150 1583.419601 1586.112850 1587.686272 1593.478662 1595.441899
215.098571 1582.351077 1584.061077 1587.303243 1588.474921 1594.092902 1596.052635
215.227143 1582.825511 1584.806995 1588.537784 1589.313338 1594.625423 1596.741653
215.355714 1583.318108 1585.495628 1589.882968 1590.194769 1595.183833 1597.327991
215.484286 1583.809105 1586.204998 1591.073444 1591.070392 1595.775355 1597.993609
215.612857 1584.483431 1586.936755 1592.381260 1592.027874 1596.267940 1598.559543
215.741429 1585.148623 1587.811654 1593.650978 1592.945910 1596.922484 1599.058545
215.870000 1585.781447 1588.574065 1594.710994 1593.807173 1597.542952 1599.612066
215.970000 1586.382141 1589.283259 1595.691398 1594.549537 1598.221485 1600.095152
216.070000 1587.079599 1590.037540 1596.497024 1595.294186 1598.845031 1600.685985
216.170000 1588.067265 1590.901286 1597.352129 1596.038462 1599.458772 1601.342583
216.298571 1589.425460 1592.454643 1598.058569 1596.937955 1600.208502 1601.943202
216.427143 1590.510641 1593.766957 1598.759841 1597.860014 1600.963100 1602.476502
216.555714 1591.625098 1595.338014 1599.465286 1598.768361 1601.606981 1603.173119
216.684286 1593.519450 1596.920652 1600.187782 1599.737447 1602.238073 1603.671145
216.812857 1594.991218 1598.383972 1601.006281 1600.658152 1602.825853 1604.192575
216.941429 1596.350228 1599.617376 1601.835064 1601.518830 1603.459745 1604.726046
217.070000 1598.302589 1600.732933 1602.709173 1602.408976 1604.065225 1605.238494
217.170000 1599.194465 1601.368596 1603.199535 1602.959866 1604.557551 1605.594856
217.270000 1599.943185 1601.984986 1603.760327 1603.505746 1605.038230 1606.007510
217.370000 1600.725254 1602.534008 1604.288249 1604.040547 1605.452876 1606.507717
217.470000 1601.490773 1603.081431 1604.756082 1604.584334 1605.916348 1606.935853
217.570000 1602.183606 1603.792249 1605.246172 1605.115124 1606.382151 1607.396524
217.670000 1602.773043 1604.323893 1605.741154 1605.624394 1606.842007 1607.964628
217.770000 1603.450778 1604.937451 1606.242802 1606.156510 1607.345329 1608.522159
217.870000 1604.217475 1605.557890 1606.782959 1606.709045 1607.865425 1609.030653
217.970000 1604.756835 1606.118346 1607.276890 1607.259786 1608.425802 1609.530982
218.070000 1605.522429 1606.640636 1607.837137 1607.840673 1609.023187 1610.402928
218.170000 1606.047827 1607.184458 1608.361470 1608.423721 1609.617655 1611.218670
218.270000 1606.683773 1607.770651 1608.877370 1609.003508 1610.225600 1612.051503
218.390000 1607.243344 1608.380101 1609.515843 1609.655309 1610.914488 1613.068241
218.510000 1607.880143 1608.959620 1610.102433 1610.310549 1611.657658 1614.311269
218.630000 1608.377876 1609.436849 1610.659831 1610.967806 1612.476539 1615.285757
218.750000 1609.015066 1609.959265 1611.231832 1611.609695 1613.271224 1616.109387
218.870000 1609.579313 1610.519737 1611.864772 1612.274338 1614.117363 1616.898088
218.970000 1609.957726 1610.939946 1612.368580 1612.789494 1614.837379 1617.726472
219.070000 1610.357970 1611.330846 1612.891334 1613.327195 1615.419063 1618.817285
219.170000 1610.721316 1611.727848 1613.379995 1613.852509 1616.142148 1619.319422
219.270000 1611.059298 1612.101805 1613.871783 1614.364299 1616.694622 1620.211558
219.370000 1611.461974 1612.537278 1614.390228 1614.883262 1617.265375 1620.997017
219.470000 1611.853771 1612.882598 1614.938181 1615.409762 1617.860757 1622.388203
219.570000 1612.166220 1613.294178 1615.453481 1615.963530 1618.509695 1623.041519
219.670000 1612.490539 1613.681275 1616.009173 1616.516701 1619.320990 1623.502168
219.770000 1612.835465 1614.023592 1616.593066 1617.032029 1619.899878 1624.179689
219.890000 1613.255479 1614.452516 1617.156423 1617.692437 1620.901386 1624.732442
220.010000 1613.645070 1614.883125 1617.771619 1618.328378 1622.060060 1625.441205
220.130000 1614.027074 1615.328929 1618.252980 1618.970888 1623.025802 1626.137995
220.250000 1614.482047 1615.782380 1618.774760 1619.594738 1623.966566 1626.860017
220.370000 1614.870211 1616.291492 1619.289412 1620.194605 1624.940476 1627.499038
220.470000 1615.242237 1616.707802 1619.770384 1620.704211 1625.814028 1628.162805
220.570000 1615.619192 1617.119947 1620.237493 1621.190473 1626.440694 1628.937560
220.670000 1615.981432 1617.470399 1620.616924 1621.660870 1627.105372 1629.464158
220.798571 1616.460400 1618.004997 1621.149380 1622.259092 1627.831909 1630.151047
220.927143 1616.942355 1618.591966 1621.835391 1622.867907 1628.436092 1631.031183
221.055714 1617.520184 1619.065530 1622.445993 1623.467748 1629.361637 1631.722989
221.184286 1618.173953 1619.612733 1623.011274 1624.072766 1630.010254 1632.665710
221.312857 1618.675299 1620.186115 1623.459943 1624.674407 1630.610849 1633.455894
221.441429 1619.200631 1620.701921 1623.999587 1625.262444 1631.391630 1634.351834
221.570000 1619.703056 1621.323534 1624.544067 1625.873505 1632.106549 1635.065360
221.695714 1620.189381 1621.879862 1625.047442 1626.464637 1632.585448 1635.925345
221.821429 1620.638997 1622.393209 1625.521622 1627.054093 1633.497260 1636.585147
221.947143 1621.064972 1623.078909 1626.081207 1627.635712 1634.091643 1637.434646
222.072857 1621.584029 1623.677613 1626.625980 1628.230203 1634.622072 1638.190098
222.198571 1622.203486 1624.208918 1627.227374 1628.815614 1635.327468 1638.541316
222.324286 1622.802155 1624.785761 1627.761362 1629.406033 1635.858521 1639.455095
222.450000 1623.305763 1625.398207 1628.341612 1630.009119 1636.527874 1640.122854
222.550000 1623.736541 1625.974501 1628.774318 1630.515889 1636.990319 1640.724045
222.650000 1624.461523 1626.572646 1629.180763 1631.029367 1637.509458 1641.283782
222.750000 1624.864905 1627.264499 1629.697939 1631.571938 1637.938363 1641.946114
222.850000 1625.464065 1627.880757 1630.357026 1632.112666 1638.329262 1642.467774
222.950000 1626.062057 1628.460028 1630.964310 1632.661649 1638.899974 1642.848159
223.050000 1626.799899 1629.040760 1631.750333 1633.238295 1639.373253 1643.210821
223.170000 1627.469576 1629.903060 1632.573038 1633.978383 1639.827129 1643.713521
223.290000 1628.585342 1630.779098 1633.540300 1634.735874 1640.308990 1644.093114
223.410000 1629.285970 1631.625324 1634.334664 1635.471234 1640.877660 1644.620945
223.530000 1630.237461 1632.473927 1635.132349 1636.216476 1641.391326 1645.009395
223.650000 1631.147231 1633.337646 1636.046032 1636.981187 1641.823498 1645.468458
223.794545 1632.061233 1634.268323 1637.043362 1637.951476 1642.584767 1646.167020
223.939091 1632.984520 1635.238864 1638.168008 1638.924060 1643.564648 1647.227346
224.083636 1634.167372 1636.243924 1639.277488 1639.924935 1644.262835 1647.727275
224.228182 1635.026368 1637.154535 1640.375585 1640.891323 1645.019818 1648.575045
224.372727 1635.905146 1638.181553 1641.576450 1641.848513 1645.747206 1649.392641
224.517273 1636.923842 1639.173616 1642.546044 1642.816786 1646.583107 1650.593462
224.661818 1637.953675 1640.161800 1643.487683 1643.819906 1647.538909 1651.359494
224.806364 1638.853414 1641.156444 1644.502312 1644.844286 1648.622485 1652.481971
224.950909 1639.969978 1642.154313 1645.375812 1645.836137 1649.587164 1653.416634
225.095455 1640.842919 1643.136850 1646.377157 1646.835118 1650.626599 1654.734343
225.240000 1641.943967 1644.027080 1647.296272 1647.818762 1651.792927 1656.501130
225.340000 1642.606134 1644.565988 1647.941948 1648.465858 1652.615860 1657.017593
225.440000 1642.988148 1645.184577 1648.658043 1649.116773 1653.415015 1657.708240
225.540000 1643.520645 1645.833544 1649.313301 1649.774503 1654.011944 1658.277128
225.660000 1644.094701 1646.680295 1650.168647 1650.580067 1654.750653 1658.713652
225.780000 1644.619775 1647.412045 1651.080255 1651.369740 1655.504560 1659.298605
225.900000 1645.313603 1648.017913 1651.820008 1652.153883 1656.210563 1659.791496
226.020000 1646.062833 1648.853540 1652.766353 1652.970000 1657.057508 1660.443879
226.140000 1646.608691 1649.567717 1653.721305 1653.743819 1657.842419 1660.956398
226.260000 1647.078556 1650.124593 1654.623675 1654.505970 1658.638617 1661.388999
226.380000 1647.834302 1650.807940 1655.448308 1655.272502 1659.438780 1661.905974
226.500000 1648.441642 1651.409148 1656.325537 1656.041260 1660.243788 1662.417535
226.620000 1648.983851 1652.156489 1657.204158 1656.763597 1660.995157 1663.118906
226.740000 1649.571521 1652.808042 1657.890833 1657.451825 1661.662210 1663.871312
226.878462 1650.406428 1653.671406 1658.583594 1658.174911 1662.363858 1664.463300
227.016923 1651.256103 1654.568264 1659.251142 1658.906730 1663.120541 1665.211186
227.155385 1651.879060 1655.374308 1659.933753 1659.599508 1663.696648 1665.627214
227.293846 1652.646800 1656.128508 1660.681437 1660.292474 1664.217051 1666.294563
227.432308 1653.754496 1656.805092 1661.253302 1660.943771 1664.785550 1666.815296
227.570769 1654.657455 1657.621415 1661.946495 1661.627706 1665.294115 1667.386950
227.709231 1655.342075 1658.458170 1662.661021 1662.326434 1665.876720 1668.007422
227.847692 1656.296754 1659.302491 1663.361861 1663.003567 1666.456936 1668.564431
227.986154 1657.233374 1659.988300 1663.991280 1663.672785 1666.950334 1669.147528
228.124615 1658.197696 1660.806096 1664.687299 1664.349174 1667.488154 1669.728431
228.263077 1658.780126 1661.573412 1665.372820 1665.032642 1668.215155 1670.159627
228.401538 1659.718309 1662.275785 1666.086360 1665.718330 1668.735790 1670.820097
228.540000 1660.508234 1662.952528 1666.675577 1666.375966 1669.332785 1671.821376
228.640000 1661.088338 1663.489163 1667.203920 1666.879917 1669.856771 1672.219559
228.740000 1661.538379 1664.061744 1667.795447 1667.411528 1670.333416 1672.729152
228.840000 1662.035830 1664.680845 1668.240401 1667.932198 1670.793870 1673.359977
228.940000 1662.442373 1665.244633 1668.712338 1668.457254 1671.219718 1673.809516
229.040000 1662.996555 1665.798259 1669.199299 1669.008266 1671.752179 1674.361438
229.140000 1663.498498 1666.463837 1669.733230 1669.528940 1672.226719 1674.879125
229.240000 1664.023249 1667.114123 1670.222838 1670.072047 1672.717606 1675.467484
229.340000 1664.654869 1667.953688 1670.861545 1670.663930 1673.278175 1675.872552
229.440000 1665.299906 1668.586905 1671.359548 1671.215310 1673.753446 1676.382358
229.560000 1666.001350 1669.285517 1671.965020 1671.860305 1674.376429 1677.012047
229.680000 1666.745058 1670.094730 1672.624769 1672.523540 1675.104157 1677.563948
