depth(m) lower_95(kyr) lower_68(kyr) median(kyr) mean(kyr) upper_68(kyr) upper_95(kyr)
41.950000 1484.123384 1490.335539 1495.517797 1494.635946 1498.696101 1501.043916
42.050000 1488.413942 1494.442448 1498.490623 1497.901192 1501.274322 1503.648966
42.150000 1493.607493 1498.420105 1501.736342 1501.339981 1504.356178 1506.697372
42.250000 1499.879167 1502.758712 1505.893009 1505.691988 1508.535687 1510.570866
42.320000 1504.230185 1506.928930 1509.909309 1509.690322 1512.229623 1514.209045
42.380000 1509.107719 1511.375759 1513.855881 1513.713656 1515.932912 1518.159168
42.440000 1512.306581 1514.378641 1516.702987 1516.648759 1518.853528 1521.217454
42.510000 1515.390724 1517.371248 1519.433161 1519.541553 1521.784847 1524.163724
42.610000 1518.902951 1520.866112 1523.100010 1523.120550 1525.437954 1527.606444
42.710000 1522.664290 1524.216902 1526.392997 1526.364730 1528.454157 1530.382158
42.850000 1527.017127 1529.040989 1530.700451 1530.771285 1532.563503 1534.278445
42.925000 1529.362625 1531.228166 1533.159802 1533.107099 1535.055762 1536.580611
43.000000 1531.561028 1533.537731 1535.370021 1535.279334 1537.002366 1538.462640
43.130000 1535.097042 1536.949331 1538.713313 1538.647962 1540.255595 1541.666505
43.140000 1535.382007 1537.329754 1539.010266 1538.925534 1540.513138 1541.915305
43.240000 1538.026777 1539.989117 1541.598427 1541.537905 1543.131037 1544.587148
43.320000 1541.455370 1542.816119 1544.420317 1544.465464 1546.072062 1547.646745
43.390000 1544.098396 1545.582526 1547.326801 1547.323626 1548.940954 1550.948132
43.460000 1547.377123 1549.234847 1551.081679 1551.264577 1553.371514 1556.031789
43.520000 1550.057265 1551.764606 1554.192972 1554.303325 1556.796099 1559.519840
43.605000 1553.000014 1555.562625 1558.033292 1557.993274 1560.505755 1562.230842
43.690000 1556.704938 1559.295297 1561.368868 1561.304329 1563.385009 1565.039838
43.820000 1561.317038 1563.258479 1565.360344 1565.233926 1567.084643 1568.884679
43.895000 1563.967802 1565.983690 1567.926749 1568.038448 1570.068321 1573.268515
43.970000 1566.826355 1568.811423 1570.668357 1570.877230 1572.978010 1576.504211
44.100000 1570.691168 1573.029280 1575.478058 1575.619168 1578.195910 1581.129418
44.200000 1574.240225 1576.956608 1579.227812 1579.523221 1582.222297 1585.438526
44.280000 1578.084951 1580.568195 1583.077091 1583.328568 1586.101355 1590.019648
44.350000 1581.837201 1584.313799 1586.922825 1587.180732 1590.146762 1593.554186
44.430000 1585.382376 1587.763337 1590.693191 1590.799813 1593.850320 1596.426183
44.520000 1589.073342 1591.540964 1594.292934 1594.210893 1596.953190 1598.924331
44.620000 1592.396774 1595.265201 1597.633137 1597.521203 1599.761966 1601.356180
44.730000 1596.016855 1598.421839 1600.473796 1600.322846 1602.165789 1603.752634
44.830000 1598.791642 1600.701514 1602.577834 1602.547383 1604.318464 1606.111217
44.940000 1601.300480 1603.136743 1605.069708 1605.118729 1606.849254 1609.845524
45.060000 1604.630824 1606.491759 1608.512505 1609.024062 1611.337491 1617.307042
45.190000 1607.870448 1610.224997 1613.024532 1613.791401 1617.858582 1622.398801
45.265000 1609.911218 1612.555763 1615.795840 1616.690962 1621.659187 1625.424149
45.340000 1612.331143 1615.302713 1618.696628 1619.596809 1624.893930 1628.246438
45.455000 1615.753789 1619.364293 1623.830990 1623.959416 1628.800598 1632.183182
45.570000 1619.734687 1623.400786 1628.814814 1628.291924 1632.582391 1636.191672
45.650000 1622.467189 1626.622849 1631.851753 1631.343532 1635.575417 1638.908527
45.740000 1626.334223 1631.108120 1635.460429 1635.171090 1639.367903 1642.283628
45.830000 1630.904221 1636.018802 1639.844109 1639.538869 1643.275283 1645.934857
45.920000 1636.699654 1640.445379 1643.955343 1643.716682 1646.903400 1649.402414
46.040000 1643.031141 1645.849293 1648.554414 1648.417436 1651.088368 1653.480550
46.150000 1646.930790 1649.592185 1651.983332 1651.969114 1654.462218 1656.745532
46.260000 1650.267212 1652.679504 1655.405593 1655.385838 1658.028389 1660.449876
46.350000 1653.116842 1655.568292 1658.497061 1658.352426 1661.115848 1663.374558
46.430000 1655.586289 1658.321969 1661.329909 1661.112151 1663.812257 1665.621964
46.500000 1658.217914 1661.293057 1664.136566 1663.857037 1666.254218 1668.190015
46.570000 1661.723611 1664.921352 1667.268494 1667.130127 1669.310818 1671.401817
46.640000 1666.455281 1668.721929 1670.858088 1670.844983 1672.990182 1675.219811
46.730000 1670.652506 1672.687109 1674.871134 1674.991108 1677.278179 1680.277560
46.850000 1674.542718 1676.681913 1678.964760 1679.140480 1681.799682 1684.446015
46.925000 1676.919117 1678.879797 1681.453253 1681.617692 1684.380047 1686.985644
47.000000 1679.342000 1681.341242 1683.798301 1683.997513 1686.658913 1689.147728
47.140000 1683.456173 1685.767199 1688.199787 1688.271756 1690.757546 1692.941668
47.250000 1686.824449 1688.911443 1691.640207 1691.547722 1693.978147 1696.380063
47.330000 1689.205028 1691.767423 1694.368594 1694.245626 1696.661035 1698.814318
47.380000 1691.322600 1693.886404 1696.534249 1696.278948 1698.585528 1700.593872
47.430000 1693.917391 1696.545246 1698.825745 1698.698033 1700.843894 1702.721371
47.510000 1697.929366 1700.359779 1702.181782 1702.076074 1703.921056 1705.642250
47.600000 1701.824132 1703.955432 1705.989091 1705.868899 1707.709084 1709.297924
47.620000 1702.981782 1705.093933 1707.111092 1707.004044 1708.833314 1710.777581
47.690000 1707.343908 1709.190385 1711.073822 1711.168851 1713.153101 1715.632785
47.700000 1707.805932 1709.801028 1711.761654 1711.836666 1713.886119 1716.257123
47.760000 1710.953120 1713.382180 1715.725494 1715.719226 1717.985054 1720.621754
47.830000 1714.352298 1716.840144 1719.351413 1719.438129 1722.052336 1725.311833
47.920000 1718.176419 1720.666231 1723.383628 1723.595040 1726.578902 1729.996233
48.030000 1721.993215 1724.620045 1727.687181 1727.797541 1730.946667 1734.731331
48.170000 1726.876710 1729.479737 1732.458049 1732.930853 1736.342495 1741.688196
48.290000 1731.363998 1733.992410 1737.330718 1737.864086 1741.707217 1747.220979
48.390000 1734.600983 1737.950925 1741.830963 1742.427055 1747.301967 1752.285573
48.470000 1737.525757 1741.512814 1746.403560 1746.499168 1751.657344 1755.480564
48.540000 1741.082472 1745.893556 1750.649033 1750.423331 1755.125344 1758.229241
48.630000 1745.577531 1751.405306 1755.474274 1755.069376 1758.872924 1761.784342
48.710000 1751.343669 1755.544726 1758.751722 1758.662042 1761.899231 1764.851757
48.803000 1756.410726 1759.275265 1762.328050 1762.274424 1765.273932 1767.895283
48.820000 1757.170216 1760.005446 1762.956588 1762.976524 1765.953242 1768.488210
48.920000 1760.644369 1763.356916 1766.072728 1766.138831 1768.976670 1771.419248
49.020000 1763.764956 1766.536908 1769.153553 1769.113298 1771.816493 1774.017306
49.120000 1766.482145 1769.504555 1772.129864 1772.040548 1774.687761 1776.848056
49.210000 1769.750764 1772.421773 1775.163507 1775.041425 1777.554426 1779.682024
49.300000 1773.334453 1776.119829 1778.768967 1778.595827 1781.025944 1783.147941
49.410000 1776.899165 1779.834389 1782.334480 1782.116244 1784.390455 1786.207370
49.520000 1780.077759 1782.769448 1785.059852 1784.853076 1787.007810 1788.355877
49.630000 1783.302273 1785.706730 1787.823859 1787.590535 1789.477636 1790.590105
49.725000 1786.565360 1788.625311 1790.323061 1790.143352 1791.665728 1792.730244
49.820000 1791.179090 1792.110050 1792.995996 1793.024283 1793.932119 1794.879374
49.910000 1793.454794 1794.531399 1795.993344 1796.465975 1798.068025 1803.244087
50.000000 1795.855139 1797.466839 1799.395701 1800.100870 1802.734208 1808.271737
50.100000 1799.333858 1801.487012 1804.428569 1805.039729 1808.716982 1813.630762
50.200000 1802.743757 1805.253400 1809.144112 1809.442172 1813.482384 1817.917255
50.310000 1806.449066 1809.369239 1813.762209 1813.987540 1818.718912 1823.097751
50.410000 1809.537516 1812.989361 1818.066879 1818.055380 1823.166432 1827.464032
50.510000 1812.798347 1817.036968 1822.520247 1822.155327 1827.219427 1830.471267
50.600000 1816.207607 1820.924267 1826.214860 1825.733630 1830.158996 1833.149883
50.700000 1820.532602 1825.772934 1830.078045 1829.557607 1833.391657 1835.624134
50.810000 1826.021150 1830.648435 1833.669752 1833.438827 1836.566516 1838.411277
50.910000 1830.701127 1834.517101 1837.156322 1836.863910 1839.317307 1841.052711
51.020000 1836.153669 1838.269153 1840.374121 1840.065668 1841.747483 1842.949231
51.070000 1838.054374 1840.002435 1841.507326 1841.348307 1842.705015 1843.781017
51.200000 1842.046518 1842.893752 1843.750144 1843.750622 1844.624643 1845.546086
51.330000 1843.690454 1844.630114 1845.619839 1845.762285 1846.840366 1848.697451
51.460000 1845.184327 1846.316130 1847.508204 1847.817513 1849.443934 1851.701875
51.590000 1846.980519 1848.258933 1849.897216 1850.388705 1852.795866 1856.153662
51.695000 1848.591310 1850.306398 1852.826240 1853.142894 1856.015646 1859.745720
51.800000 1850.667818 1853.153562 1856.135815 1856.386754 1859.758091 1862.974383
51.880000 1852.823680 1855.782217 1859.228079 1859.364448 1862.948661 1866.516758
51.970000 1856.155211 1859.450891 1863.669300 1863.473261 1867.401917 1869.721309
52.100000 1864.563371 1868.698578 1871.333752 1870.858356 1872.960977 1874.241436
52.170000 1873.022231 1873.953607 1874.851051 1874.866340 1875.822034 1876.726550
52.250000 1875.582661 1876.686225 1877.928235 1878.190996 1879.644476 1882.554657
52.340000 1877.991912 1879.087360 1880.673818 1881.118203 1883.398852 1886.492866
52.440000 1880.129597 1881.507467 1883.353189 1883.738095 1886.044830 1888.944318
52.560000 1882.741452 1884.192947 1886.452087 1886.645088 1889.099481 1891.736154
52.640000 1884.223752 1885.965454 1888.325813 1888.463363 1891.022080 1893.446642
52.720000 1885.893404 1887.735485 1890.165297 1890.263994 1892.870113 1895.083989
52.800000 1887.611777 1889.399017 1891.917482 1891.973251 1894.552629 1896.811881
52.880000 1889.176224 1891.161157 1893.576972 1893.621663 1896.182198 1898.447112
52.955000 1890.475340 1892.702261 1895.178426 1895.165667 1897.666075 1899.838365
53.030000 1892.011693 1894.348418 1896.775134 1896.785151 1899.252989 1901.419907
53.150000 1894.492449 1896.836034 1899.444148 1899.474765 1902.150693 1904.623975
53.260000 1896.986296 1899.756102 1902.818119 1902.848292 1905.894106 1908.696534
53.350000 1899.591107 1903.811794 1907.103401 1906.804389 1909.729248 1911.671984
53.430000 1906.676038 1909.090974 1911.215318 1911.071365 1913.075825 1914.419662
53.500000 1910.526798 1912.530047 1913.874575 1913.763447 1915.088963 1916.092054
53.580000 1914.164172 1915.104134 1915.966284 1915.955004 1916.807393 1917.663913
53.650000 1915.395936 1916.279766 1917.143514 1917.174452 1918.079965 1919.232013
53.720000 1916.446110 1917.280897 1918.263441 1918.337294 1919.400967 1920.704444
53.730000 1916.694322 1917.425779 1918.467080 1918.533405 1919.639215 1920.996325
53.800000 1917.680286 1918.542253 1919.748192 1919.885333 1921.322892 1922.508091
53.890000 1918.889758 1920.091448 1921.615697 1921.691778 1923.326117 1924.931258
53.970000 1920.289998 1921.591008 1923.540271 1923.612055 1925.424612 1927.622546
54.060000 1921.988465 1923.546297 1925.623539 1925.733407 1927.933004 1930.050534
54.150000 1923.548968 1925.667375 1927.753465 1927.907423 1930.269415 1932.542974
54.240000 1925.383966 1927.553515 1930.094520 1930.136381 1932.709554 1935.197430
54.343333 1927.551300 1930.066512 1932.940355 1932.971662 1935.795944 1938.876700
54.446667 1929.968468 1932.578526 1935.822429 1935.876368 1939.130546 1941.806420
54.550000 1932.987132 1935.571778 1938.841198 1938.875921 1942.140747 1944.994128
54.656667 1935.814176 1938.946212 1942.145887 1942.086198 1945.208836 1948.029261
54.763333 1939.392455 1942.482858 1945.115757 1945.182709 1948.028394 1950.591026
54.870000 1943.213339 1945.684929 1947.971350 1948.057797 1950.504504 1953.151914
54.980000 1945.945524 1948.270635 1950.448461 1950.523642 1952.825999 1955.094463
55.080000 1948.066352 1950.374454 1952.479012 1952.500118 1954.807237 1956.932247
55.180000 1949.883203 1952.124397 1954.400090 1954.399384 1956.679376 1958.954101
55.290000 1951.814643 1954.179061 1956.478595 1956.550113 1959.015984 1961.166898
55.400000 1953.932173 1956.171802 1958.736857 1958.706548 1961.302711 1963.641696
55.510000 1955.911579 1958.306958 1961.013122 1961.055185 1963.780097 1966.224742
55.630000 1958.845059 1961.373332 1964.198932 1964.175340 1966.945668 1969.327798
55.735000 1961.740888 1964.540411 1967.236362 1967.099376 1969.726990 1971.716786
55.840000 1964.802794 1967.601556 1970.117805 1969.909800 1972.060675 1973.851158
55.950000 1968.331650 1970.797731 1972.656361 1972.542105 1974.280817 1976.078226
56.050000 1971.342134 1973.076645 1974.737647 1974.698761 1976.346710 1978.050547
56.150000 1973.422334 1974.904159 1976.384470 1976.519600 1978.213457 1980.170125
56.260000 1975.112593 1976.493631 1978.091888 1978.277483 1980.105593 1982.280309
56.370000 1976.733967 1978.022432 1979.734826 1979.965893 1981.980702 1984.353802
56.490000 1978.180012 1979.762729 1981.671255 1981.836924 1983.971056 1986.247967
56.620000 1980.039865 1981.701035 1984.031331 1984.060765 1986.382859 1988.524530
56.730000 1981.757710 1983.840349 1986.495155 1986.464313 1988.951257 1991.212276
56.840000 1984.745647 1987.410024 1989.975739 1989.923247 1992.269712 1994.849894
56.940000 1987.496455 1990.635224 1993.019012 1992.915290 1995.127819 1997.782247
57.030000 1992.465010 1994.577125 1996.398519 1996.566033 1998.493902 2001.499710
57.120000 1996.207919 1997.879394 1999.750242 1999.942129 2002.039616 2005.121385
57.200000 1998.602558 2000.314543 2002.328643 2002.729396 2005.271960 2008.882561
57.290000 2000.726383 2002.883073 2005.217225 2005.581807 2008.469452 2011.373035
57.390000 2003.412997 2005.796724 2008.750167 2008.824148 2011.993177 2014.095210
57.490000 2006.241001 2008.744712 2011.888563 2011.769340 2014.672964 2016.664033
57.590000 2009.375585 2011.744459 2014.536910 2014.345889 2016.772588 2018.579622
57.700000 2012.396003 2014.957540 2017.308773 2017.052703 2019.092993 2020.592413
57.820000 2015.784015 2018.158989 2020.182366 2019.995330 2021.731272 2023.190938
57.920000 2018.456123 2020.403562 2022.108743 2021.991106 2023.558636 2024.938786
58.030000 2020.801015 2022.543408 2023.913204 2023.908613 2025.319854 2026.775186
58.125000 2022.488369 2023.958760 2025.318460 2025.336032 2026.738891 2028.057848
58.220000 2024.178960 2025.443050 2026.701120 2026.764884 2028.106432 2029.331157
58.300000 2025.626119 2026.760490 2028.084602 2028.139788 2029.479924 2030.882287
58.310000 2025.847439 2026.974580 2028.277089 2028.348496 2029.668430 2031.099195
58.390000 2027.319872 2028.700059 2030.281880 2030.404895 2032.015949 2034.495691
58.480000 2029.315471 2031.248552 2033.372168 2033.622841 2035.989419 2039.032797
58.570000 2032.071043 2034.269703 2036.874994 2037.064531 2039.896636 2042.646256
58.670000 2034.865267 2037.138666 2040.240431 2040.185424 2042.990322 2045.926460
58.770000 2037.670464 2039.834527 2042.611805 2042.664383 2045.383185 2048.094775
58.880000 2039.952189 2042.197516 2044.961087 2044.988378 2047.709998 2050.325456
59.000000 2042.194039 2044.590949 2047.228734 2047.357756 2050.050196 2052.554592
59.120000 2044.283979 2046.797475 2049.623867 2049.657024 2052.524565 2055.050760
59.230000 2046.169883 2048.821771 2051.859121 2051.807154 2054.712947 2057.071964
59.340000 2048.521904 2051.134870 2054.158949 2054.047632 2056.745366 2058.850918
59.440000 2050.252360 2053.462298 2056.349397 2056.137313 2058.750216 2060.527815
59.530000 2052.698611 2055.678797 2058.343171 2058.072686 2060.452077 2062.032538
59.620000 2055.502132 2057.927687 2060.268603 2060.056770 2062.117361 2063.558451
59.710000 2058.128663 2060.321394 2062.255132 2062.112576 2063.937793 2065.382908
59.810000 2061.083769 2062.850150 2064.432342 2064.387215 2065.912626 2067.280137
59.840000 2062.389164 2063.790570 2065.301492 2065.239526 2066.677343 2068.088564
59.910000 2064.208147 2065.581122 2066.890732 2066.921530 2068.289463 2069.786547
59.950000 2065.091919 2066.503902 2067.791480 2067.815795 2069.179875 2070.641744
60.020000 2066.360024 2067.787619 2069.161306 2069.234660 2070.732252 2072.320854
60.060000 2067.080862 2068.463500 2069.977196 2070.050369 2071.749306 2073.379362
60.170000 2068.971603 2070.165228 2071.902095 2072.109637 2074.127002 2076.266418
60.300000 2071.040654 2072.249486 2074.343714 2074.711954 2077.242369 2079.943795
60.420000 2072.984641 2074.742153 2077.699269 2077.725671 2080.537300 2083.330719
60.520000 2074.949145 2077.571939 2080.798264 2080.742476 2083.768108 2086.813307
60.610000 2077.480952 2080.983323 2084.464370 2084.565912 2087.856326 2092.270857
60.700000 2083.160686 2086.775354 2090.403077 2090.625435 2094.481550 2099.232418
60.790000 2089.331988 2093.367762 2097.707867 2098.082471 2103.181648 2108.431580
60.900000 2097.715739 2102.940113 2107.892814 2108.189308 2114.297167 2118.937832
