depth(m) lower_95(kyr) lower_68(kyr) median(kyr) mean(kyr) upper_68(kyr) upper_95(kyr)
139.710000 1399.531987 1400.430890 1401.305397 1401.299927 1402.168073 1402.952806
139.830000 1400.560813 1401.505791 1402.443429 1402.450118 1403.385391 1404.311227
139.950000 1401.554833 1402.627978 1403.606793 1403.629674 1404.641557 1405.757036
140.070000 1402.563097 1403.732366 1404.824644 1404.868941 1405.958819 1407.470261
140.190000 1403.834137 1404.930056 1406.061400 1406.099366 1407.245888 1408.758854
140.315000 1405.010619 1406.089908 1407.245368 1407.337097 1408.602686 1410.149243
140.440000 1406.105343 1407.114700 1408.396996 1408.493469 1409.844148 1411.357093
140.565000 1406.986839 1408.119339 1409.522511 1409.552424 1410.994270 1412.600623
140.690000 1407.917933 1409.062448 1410.516587 1410.546541 1412.014451 1413.555085
140.830000 1408.818188 1410.114733 1411.643800 1411.619094 1413.058089 1414.532679
140.970000 1409.846120 1411.260092 1412.740439 1412.738599 1414.192612 1415.783388
141.090000 1410.749751 1412.169675 1413.709435 1413.681354 1415.099824 1416.798718
141.210000 1411.519658 1413.237090 1414.644314 1414.666147 1416.078288 1417.815597
141.330000 1412.756259 1414.309254 1415.684809 1415.737470 1417.290748 1418.928908
141.450000 1413.848722 1415.330616 1416.781408 1416.838059 1418.426277 1420.021865
141.570000 1414.716130 1416.307078 1417.909324 1417.923935 1419.546821 1421.125089
141.690000 1415.850771 1417.355377 1418.939898 1418.977294 1420.676317 1422.073350
141.815000 1416.939494 1418.478199 1420.063565 1420.070237 1421.693658 1423.081390
141.940000 1418.156137 1419.626676 1421.224885 1421.158326 1422.681854 1424.076076
142.050000 1419.017705 1420.618244 1422.172764 1422.118225 1423.561431 1424.971229
142.160000 1420.051028 1421.661094 1423.153715 1423.075726 1424.443938 1425.710307
142.263333 1421.007094 1422.619585 1424.039671 1423.980996 1425.376508 1426.524787
142.366667 1421.994944 1423.594660 1424.931739 1424.880046 1426.218688 1427.371681
142.470000 1423.222047 1424.499706 1425.769436 1425.769651 1427.064828 1428.216779
142.590000 1424.426228 1425.507743 1426.718447 1426.780951 1428.050600 1429.244955
142.710000 1425.460290 1426.573909 1427.736757 1427.803953 1429.056750 1430.612180
142.830000 1426.275610 1427.470169 1428.741862 1428.777900 1430.066558 1431.819655
142.950000 1427.265779 1428.417722 1429.662702 1429.745215 1431.080699 1432.904876
143.070000 1428.022657 1429.223485 1430.584641 1430.726015 1432.094561 1434.399158
143.190000 1428.871191 1430.137198 1431.532999 1431.686304 1433.108248 1435.676049
143.315000 1429.684540 1431.049147 1432.493010 1432.623899 1434.178491 1436.671320
143.440000 1430.618242 1431.914941 1433.439362 1433.563256 1435.197865 1437.597055
143.565000 1431.429628 1432.809490 1434.350187 1434.517411 1436.249087 1438.514195
143.690000 1432.130131 1433.666841 1435.250165 1435.471454 1437.330629 1439.680369
143.780000 1432.722589 1434.429129 1435.910004 1436.178827 1438.138506 1440.438826
143.875000 1433.383463 1435.091999 1436.640982 1436.930823 1438.949448 1441.120466
143.970000 1433.946983 1435.856096 1437.442376 1437.697957 1439.778807 1441.926634
144.010000 1434.221068 1436.160045 1437.774860 1438.032348 1440.118476 1442.244911
144.110000 1434.930107 1436.892875 1438.584937 1438.809236 1440.988202 1442.964430
144.210000 1435.655960 1437.661376 1439.413476 1439.586379 1441.931263 1443.711825
144.280000 1436.108793 1438.190831 1439.957613 1440.148591 1442.517936 1444.193918
144.365000 1436.650496 1438.851913 1440.643951 1440.815614 1443.162728 1444.763300
144.450000 1437.442626 1439.464893 1441.265912 1441.488470 1443.821437 1445.299966
144.520000 1438.039640 1440.012022 1441.903001 1442.060343 1444.426243 1445.844608
144.650000 1438.862678 1441.051557 1442.999798 1443.090212 1445.348241 1446.826068
144.780000 1439.974773 1442.097916 1444.095596 1444.112359 1446.320552 1447.749112
144.905000 1441.189455 1443.103169 1445.145664 1445.129956 1447.220050 1448.475411
145.030000 1442.308114 1444.241830 1446.323837 1446.173035 1448.139789 1449.355323
145.155000 1443.692134 1445.529608 1447.488191 1447.293039 1449.085479 1450.137209
145.280000 1445.015898 1447.008354 1448.685860 1448.475890 1449.987420 1451.019472
145.400000 1446.453061 1448.317865 1449.926584 1449.729342 1451.042206 1452.138878
145.520000 1448.293154 1449.976665 1451.282803 1451.239357 1452.521183 1453.709254
145.640000 1451.065156 1452.319820 1453.631014 1453.724258 1455.060552 1457.125007
145.780000 1452.773035 1453.977200 1455.339547 1455.437581 1456.963775 1458.861594
145.880000 1453.961972 1455.099581 1456.563798 1456.682493 1458.246626 1459.941419
146.020000 1455.209770 1456.488240 1458.185002 1458.187766 1459.894872 1461.332542
146.120000 1456.002569 1457.460354 1459.291721 1459.284379 1461.096085 1462.456675
146.200000 1456.541023 1458.260732 1460.248182 1460.145536 1461.948905 1463.549528
146.280000 1457.296157 1459.115784 1461.165013 1461.052611 1462.871070 1464.370641
146.370000 1458.168699 1460.186710 1462.229117 1462.138849 1464.021541 1465.701923
146.480000 1459.272374 1461.443255 1463.482438 1463.417479 1465.420484 1466.944846
146.590000 1460.198833 1462.670041 1464.857765 1464.725664 1466.799562 1468.546496
146.693333 1461.069816 1463.475302 1465.840429 1465.790260 1468.023100 1469.982174
146.796667 1462.122678 1464.509482 1466.933311 1466.865191 1469.107744 1471.256210
146.900000 1463.237263 1465.693883 1468.059981 1468.063196 1470.486069 1472.730844
147.020000 1465.485868 1467.857238 1470.109849 1470.173951 1472.595143 1474.753724
147.140000 1467.767994 1470.192173 1472.305001 1472.349638 1474.614792 1476.859030
147.260000 1469.534513 1471.880798 1473.990138 1473.984379 1476.277051 1478.410304
147.380000 1471.285758 1473.400677 1475.524521 1475.547436 1477.775628 1479.899156
147.500000 1472.652809 1474.656787 1476.852998 1476.941500 1479.246204 1481.308876
147.620000 1474.140865 1476.027307 1478.186222 1478.227463 1480.579210 1482.515216
147.745000 1475.258983 1477.288397 1479.512592 1479.511846 1481.788607 1483.877984
147.870000 1476.243750 1478.546012 1480.774904 1480.783934 1483.100427 1484.885303
148.010000 1477.905123 1479.881771 1482.205240 1482.151327 1484.415056 1486.075150
148.120000 1478.968688 1481.037649 1483.336858 1483.219493 1485.391305 1487.023832
148.260000 1480.402188 1482.587359 1484.799324 1484.599622 1486.674190 1488.252139
148.400000 1482.098003 1484.088819 1486.148740 1485.992644 1487.911000 1489.291412
148.510000 1483.387613 1485.259549 1487.272406 1487.124315 1488.887728 1490.208824
148.635000 1485.104099 1486.832727 1488.605208 1488.499560 1490.099382 1491.276462
148.760000 1487.066942 1488.697737 1490.193629 1490.085317 1491.503348 1492.462035
148.880000 1490.922346 1492.014803 1492.961320 1493.002822 1493.959024 1495.276250
149.010000 1492.961841 1493.988159 1495.037130 1495.136298 1496.283648 1497.853651
149.135000 1494.094650 1495.129432 1496.392642 1496.471063 1497.797259 1499.409666
149.260000 1495.038330 1496.223333 1497.636380 1497.670469 1499.180233 1500.726124
149.385000 1496.061411 1497.298718 1498.700818 1498.768398 1500.308654 1501.908784
149.510000 1496.898631 1498.267150 1499.749990 1499.838792 1501.425164 1502.993485
149.635000 1497.919406 1499.245009 1500.910606 1500.920014 1502.580797 1504.257785
149.760000 1498.778116 1500.220408 1502.030653 1501.964244 1503.695889 1505.175806
149.885000 1499.881194 1501.317419 1503.130168 1503.046795 1504.841118 1506.212231
150.010000 1500.755783 1502.418579 1504.245257 1504.149269 1505.869140 1507.201207
150.135000 1501.826433 1503.499098 1505.371454 1505.298899 1506.967352 1508.294045
150.260000 1503.132807 1504.739671 1506.534102 1506.447922 1508.102632 1509.405824
150.380000 1504.292809 1505.955556 1507.654402 1507.587416 1509.189824 1510.585775
150.510000 1505.563886 1507.260127 1508.853113 1508.813940 1510.349325 1512.046260
150.650000 1506.712152 1508.500212 1510.197587 1510.235511 1512.023170 1513.948065
150.790000 1508.449841 1509.995332 1511.589169 1511.745240 1513.502658 1516.047613
150.915000 1509.726604 1511.319379 1513.057326 1513.220164 1515.189176 1517.674636
151.040000 1511.085620 1512.659496 1514.655824 1514.746059 1516.883797 1519.138356
151.165000 1512.462431 1513.993764 1516.228376 1516.293061 1518.583732 1520.739750
151.290000 1513.648983 1515.424219 1517.873452 1517.816604 1520.085122 1522.210059
151.415000 1514.898451 1516.930096 1519.441768 1519.334436 1521.671177 1523.814251
151.540000 1516.298109 1518.360150 1520.863722 1520.831383 1523.229086 1525.170656
151.665000 1517.639049 1520.166637 1522.478090 1522.421935 1524.732473 1526.684723
151.790000 1519.364608 1521.939596 1524.177513 1524.092909 1526.344231 1528.227663
151.915000 1521.478269 1523.900762 1526.098148 1525.989754 1528.157360 1530.119404
152.040000 1523.473683 1525.984185 1528.009271 1527.900677 1529.834221 1531.945427
152.165000 1525.731218 1527.784762 1530.067973 1529.915580 1531.872790 1533.722148
152.290000 1527.738812 1529.785946 1532.066020 1531.834228 1533.694461 1535.239453
152.415000 1529.146785 1531.166876 1533.325851 1533.178632 1534.998090 1536.699556
152.540000 1530.460584 1532.561403 1534.492133 1534.409115 1536.119641 1537.758025
152.665000 1531.578636 1533.740047 1535.612979 1535.538820 1537.304037 1538.945988
152.790000 1532.626580 1534.880160 1536.747488 1536.648885 1538.391765 1540.089828
152.915000 1533.791000 1536.035558 1537.822965 1537.725055 1539.462722 1541.082069
153.040000 1534.937652 1537.189922 1538.900354 1538.770893 1540.436727 1542.136560
153.165000 1536.076835 1538.239236 1539.880137 1539.804600 1541.387522 1542.990185
153.290000 1537.301973 1539.352368 1540.861591 1540.821170 1542.388151 1544.097465
153.415000 1538.446954 1540.362448 1541.933585 1541.891037 1543.359737 1545.144888
153.540000 1539.698678 1541.455977 1542.999557 1543.018764 1544.515683 1546.498551
153.665000 1540.877423 1542.605652 1544.105014 1544.203446 1545.748007 1548.053965
153.790000 1542.110072 1543.712299 1545.250784 1545.385681 1547.025148 1549.395230
153.915000 1543.325385 1544.895153 1546.499404 1546.701578 1548.615743 1550.997617
154.040000 1544.624153 1546.065613 1547.846104 1548.048049 1550.140494 1552.558736
154.165000 1545.643326 1547.245693 1549.059580 1549.391302 1551.688147 1554.152123
154.290000 1546.684368 1548.361094 1550.359223 1550.654989 1553.019479 1555.996671
154.415000 1547.580800 1549.615798 1551.901914 1552.018068 1554.414945 1557.392824
154.540000 1548.712578 1550.744957 1553.297417 1553.364857 1555.900406 1558.715518
154.665000 1549.627294 1552.020812 1554.586795 1554.667384 1557.392511 1559.825785
154.790000 1550.867247 1553.236974 1555.883077 1555.907098 1558.614837 1560.928343
154.915000 1551.857292 1554.460675 1557.222218 1557.115047 1559.680632 1562.038444
155.040000 1552.883644 1555.606610 1558.408171 1558.268503 1560.849255 1563.146953
155.165000 1554.042604 1556.869344 1559.631173 1559.473830 1562.046778 1564.129792
155.290000 1555.153490 1558.134518 1560.842940 1560.709901 1563.260897 1564.964840
155.425000 1556.665844 1559.532602 1562.293887 1562.017144 1564.473166 1566.078855
155.560000 1558.115840 1560.921123 1563.523703 1563.264007 1565.589236 1567.008136
155.675000 1559.395076 1562.085474 1564.603357 1564.324931 1566.484014 1567.825850
155.790000 1560.776293 1563.355635 1565.619469 1565.416520 1567.418336 1568.792971
155.820000 1561.115731 1563.652567 1565.970885 1565.727776 1567.711921 1569.112708
155.930000 1562.309019 1565.047832 1567.198595 1566.894156 1568.768490 1570.041050
156.040000 1563.654641 1566.275800 1568.311221 1568.073156 1569.790897 1571.266685
156.143333 1565.089321 1567.565967 1569.293490 1569.181454 1570.879044 1572.353932
156.246667 1566.710723 1568.826507 1570.379464 1570.313273 1571.829335 1573.311199
156.350000 1567.835323 1569.935299 1571.351813 1571.327968 1572.849728 1574.156469
156.470000 1569.416340 1570.979224 1572.402253 1572.387040 1573.831774 1575.324478
156.590000 1570.475585 1571.898929 1573.369003 1573.371794 1574.812443 1576.378307
156.710000 1571.358545 1572.860211 1574.283121 1574.313370 1575.817302 1577.302191
156.830000 1572.201942 1573.691361 1575.211397 1575.215733 1576.761306 1578.113063
156.950000 1572.941742 1574.544762 1576.116593 1576.115807 1577.716316 1579.102918
157.070000 1574.008717 1575.421805 1577.020477 1577.017495 1578.634235 1580.072583
157.195000 1574.900692 1576.337293 1577.921316 1577.957237 1579.569630 1581.528769
157.320000 1575.855530 1577.249666 1578.870969 1578.926006 1580.513897 1582.635880
157.445000 1576.799599 1578.246504 1579.832982 1579.962981 1581.671496 1584.085816
157.570000 1577.898944 1579.273199 1580.813357 1581.015517 1582.804300 1585.286352
157.710000 1578.918844 1580.258411 1581.916875 1582.151871 1584.163996 1586.637033
157.850000 1579.801836 1581.311324 1583.043663 1583.361488 1585.627082 1588.042926
157.970000 1580.772928 1582.260728 1584.167073 1584.455777 1586.780339 1589.670422
158.090000 1581.794534 1583.318190 1585.354089 1585.629709 1588.055465 1590.663363
158.210000 1582.779419 1584.404205 1586.462521 1586.777505 1589.237332 1592.108343
158.330000 1583.632888 1585.516943 1587.728729 1587.940251 1590.492869 1593.700862
158.450000 1584.644830 1586.494483 1588.926756 1589.106530 1591.703836 1594.591739
158.570000 1585.481828 1587.589859 1590.220509 1590.279623 1592.868757 1595.941625
158.695000 1586.504013 1588.852556 1591.485455 1591.560043 1594.242752 1597.047024
158.820000 1587.566010 1590.302383 1592.895035 1592.908303 1595.625186 1598.219951
158.945000 1588.749617 1591.590143 1594.184960 1594.204888 1596.788378 1599.336517
159.070000 1590.014817 1592.866541 1595.465359 1595.456609 1598.015986 1600.433221
159.210000 1591.660163 1594.469947 1597.017374 1596.924115 1599.393244 1601.681841
159.350000 1593.168607 1596.026222 1598.419080 1598.395052 1600.824308 1603.216480
159.470000 1595.081828 1597.185530 1599.590393 1599.654969 1602.066144 1604.573362
159.590000 1596.247825 1598.445162 1600.774431 1600.891308 1603.282783 1605.917920
159.710000 1597.651560 1599.733463 1602.090727 1602.111446 1604.333080 1606.984696
159.830000 1598.701593 1600.925401 1603.363050 1603.331443 1605.435303 1608.671688
159.950000 1599.731875 1602.241945 1604.480944 1604.605673 1606.917398 1610.186563
160.070000 1601.018997 1603.477442 1605.792669 1605.864833 1608.228208 1611.765569
160.195000 1602.276098 1604.776705 1607.101728 1607.272524 1609.790794 1613.024613
160.320000 1603.772748 1606.198164 1608.511866 1608.709922 1611.313233 1614.277205
160.430000 1604.865785 1607.415066 1609.736685 1609.932892 1612.646993 1615.661490
160.540000 1606.362715 1608.654366 1610.916920 1611.160495 1613.881493 1617.033342
160.643333 1607.349049 1609.709264 1612.066371 1612.280155 1615.030051 1618.375643
160.746667 1608.366795 1610.746257 1613.045290 1613.357596 1616.116277 1619.687661
160.850000 1609.289697 1611.647752 1614.118796 1614.405332 1617.250965 1620.725824
160.945000 1610.175248 1612.499379 1615.019330 1615.349947 1618.319649 1621.627203
161.040000 1610.997754 1613.404992 1615.891466 1616.248511 1619.300378 1622.561879
161.185000 1612.225943 1614.645231 1617.304421 1617.593321 1620.762722 1623.760209
161.330000 1613.358880 1615.918244 1618.637088 1618.900389 1622.091279 1625.173993
161.452500 1614.308722 1617.071802 1619.727984 1620.052894 1623.135598 1626.598269
161.575000 1615.465317 1618.162905 1620.934285 1621.199114 1624.497048 1627.552083
161.697500 1616.580030 1619.232024 1622.081807 1622.321560 1625.591668 1628.763976
161.820000 1617.510230 1620.346778 1623.387350 1623.476575 1626.609223 1629.797618
161.945000 1618.744480 1621.469644 1624.750773 1624.689175 1627.775104 1630.990616
162.070000 1619.537349 1622.615151 1626.138463 1625.915673 1628.933520 1632.304383
162.155000 1620.365042 1623.600344 1627.027659 1626.805331 1629.863128 1633.399319
162.240000 1621.331006 1624.598985 1627.887780 1627.708049 1630.715446 1634.233244
162.365000 1622.575316 1626.028090 1629.289222 1629.113789 1632.114024 1635.287125
162.490000 1624.147701 1627.517674 1630.830151 1630.571572 1633.479168 1636.369583
162.625000 1625.692960 1629.158978 1632.324026 1632.173926 1634.985784 1637.689607
162.760000 1627.204368 1631.049732 1633.919162 1633.790589 1636.600431 1638.936277
162.880000 1629.085872 1632.585270 1635.302917 1635.173359 1637.948492 1640.236570
163.000000 1630.484492 1634.020857 1636.786733 1636.607459 1639.420174 1641.278453
163.130000 1632.857814 1635.581030 1638.308586 1638.250219 1640.894257 1643.092815
163.260000 1635.189741 1637.522373 1640.010645 1639.989419 1642.465361 1644.726400
163.400000 1637.033232 1639.630852 1642.116318 1642.050615 1644.348377 1647.110941
163.540000 1639.488102 1641.899450 1644.070308 1644.223416 1646.550423 1649.679118
163.645000 1641.270624 1643.435556 1645.741927 1645.982904 1648.414735 1651.960063
163.750000 1642.885373 1644.870542 1647.436210 1647.684477 1650.565134 1654.489454
163.880000 1644.666155 1646.741200 1649.648926 1649.883663 1652.916500 1656.980977
164.010000 1646.631789 1648.926788 1651.871561 1652.137664 1655.197270 1659.173277
164.135000 1648.446525 1650.854952 1654.097595 1654.244172 1657.721239 1661.118633
164.260000 1650.215724 1652.800264 1656.265504 1656.226478 1659.734516 1662.839297
164.385000 1652.427484 1654.842694 1658.256531 1658.273184 1661.749333 1664.215900
164.510000 1654.662722 1657.258592 1660.632836 1660.433082 1663.346670 1665.675694
164.625000 1656.995111 1659.813148 1662.909755 1662.604731 1665.203091 1667.019033
164.740000 1659.399276 1662.588773 1665.154643 1664.765106 1666.909736 1668.501873
164.850000 1662.659981 1665.429461 1667.499911 1667.128398 1668.726285 1669.866055
164.960000 1667.446371 1668.342728 1669.336163 1669.324652 1670.251604 1671.284667
