depth(m) lower_95(kyr) lower_68(kyr) median(kyr) mean(kyr) upper_68(kyr) upper_95(kyr)
120.910000 2092.623411 2093.503754 2094.463947 2094.487806 2095.475383 2096.377407
121.030000 2094.155502 2095.259064 2096.494674 2096.745426 2098.140107 2101.014264
121.120000 2095.226843 2096.459513 2098.001289 2098.378542 2100.338011 2103.717476
121.210000 2096.333543 2097.627052 2099.688337 2099.906097 2102.249966 2105.393271
121.290000 2097.127103 2098.735425 2101.104376 2101.348293 2104.049241 2106.990865
121.370000 2098.102330 2099.890845 2102.492545 2102.718192 2105.652538 2108.382978
121.500000 2099.662768 2101.918015 2104.708164 2104.844329 2107.755983 2110.306623
121.580000 2100.559221 2103.235496 2106.186469 2106.217488 2109.147849 2111.499532
121.660000 2101.465569 2104.492011 2107.607927 2107.485761 2110.558866 2112.681431
121.745000 2102.639458 2105.815691 2108.975569 2108.802319 2111.729824 2113.997561
121.830000 2103.716580 2107.200474 2110.263803 2110.092165 2112.947220 2115.156933
121.920000 2105.031730 2108.512309 2111.666734 2111.425585 2114.227033 2116.448548
122.023333 2106.533795 2109.956854 2113.137578 2112.876124 2115.645418 2117.811439
122.126667 2107.955823 2111.480670 2114.572424 2114.353656 2117.055782 2119.263945
122.230000 2109.638835 2113.030779 2116.071841 2115.840925 2118.492652 2120.586455
122.315000 2110.966775 2114.398977 2117.263387 2117.102238 2119.687510 2121.894104
122.400000 2112.442151 2115.694705 2118.522547 2118.357250 2120.956367 2123.124139
122.510000 2113.990626 2117.406564 2120.117985 2119.908017 2122.432461 2124.880508
122.610000 2115.511352 2118.886294 2121.542078 2121.349292 2123.818767 2126.042849
122.710000 2117.506763 2120.420962 2122.984072 2122.836142 2125.279830 2127.379460
122.790000 2118.666427 2121.676779 2124.272285 2124.117878 2126.524802 2128.693314
122.870000 2120.207428 2123.093425 2125.636537 2125.487802 2127.886740 2130.019376
122.945000 2121.255722 2124.485860 2126.897424 2126.791121 2129.156363 2131.436412
123.020000 2122.797134 2125.818018 2128.269029 2128.174857 2130.446465 2132.983119
123.140000 2126.062602 2128.504056 2130.651160 2130.730475 2133.103114 2135.923196
123.215000 2127.413552 2129.844124 2132.164538 2132.194451 2134.646084 2136.996153
123.290000 2128.841594 2131.271982 2133.621071 2133.643929 2136.098704 2138.302063
123.375000 2130.194169 2132.710550 2135.187712 2135.218031 2137.737197 2139.891380
123.460000 2131.624083 2134.095991 2136.840589 2136.762476 2139.305329 2141.411755
123.590000 2133.688085 2136.681076 2139.402069 2139.281539 2141.827048 2143.676142
123.675000 2135.149108 2138.632966 2141.396430 2141.196244 2143.731445 2146.028187
123.760000 2137.320978 2140.530170 2143.371238 2143.134096 2145.640310 2147.902484
123.890000 2139.594345 2143.201278 2146.141308 2146.180836 2149.414436 2153.051702
124.020000 2141.739694 2145.695370 2149.039662 2149.212344 2152.846505 2156.848255
124.150000 2145.003711 2148.232449 2152.129405 2152.350772 2156.523633 2161.129054
124.280000 2147.955636 2151.156835 2155.448104 2155.585007 2159.830241 2164.341734
124.410000 2150.969010 2154.700010 2158.778607 2158.816851 2163.069675 2166.672677
124.540000 2154.923606 2158.789392 2162.415621 2162.450574 2166.345034 2169.422141
124.660000 2161.635314 2164.917399 2167.868615 2167.653997 2170.483694 2172.337987
124.735000 2164.655415 2167.462142 2170.156556 2169.930389 2172.316729 2174.217926
124.810000 2167.248949 2169.788048 2172.145029 2171.940340 2174.031909 2175.974181
124.885000 2169.186472 2171.625439 2173.768642 2173.655093 2175.643998 2177.475407
124.960000 2171.369135 2173.544284 2175.262542 2175.293825 2177.124173 2179.091129
125.035000 2172.917022 2174.901450 2176.593926 2176.658612 2178.438574 2180.411637
125.110000 2174.357847 2176.162488 2177.854499 2177.937143 2179.685339 2181.767514
125.185000 2175.590702 2177.390238 2179.086458 2179.167365 2180.941061 2183.002282
125.260000 2176.799885 2178.563013 2180.236421 2180.328999 2182.117134 2184.416070
125.340000 2178.029580 2179.741959 2181.449962 2181.604453 2183.434901 2186.525284
125.420000 2179.201089 2180.830879 2182.678189 2182.847384 2184.752507 2188.174129
125.560000 2181.205524 2182.782609 2184.670040 2185.080876 2187.134149 2191.686173
125.690000 2183.138911 2184.790967 2187.060100 2187.790184 2190.356966 2197.965168
125.770000 2184.311428 2186.218085 2188.686328 2189.714839 2192.996518 2201.649054
125.850000 2185.437271 2187.694662 2190.642428 2191.831550 2196.038294 2205.402435
125.925000 2186.833932 2189.401139 2193.197459 2194.241280 2199.434130 2207.379361
126.000000 2188.391162 2191.198575 2195.770276 2196.669580 2202.456633 2208.999384
126.075000 2189.980904 2193.471287 2198.758181 2199.258004 2205.158315 2210.873083
126.150000 2191.301139 2195.752325 2202.063951 2201.897719 2207.554406 2212.905337
126.230000 2193.379374 2199.147690 2205.530549 2204.857569 2209.970146 2214.940575
126.310000 2195.474745 2202.357875 2208.280418 2207.737713 2212.832062 2217.354138
126.390000 2198.235755 2205.446559 2210.090535 2210.014887 2215.200822 2218.932711
126.470000 2200.431611 2208.215296 2211.997419 2212.085480 2216.777188 2220.764787
126.610000 2206.698363 2211.126679 2214.783512 2215.027241 2219.620934 2223.330750
126.685000 2208.476690 2212.600062 2216.427524 2216.556005 2221.076132 2224.724652
126.760000 2210.465048 2214.062292 2217.941313 2218.063260 2222.493141 2226.042132
126.835000 2211.728569 2215.333827 2219.219174 2219.439694 2223.778055 2227.515240
126.910000 2213.496360 2216.761334 2220.506031 2220.805121 2224.917231 2228.744283
127.005000 2214.753550 2218.461185 2222.248309 2222.423104 2226.595110 2229.722605
127.100000 2216.656376 2220.037990 2223.918350 2224.075038 2228.288529 2231.363856
127.190000 2218.345803 2221.497992 2225.626788 2225.635411 2229.971927 2232.833221
127.270000 2219.722125 2222.912257 2227.139667 2227.032482 2231.215045 2234.179045
127.350000 2221.084181 2224.365649 2228.554479 2228.461458 2232.624201 2235.490038
127.430000 2222.335279 2225.720224 2230.139921 2229.989702 2234.042897 2237.077070
127.510000 2223.616699 2227.347655 2231.693939 2231.515679 2235.522388 2238.619024
127.616667 2225.537486 2229.451139 2233.775403 2233.663688 2237.742628 2241.609884
127.723333 2228.098216 2231.812944 2236.072737 2235.971902 2240.038652 2244.129722
127.830000 2230.594106 2234.345852 2238.238306 2238.298172 2242.474469 2245.955554
127.960000 2235.454377 2238.711263 2242.130568 2242.015935 2245.546615 2248.701238
128.035000 2237.034366 2240.662691 2244.161303 2243.915155 2247.259704 2250.277843
128.110000 2238.669452 2242.650808 2246.112977 2245.727415 2248.805220 2251.541908
128.185000 2240.424113 2244.393803 2247.798027 2247.467170 2250.531024 2253.310820
128.260000 2242.765422 2246.291584 2249.385631 2249.208165 2252.027470 2255.528945
128.335000 2244.709816 2248.523696 2251.100854 2251.071629 2253.755937 2258.058213
128.410000 2246.884041 2250.275396 2252.881513 2252.947467 2255.743633 2260.396529
128.485000 2248.875171 2251.915793 2254.611260 2254.818116 2257.950948 2262.281817
128.560000 2250.619942 2253.644161 2256.370668 2256.641643 2260.259334 2264.019208
128.690000 2252.774988 2256.204117 2259.673324 2259.651137 2263.378253 2266.724150
128.775000 2254.784609 2258.153742 2261.888322 2261.672209 2265.432888 2268.428370
128.860000 2256.397389 2260.133506 2263.873703 2263.601514 2267.257905 2269.874177
128.935000 2258.024603 2262.314376 2265.533577 2265.261447 2268.659923 2271.171729
129.010000 2259.873252 2263.971931 2266.997585 2266.771537 2269.981324 2272.480408
129.085000 2261.798516 2265.533926 2268.584810 2268.281014 2271.289153 2273.715682
129.160000 2263.607110 2267.209972 2270.049318 2269.800717 2272.592032 2275.232604
129.235000 2266.438666 2269.313412 2271.819298 2271.632397 2274.211504 2276.937705
129.310000 2268.427690 2271.261394 2273.602992 2273.480688 2276.021906 2278.927622
129.385000 2270.283997 2273.057610 2275.326860 2275.246326 2277.818673 2280.612172
129.460000 2272.257169 2274.685653 2277.189961 2276.927164 2279.596351 2281.874728
129.535000 2273.376447 2275.929381 2278.610484 2278.316733 2280.974434 2283.182127
129.610000 2274.503475 2277.313314 2280.041516 2279.664027 2282.277670 2284.399368
129.685000 2275.875489 2278.693640 2281.417681 2281.030223 2283.515389 2285.470518
129.760000 2277.160108 2280.269906 2282.681879 2282.325311 2284.672980 2286.495976
129.835000 2278.833956 2281.661057 2284.039551 2283.679837 2286.011788 2287.714101
129.910000 2280.274291 2283.081939 2285.343967 2284.984887 2287.230704 2288.958932
129.995000 2281.916160 2284.650870 2286.949966 2286.571773 2288.819859 2290.457618
130.080000 2283.631449 2286.430993 2288.352626 2288.151164 2290.293496 2292.154374
130.190000 2285.680133 2288.306238 2290.190642 2289.975851 2292.111449 2293.903042
130.275000 2287.051567 2289.470150 2291.291017 2291.142146 2293.335405 2294.970884
130.360000 2288.856612 2290.662422 2292.405847 2292.307876 2294.411520 2296.148479
130.435000 2290.130557 2291.763240 2293.451171 2293.345671 2295.376472 2297.043431
130.510000 2291.128393 2292.722163 2294.467942 2294.356505 2296.464414 2298.009736
130.585000 2292.120629 2293.745757 2295.500706 2295.356131 2297.455534 2298.896554
130.660000 2292.907382 2294.651424 2296.570604 2296.363732 2298.451793 2299.995341
130.735000 2293.912171 2295.553161 2297.540231 2297.306943 2299.389058 2300.781060
130.810000 2294.830808 2296.515220 2298.521952 2298.259089 2300.306623 2301.700101
130.885000 2295.749583 2297.371199 2299.483006 2299.208650 2301.185982 2302.732723
130.960000 2296.741605 2298.239030 2300.394398 2300.113725 2302.126905 2303.659672
131.035000 2297.708747 2299.207476 2301.396071 2301.055103 2303.067722 2304.534114
131.110000 2298.549138 2300.121700 2302.283767 2301.954194 2303.968854 2305.390634
131.185000 2299.382155 2301.058926 2303.225863 2302.878445 2304.913985 2306.333284
131.260000 2300.325973 2301.982966 2304.152054 2303.780847 2305.758120 2307.211879
131.340000 2301.266573 2302.960839 2305.147380 2304.751940 2306.718714 2308.157728
131.420000 2302.245449 2303.978918 2306.050892 2305.747437 2307.666332 2309.200267
131.560000 2304.015900 2305.742438 2307.763114 2307.479993 2309.494041 2310.925411
131.690000 2305.568467 2307.356108 2309.444123 2309.158101 2311.152241 2312.770056
131.780000 2306.790392 2308.627520 2310.632592 2310.409372 2312.373523 2314.144832
131.870000 2308.010460 2309.940681 2311.860446 2311.667046 2313.646339 2315.388057
132.010000 2309.948061 2311.869596 2313.742182 2313.588845 2315.567406 2317.321868
132.085000 2310.962998 2312.859968 2314.762198 2314.630053 2316.619394 2318.437082
132.160000 2312.097049 2313.938688 2315.812799 2315.650256 2317.603844 2319.451136
132.250000 2313.195807 2315.161049 2316.994927 2316.866914 2318.851986 2320.843254
132.340000 2314.305673 2316.290216 2318.203604 2318.092584 2320.064111 2322.286058
132.460000 2315.791225 2317.757340 2319.885839 2319.715568 2321.780162 2324.339337
132.535000 2316.654133 2318.822509 2320.897021 2320.779277 2322.948545 2325.623475
132.610000 2317.593988 2319.873834 2321.936209 2321.885689 2324.192309 2327.208910
132.685000 2318.791029 2320.859564 2323.065047 2323.127783 2325.683477 2328.623414
132.760000 2319.636441 2321.939962 2324.336672 2324.431130 2327.231754 2330.673588
132.835000 2320.628016 2323.013248 2325.714751 2325.821376 2328.878366 2332.118373
132.910000 2321.735050 2324.467031 2327.344328 2327.371266 2330.651106 2334.199412
133.040000 2323.947171 2327.041199 2330.607651 2330.847847 2335.045956 2339.795455
133.170000 2326.151285 2329.856474 2334.171562 2334.319231 2339.127645 2344.094782
133.300000 2329.124657 2333.277611 2338.059239 2338.189938 2343.546033 2348.301956
133.430000 2332.899811 2336.977920 2342.111547 2342.168520 2347.680580 2352.426326
133.560000 2335.813058 2340.653933 2346.285729 2345.977654 2351.166540 2356.107013
133.690000 2339.626905 2345.115217 2349.936667 2349.765093 2354.722532 2359.588708
133.820000 2344.606153 2349.455179 2353.536323 2353.477483 2357.624516 2362.180791
133.950000 2350.795017 2353.629633 2356.960395 2357.058290 2360.606409 2364.808168
134.025000 2352.513918 2355.331937 2358.555616 2358.728049 2362.465636 2366.058835
134.100000 2354.196226 2357.019203 2360.209904 2360.360622 2363.988464 2367.490023
134.230000 2356.673142 2359.922315 2363.221926 2363.229640 2366.773368 2369.659529
134.315000 2358.026821 2361.791196 2365.441475 2365.148738 2368.650191 2371.315357
134.400000 2360.047707 2363.516039 2367.342376 2367.034534 2370.475961 2372.850877
134.475000 2362.037146 2365.437094 2368.996314 2368.764980 2372.007260 2374.839602
134.550000 2363.589359 2367.084857 2370.790575 2370.407252 2373.534820 2376.221528
134.630000 2365.329722 2368.912796 2372.480984 2372.180992 2375.112691 2378.764672
134.710000 2367.051440 2370.954857 2374.041242 2373.839671 2376.749599 2380.462373
134.850000 2370.574719 2373.788449 2376.361351 2376.477168 2379.371913 2382.894469
134.930000 2371.962691 2375.180383 2377.797130 2377.929392 2381.036086 2384.328227
135.010000 2373.434284 2376.429606 2379.334484 2379.342835 2382.491808 2385.685749
135.100000 2374.971552 2377.998551 2380.813262 2380.914544 2384.098926 2387.108270
135.190000 2376.549862 2379.375614 2382.376695 2382.453265 2385.785466 2388.553841
135.290000 2378.779741 2381.153417 2384.259484 2384.248746 2387.517694 2390.125310
135.370000 2380.039515 2382.743371 2385.808617 2385.757395 2388.863282 2391.759182
135.450000 2381.284044 2384.327856 2387.431361 2387.261431 2390.196764 2393.042281
135.525000 2382.447420 2385.555456 2388.763140 2388.490732 2391.254983 2394.169622
135.600000 2383.817559 2386.892695 2389.930271 2389.676833 2392.308460 2395.163403
135.740000 2386.273063 2388.983491 2391.906378 2391.658532 2394.093229 2397.205877
135.825000 2387.867017 2390.143334 2393.020016 2392.872890 2395.209396 2398.586596
135.910000 2389.148879 2391.392961 2394.279899 2394.103585 2396.446002 2399.809115
135.985000 2390.043531 2392.493514 2395.301856 2395.131158 2397.435943 2401.336937
136.060000 2390.986817 2393.410777 2396.439409 2396.144818 2398.359384 2402.498106
136.135000 2391.923100 2394.423670 2397.360101 2397.142179 2399.396491 2403.317060
136.210000 2392.853809 2395.388408 2398.286356 2398.101660 2400.357511 2404.156707
136.340000 2394.486838 2397.016722 2399.874532 2399.772317 2402.236240 2406.162234
136.425000 2395.262956 2397.918888 2400.957145 2400.904778 2403.530319 2407.517356
136.510000 2396.375028 2398.978918 2402.084044 2402.077557 2404.857559 2408.736739
136.595000 2397.442179 2400.074692 2403.203901 2403.293401 2406.291123 2409.998981
136.680000 2398.447237 2401.389387 2404.282748 2404.559398 2407.864254 2412.044088
136.790000 2399.804868 2402.951164 2405.618733 2406.141249 2409.767019 2414.954429
136.865000 2400.703287 2403.878171 2406.581890 2407.282989 2411.238796 2417.359416
136.940000 2401.674983 2404.795763 2407.610803 2408.417363 2412.534301 2418.709596
137.025000 2402.985955 2406.076321 2409.047706 2409.929847 2414.409082 2420.375299
137.110000 2404.098121 2407.364777 2410.593009 2411.524429 2416.507109 2421.896369
137.220000 2405.624209 2409.286295 2413.414003 2413.871601 2419.118753 2423.355726
137.315000 2407.232821 2411.140827 2416.159846 2416.043647 2420.972827 2424.560759
137.410000 2408.646904 2413.546250 2418.740609 2418.185435 2422.515887 2425.760515
137.530000 2410.839322 2416.673517 2421.689766 2420.786771 2424.596139 2427.099969
137.620000 2413.217123 2418.897446 2423.169388 2422.443186 2425.733359 2428.183051
137.710000 2415.952268 2421.097691 2424.707154 2424.101667 2427.013300 2429.377707
137.830000 2419.519074 2423.884825 2426.718088 2426.347335 2428.811577 2430.781592
137.940000 2422.174381 2425.872584 2428.191245 2428.040440 2430.366416 2432.244905
138.050000 2424.790956 2427.583349 2429.621997 2429.595751 2431.796767 2433.705685
138.160000 2427.239667 2429.171360 2430.966296 2431.122948 2433.261057 2435.045480
138.290000 2429.393650 2430.894801 2432.792482 2432.896996 2435.003002 2436.795752
138.370000 2430.442120 2431.983819 2433.949308 2434.060466 2436.174295 2437.726576
138.450000 2431.579613 2433.140157 2435.117426 2435.194423 2437.237781 2438.900853
138.525000 2432.580333 2434.230056 2436.211480 2436.243070 2438.244707 2439.996203
138.600000 2433.568379 2435.225350 2437.348054 2437.300245 2439.226361 2441.201771
138.720000 2434.939089 2436.714187 2439.012712 2438.925696 2440.880677 2442.935639
138.815000 2436.163483 2438.031452 2440.211736 2440.177023 2442.182231 2444.419980
138.910000 2437.465505 2439.198040 2441.460515 2441.433383 2443.470414 2445.765570
138.985000 2438.488237 2440.128931 2442.371891 2442.387654 2444.399146 2447.250200
139.060000 2439.467117 2441.073049 2443.268497 2443.320384 2445.299425 2448.103367
139.200000 2440.847990 2442.659508 2444.883348 2444.918907 2446.840353 2449.808357
139.280000 2441.890945 2443.688644 2445.895087 2445.955948 2447.821770 2451.139622
139.360000 2442.758608 2444.837474 2446.928320 2447.045374 2448.806598 2452.667181
139.435000 2443.946556 2445.874468 2447.963044 2448.126410 2449.883418 2454.841655
139.510000 2444.883459 2446.962869 2448.959271 2449.238158 2450.965018 2456.931574
139.605000 2446.255911 2448.162851 2450.167371 2450.687852 2452.384714 2462.722502
139.700000 2447.600443 2449.429593 2451.426109 2452.162553 2453.781076 2467.889515
139.790000 2448.931813 2450.677592 2452.586135 2453.628473 2455.231739 2471.555155
139.865000 2449.881382 2451.796077 2453.764283 2454.978022 2456.856116 2473.734974
139.940000 2451.023004 2453.040668 2454.967130 2456.494815 2458.658312 2475.048866
140.015000 2452.088409 2454.313403 2456.755114 2458.307901 2461.466979 2476.566056
140.090000 2453.390084 2455.838568 2458.620364 2460.370284 2465.159028 2478.150654
140.220000 2456.844874 2461.711025 2469.047877 2468.323374 2474.104220 2479.542996
140.315000 2460.720995 2467.012192 2473.181258 2472.364727 2477.012109 2481.307751
140.410000 2465.826356 2473.179673 2476.832149 2476.159836 2479.357408 2483.108724
140.485000 2468.649567 2474.931692 2478.253643 2477.767843 2480.691425 2484.363662
140.560000 2472.502271 2476.679120 2479.484063 2479.252449 2481.911147 2485.767002
140.690000 2476.375808 2479.183922 2481.613452 2481.664357 2484.272356 2487.307164
140.765000 2477.759821 2480.229621 2482.658931 2482.824186 2485.598218 2488.390532
140.840000 2478.853769 2481.373155 2483.827778 2483.971389 2486.791071 2489.616462
140.925000 2480.355559 2482.863753 2485.093417 2485.299356 2487.922909 2490.773746
141.010000 2482.324620 2484.174436 2486.473221 2486.658551 2489.209209 2491.921679
141.085000 2483.702879 2485.553537 2487.684263 2487.843783 2490.335219 2492.902951
141.160000 2484.881006 2486.932931 2488.907275 2489.132007 2491.577967 2494.265763
141.290000 2487.416738 2489.349499 2491.382809 2491.712826 2494.051991 2497.575814
141.365000 2488.712379 2490.522744 2492.614989 2493.117410 2495.671688 2499.893908
141.440000 2490.038710 2491.670541 2493.938126 2494.548735 2497.377743 2502.935314
141.515000 2491.039666 2492.944597 2495.224784 2496.060727 2499.492364 2504.972905
141.590000 2492.065646 2494.190169 2496.803666 2497.641570 2501.619277 2506.430071
141.720000 2493.970979 2496.655275 2500.610620 2501.062395 2505.984106 2508.906506
141.815000 2495.852599 2498.928768 2503.916092 2503.572196 2508.011907 2510.307126
141.910000 2497.437909 2501.549966 2506.584293 2505.981512 2509.742092 2511.916027
142.050000 2501.802055 2506.185771 2509.656781 2509.232959 2512.180092 2514.219042
142.130000 2503.786756 2508.461046 2511.363798 2511.042681 2513.617507 2517.260682
142.210000 2506.759561 2510.357878 2512.926157 2512.899286 2515.192413 2521.000961
142.350000 2510.271403 2513.016445 2515.623434 2516.520512 2520.122409 2527.345044
142.430000 2511.591403 2514.290417 2517.245866 2518.435517 2523.503152 2529.260698
142.510000 2513.021658 2515.671700 2519.242160 2520.350458 2526.183358 2530.431709
