depth(m) lower_95(kyr) lower_68(kyr) median(kyr) mean(kyr) upper_68(kyr) upper_95(kyr)
46.830000 1398.967323 1399.986869 1401.001303 1400.973871 1401.951594 1402.829039
46.870000 1400.792828 1401.968803 1403.192807 1403.228477 1404.453372 1406.086425
46.900000 1401.982135 1403.271323 1404.552589 1404.593790 1405.898921 1407.510980
47.000000 1405.777069 1407.027485 1408.638578 1408.772580 1410.505429 1412.532302
47.100000 1408.435855 1410.062528 1412.280672 1412.176710 1414.090373 1416.010631
47.200000 1410.909237 1412.818550 1415.310463 1415.274761 1417.514840 1419.718090
47.300000 1413.905210 1415.852670 1418.279290 1418.279401 1420.686762 1422.989811
47.400000 1417.031882 1418.892260 1421.278302 1421.266157 1423.471177 1425.725061
47.500000 1419.900162 1422.020842 1424.127372 1424.211185 1426.284835 1429.014026
47.600000 1423.656082 1426.078329 1428.159253 1428.780920 1431.251178 1438.733459
47.700000 1427.895727 1430.390481 1434.329317 1435.226308 1440.516003 1446.319352
47.800000 1430.889928 1434.126327 1439.533462 1439.971372 1446.149465 1450.108499
47.933333 1435.443206 1440.339786 1446.515347 1446.104590 1451.384901 1454.717324
48.066667 1441.365545 1447.928638 1452.345382 1451.822764 1455.875406 1458.414161
48.200000 1452.956266 1454.796715 1457.221791 1457.348577 1459.833634 1461.722833
48.300000 1456.185786 1458.215123 1460.581601 1460.588758 1462.697782 1464.658412
48.400000 1458.879123 1461.583602 1464.039295 1464.086978 1466.319404 1469.336407
48.500000 1462.399065 1465.247002 1467.511572 1467.840032 1470.176514 1474.940755
48.600000 1465.714554 1468.437679 1471.697917 1472.757607 1476.886794 1484.047788
48.700000 1468.341923 1470.906793 1475.035064 1476.337075 1482.094309 1487.921223
48.800000 1470.683673 1473.256370 1479.511944 1480.044540 1487.520659 1490.784632
48.900000 1473.138819 1476.332620 1483.555799 1483.727061 1490.979389 1492.992613
49.033333 1476.600008 1481.717969 1489.849859 1488.956291 1495.081414 1498.451339
49.166667 1481.592859 1488.800929 1495.577355 1494.563710 1499.264492 1504.235636
49.300000 1485.441268 1496.570585 1500.257589 1500.275936 1504.812115 1509.766419
49.400000 1488.009937 1499.570393 1503.614739 1504.219188 1510.593633 1515.292494
49.500000 1493.440671 1502.431322 1506.426043 1507.139087 1513.515074 1518.144615
49.600000 1499.523994 1505.218284 1509.109836 1510.052798 1516.116627 1520.487500
49.700000 1504.877592 1508.313409 1512.009169 1513.043042 1518.794304 1522.910665
49.800000 1509.392198 1511.703558 1515.809910 1516.425811 1521.380739 1524.836046
49.900000 1512.494157 1515.335474 1519.874781 1519.943732 1523.982593 1527.034562
50.000000 1515.719387 1519.740565 1524.327082 1523.811422 1527.139205 1529.545232
50.100000 1520.158993 1524.791262 1528.098313 1527.789983 1530.355353 1533.854589
50.200000 1525.101097 1529.486659 1532.443689 1532.691027 1535.855266 1539.909181
50.300000 1532.119321 1534.842759 1538.025142 1537.974608 1540.795181 1543.909623
50.400000 1536.864123 1541.205004 1543.620342 1543.678065 1546.228234 1548.746010
50.500000 1542.166884 1545.089205 1547.487163 1547.537590 1549.918392 1552.120540
50.600000 1545.026788 1547.530612 1550.051427 1550.038049 1552.380374 1554.693181
50.700000 1547.642421 1549.928041 1552.302630 1552.327798 1554.564003 1556.638054
50.800000 1549.684450 1552.015021 1554.407574 1554.452500 1556.849005 1558.560300
50.900000 1551.881656 1554.132673 1556.372866 1556.491455 1558.689156 1560.607123
51.000000 1553.943884 1556.277567 1558.475077 1558.519604 1560.655578 1562.556061
51.100000 1555.950007 1558.326297 1560.441068 1560.503816 1562.612392 1564.452133
51.200000 1558.100176 1560.316767 1562.487280 1562.489014 1564.487418 1566.307888
51.300000 1560.049000 1562.385074 1564.421635 1564.464335 1566.245659 1568.319632
51.400000 1561.859704 1564.315054 1566.270898 1566.427891 1568.266067 1570.401553
51.500000 1563.905204 1566.459448 1568.461411 1568.684376 1570.429317 1574.743697
51.600000 1565.683854 1568.638994 1570.463428 1570.956451 1572.819428 1579.909965
51.733333 1568.441319 1571.362145 1573.489493 1574.158510 1576.542795 1584.248659
51.866667 1571.335214 1574.088697 1576.666327 1577.490051 1580.547820 1588.766321
52.000000 1573.902702 1576.947706 1580.007628 1580.997503 1585.022775 1593.845054
52.133333 1576.788694 1579.810606 1583.362037 1584.570129 1589.458923 1599.614760
52.266667 1579.736770 1582.850196 1586.664172 1588.368044 1594.401885 1604.187935
52.400000 1582.686511 1586.147891 1590.655745 1592.317977 1599.836871 1608.887630
52.500000 1585.395651 1588.905806 1594.094632 1595.782635 1604.586196 1611.553903
52.600000 1588.283645 1591.732820 1598.278420 1599.609490 1608.274970 1613.808150
52.700000 1590.920337 1595.192701 1603.784589 1603.527785 1611.519255 1615.938649
52.800000 1593.846927 1599.531076 1608.656884 1607.460997 1614.272844 1617.681977
52.900000 1599.024914 1605.057425 1612.013008 1611.206547 1616.673505 1620.763924
53.000000 1604.636894 1610.363310 1615.594550 1615.030921 1619.263322 1623.132507
53.100000 1608.157941 1614.791396 1619.004298 1618.427913 1621.925856 1625.517191
53.120000 1608.745717 1615.533468 1619.692979 1619.108441 1622.625448 1626.067018
53.170000 1610.626755 1617.571483 1621.366405 1620.809950 1624.012834 1627.289149
53.200000 1611.814881 1618.789914 1622.518401 1621.825099 1624.949063 1627.939781
53.220000 1612.457285 1619.548692 1623.217315 1622.496375 1625.551382 1628.674979
53.270000 1614.204802 1621.196876 1624.985915 1624.206964 1627.181980 1629.649713
53.300000 1615.447110 1622.405581 1625.954596 1625.272483 1628.049310 1630.818516
53.320000 1616.400156 1623.076420 1626.706884 1625.994752 1628.673502 1631.338854
53.370000 1618.856164 1625.333580 1628.660383 1628.033651 1630.736413 1632.629209
53.400000 1619.899499 1626.583031 1629.828117 1629.200410 1631.887625 1633.663333
53.420000 1620.653050 1627.231219 1630.525015 1629.908009 1632.625606 1634.343186
53.470000 1623.352744 1629.302320 1632.138196 1631.619454 1634.100646 1635.556334
53.500000 1624.465021 1630.280619 1633.070841 1632.577399 1634.993441 1636.311083
53.520000 1625.497776 1630.918207 1633.625862 1633.168933 1635.489975 1636.933123
53.570000 1627.670090 1632.362641 1634.842405 1634.520169 1636.736039 1637.995472
53.620000 1629.679474 1633.781260 1636.041490 1635.770549 1637.897104 1639.179405
53.670000 1631.587467 1635.144273 1637.305021 1637.086601 1639.077076 1640.364620
53.720000 1633.572754 1636.576722 1638.648741 1638.453236 1640.317992 1641.849524
53.770000 1635.517239 1637.990915 1640.054270 1639.919029 1641.581000 1643.488009
53.820000 1637.346764 1639.523968 1641.577580 1641.512622 1643.282343 1645.726230
53.870000 1639.092609 1640.881413 1642.979379 1642.980643 1644.805325 1647.347742
53.920000 1640.433643 1642.308741 1644.521206 1644.789302 1647.053389 1650.196531
54.020000 1642.807298 1644.907909 1647.472716 1648.079110 1651.358557 1655.479245
54.120000 1644.868090 1647.203413 1650.605235 1651.152198 1655.414970 1658.977533
54.170000 1646.143432 1648.498870 1652.264461 1652.701872 1657.251128 1660.098847
54.270000 1648.450692 1651.331276 1655.952977 1655.706035 1660.025651 1662.443473
54.320000 1649.810072 1652.964122 1657.571301 1657.246215 1661.337550 1663.539973
54.420000 1652.689484 1656.152540 1660.678122 1660.114953 1663.516813 1665.827066
54.470000 1654.367239 1657.990079 1662.247851 1661.684408 1664.784879 1666.867345
54.520000 1655.808085 1660.120197 1663.786414 1663.327301 1666.200827 1668.104586
54.570000 1658.180891 1662.184211 1665.587890 1665.169588 1667.930544 1669.775307
54.620000 1659.728610 1664.226570 1667.093504 1666.780274 1669.253744 1671.244890
54.670000 1662.115251 1666.153513 1668.722306 1668.471670 1670.745441 1673.273473
54.720000 1663.868580 1667.597166 1670.142412 1669.977453 1672.138095 1674.882092
54.845000 1667.322849 1670.749938 1673.298234 1673.300479 1675.651774 1679.063861
54.970000 1671.228114 1673.861931 1676.439979 1676.591186 1679.277206 1682.417082
55.045000 1673.133101 1675.822621 1678.391842 1678.590011 1681.354677 1684.524116
55.120000 1675.025231 1677.720131 1680.354246 1680.552182 1683.427216 1686.815094
55.220000 1677.582961 1680.206921 1682.941322 1683.202841 1686.234093 1689.524059
55.320000 1680.345683 1682.729003 1685.692760 1685.959707 1688.972945 1692.732708
55.420000 1682.832200 1685.552549 1688.704874 1689.087839 1692.445863 1696.329298
55.470000 1684.269664 1687.345174 1690.724222 1691.029646 1694.384765 1698.628246
55.603333 1688.362233 1692.698682 1697.875808 1698.512468 1704.038296 1713.187586
55.736667 1693.512523 1699.659653 1706.069874 1706.430183 1712.414786 1722.703575
55.870000 1699.980931 1708.072268 1713.260841 1713.852977 1718.417150 1735.555972
55.970000 1709.099353 1713.668875 1717.808666 1718.921025 1722.246464 1745.700830
56.070000 1713.041257 1717.624104 1721.543287 1722.814540 1726.296192 1750.945298
56.170000 1715.404636 1720.974030 1725.220122 1726.348073 1729.891535 1754.970000
56.220000 1716.613939 1722.601369 1727.211847 1728.128262 1731.930224 1756.651154
56.345000 1720.645381 1726.705714 1731.407694 1732.339019 1735.795590 1772.057995
56.470000 1725.654318 1730.777070 1735.410433 1736.367838 1739.520885 1775.073015
56.520000 1727.187662 1732.625182 1737.052948 1738.024251 1741.176142 1777.677083
56.630000 1731.416951 1737.062124 1740.703537 1741.825255 1744.129841 1782.332315
56.730000 1735.674707 1741.488014 1744.608269 1745.865589 1747.486983 1789.094356
56.830000 1739.137230 1744.846311 1748.118174 1749.447139 1751.418388 1793.302479
56.930000 1742.137737 1747.793393 1751.212886 1752.807087 1755.287638 1796.204922
57.030000 1745.537247 1750.679141 1754.422043 1756.074678 1758.771841 1799.054728
57.130000 1749.031376 1753.736869 1757.610745 1759.382267 1762.352228 1801.046371
57.230000 1752.869813 1756.820709 1761.111011 1762.922147 1766.606637 1803.665228
57.330000 1755.987643 1760.239916 1764.645863 1766.613718 1770.744553 1806.780479
57.430000 1758.801469 1763.171375 1768.264492 1770.129995 1774.904826 1809.286947
57.530000 1762.164856 1766.189255 1772.215071 1773.837890 1779.049736 1811.745704
57.658571 1765.063552 1770.134372 1777.978284 1779.475415 1786.164788 1814.406112
57.787143 1767.975400 1774.454960 1784.073791 1785.265794 1794.595113 1817.048102
57.915714 1770.861854 1778.771985 1790.602913 1791.008624 1802.079538 1819.595170
58.044286 1774.013339 1783.642412 1797.205077 1797.010679 1809.497721 1822.528329
58.172857 1777.083912 1789.603814 1803.725928 1803.034372 1815.969477 1825.893102
58.301429 1779.693508 1796.430616 1810.508076 1808.987648 1822.327927 1829.600287
58.430000 1782.918198 1802.888442 1817.262769 1814.910988 1828.004909 1833.945490
58.530000 1786.116293 1806.119344 1822.024321 1819.254999 1831.844880 1837.525939
58.630000 1791.095888 1809.536240 1826.883820 1823.283739 1835.057501 1841.075009
58.730000 1796.899542 1813.325253 1831.083740 1827.126168 1838.387616 1843.716342
58.830000 1801.935978 1817.031250 1834.589970 1830.944831 1841.818182 1846.463369
58.930000 1804.943819 1821.229983 1837.639743 1834.380272 1845.027783 1849.016111
59.030000 1809.273729 1825.746618 1841.026601 1837.718672 1847.543292 1851.217074
59.130000 1813.118426 1830.271791 1844.645889 1841.214542 1850.402224 1853.155633
59.230000 1817.308105 1834.053705 1848.493434 1844.702812 1853.052834 1855.932160
59.330000 1821.558764 1838.041129 1851.561769 1847.985665 1855.664748 1858.362516
59.430000 1826.824956 1841.299234 1855.041519 1851.378725 1858.329580 1860.852056
59.530000 1831.183172 1845.253125 1857.899076 1854.507863 1860.692976 1863.150230
59.630000 1835.046392 1849.723379 1860.164010 1857.153391 1862.769732 1865.213517
59.730000 1838.311902 1852.882456 1862.224610 1859.556974 1864.778864 1867.239706
59.830000 1841.402371 1856.066629 1864.276465 1861.906889 1866.963243 1869.270398
59.930000 1845.844816 1858.587628 1866.220533 1864.189481 1868.865530 1871.245415
60.030000 1850.513229 1861.782030 1868.128034 1866.487504 1870.784496 1873.137750
60.130000 1855.028037 1865.308260 1870.047043 1868.855690 1872.740357 1875.085117
60.230000 1859.235771 1867.826430 1872.038175 1871.109953 1874.668713 1876.638301
60.330000 1862.423662 1870.272697 1874.095655 1873.332733 1876.776696 1878.702537
60.430000 1866.575204 1872.654435 1876.203257 1875.565371 1878.849288 1880.984271
60.530000 1869.342323 1874.776709 1878.154793 1877.700778 1880.868638 1883.137697
60.640000 1872.803031 1877.190068 1880.406823 1880.139332 1883.085610 1885.408877
60.740000 1876.129688 1879.480355 1882.678126 1882.459545 1885.464047 1887.508887
60.840000 1878.492272 1881.869444 1885.079019 1884.812204 1887.851620 1889.657711
60.940000 1880.794854 1884.442977 1887.538000 1887.222322 1890.213550 1891.905726
61.040000 1883.461310 1887.016211 1890.040771 1889.673977 1892.291137 1894.207707
61.140000 1886.281594 1889.755472 1892.625678 1892.209668 1894.528027 1895.864580
61.240000 1889.246115 1892.748419 1895.100498 1894.713975 1896.596037 1897.917661
61.340000 1892.717385 1895.435375 1897.192774 1896.994964 1898.580169 1899.982027
61.440000 1896.350655 1898.081478 1899.426963 1899.379269 1900.745903 1902.179943
61.540000 1898.605307 1900.092522 1901.402675 1901.385561 1902.741828 1904.167636
61.640000 1900.456717 1901.834630 1903.215445 1903.250442 1904.655061 1906.392665
61.740000 1902.052966 1903.604180 1905.066217 1905.107748 1906.632755 1908.255199
61.840000 1903.883791 1905.414131 1906.951469 1906.960010 1908.501401 1910.076503
61.930000 1905.627329 1907.129844 1908.675696 1908.706776 1910.252709 1912.225647
62.030000 1907.288635 1909.100895 1910.661389 1910.748861 1912.414794 1914.407100
62.140000 1909.840838 1911.462662 1913.187054 1913.388454 1915.313769 1918.535119
62.240000 1911.824850 1913.732928 1915.704124 1916.001970 1918.256756 1921.761036
62.340000 1914.343609 1916.436908 1918.811232 1919.208256 1922.088596 1926.625955
62.440000 1917.063827 1919.688738 1922.868394 1923.215085 1926.713601 1931.466470
62.540000 1920.139956 1923.398618 1927.674339 1927.707046 1931.968034 1936.878580
62.640000 1923.510890 1927.763961 1932.328258 1932.376641 1937.336853 1940.620227
62.740000 1927.734884 1932.482509 1937.795625 1937.430071 1942.129374 1946.100326
62.840000 1932.732592 1938.613679 1943.216124 1942.761299 1946.822151 1950.679083
62.940000 1942.243317 1945.082096 1948.009230 1947.922028 1950.915668 1953.891829
63.040000 1946.578137 1949.136870 1952.023155 1952.025049 1954.858196 1957.969051
63.090000 1948.431280 1951.304149 1954.085556 1954.106800 1956.817385 1959.616114
63.140000 1950.158798 1953.357427 1956.015418 1955.998852 1958.653995 1961.591847
63.190000 1952.014975 1955.319877 1957.959961 1957.933612 1960.639320 1963.381753
63.240000 1953.770470 1957.165595 1959.665344 1959.671840 1962.285797 1965.202589
63.290000 1955.716495 1958.778009 1961.387720 1961.385613 1964.081428 1966.838313
63.340000 1957.455480 1960.458864 1962.937801 1962.997359 1965.813242 1968.210307
63.390000 1959.104873 1962.239426 1964.881812 1964.828003 1967.588906 1969.826048
63.440000 1961.339580 1964.223190 1966.865659 1966.807840 1969.480299 1971.817840
63.490000 1963.601384 1966.268605 1969.058444 1968.956511 1971.503934 1974.219359
63.540000 1965.928147 1968.558336 1971.213787 1971.265247 1974.184639 1976.681006
63.590000 1968.362649 1970.830033 1973.437051 1973.620344 1976.409750 1979.707537
63.640000 1970.436258 1973.000679 1975.884522 1976.056278 1979.210402 1982.549787
63.690000 1972.519297 1975.023463 1978.224685 1978.338137 1981.549813 1985.246586
63.740000 1974.428929 1977.144832 1980.526193 1980.586433 1984.124187 1987.215150
63.790000 1976.193386 1978.829592 1982.940191 1982.897431 1986.596227 1989.872730
63.890000 1979.737117 1983.383754 1987.413231 1987.443913 1991.451138 1995.035994
63.990000 1984.116853 1988.140246 1991.879073 1991.739454 1995.372095 1998.906124
64.090000 1989.726723 1993.161908 1996.013110 1995.924378 1998.863558 2001.784975
64.190000 1994.482973 1996.957091 1999.524489 1999.556016 2002.311627 2004.663212
64.240000 1996.212002 1998.692756 2001.307378 2001.324495 2003.871354 2006.099780
64.290000 1998.163490 2000.349378 2002.972258 2003.007570 2005.696136 2007.759073
64.340000 1999.733710 2002.185676 2004.673689 2004.705753 2007.319832 2009.531520
64.390000 2001.589617 2004.024001 2006.461320 2006.432238 2008.926242 2011.122115
64.440000 2003.291094 2005.668952 2008.062517 2008.053274 2010.440677 2012.625467
64.490000 2004.983065 2007.401423 2009.630687 2009.637952 2011.906479 2014.077450
64.540000 2006.852881 2009.030159 2011.232335 2011.215878 2013.332035 2015.479623
64.590000 2008.487035 2010.601817 2012.692764 2012.663706 2014.653663 2016.901161
64.640000 2010.068472 2011.955243 2014.060059 2014.025746 2016.047601 2018.236121
64.690000 2011.456807 2013.382525 2015.449893 2015.406393 2017.377022 2019.538111
64.740000 2012.876046 2014.896729 2016.969145 2016.933895 2018.899049 2020.982360
64.790000 2014.492551 2016.510941 2018.585086 2018.607522 2020.550650 2023.066833
64.840000 2016.089570 2018.126176 2020.023654 2020.193584 2022.218759 2025.242938
64.890000 2017.933940 2019.677871 2021.622949 2021.848114 2024.026999 2027.232810
64.940000 2019.640611 2021.336182 2023.534391 2023.740447 2026.259017 2029.063534
64.990000 2021.090498 2022.954210 2025.288613 2025.502024 2028.306170 2030.762116
65.040000 2022.557724 2024.594456 2027.223715 2027.310521 2029.960445 2032.470508
65.090000 2023.900760 2026.561197 2029.410386 2029.325170 2032.088559 2034.389466
65.140000 2025.676664 2028.170215 2031.524050 2031.286509 2034.118696 2036.258314
65.190000 2027.465971 2030.397709 2033.456484 2033.304115 2036.049091 2038.476804
65.240000 2029.161586 2032.311849 2035.165033 2035.034831 2037.662329 2040.037238
65.290000 2031.213841 2034.000701 2036.758614 2036.635664 2039.298723 2041.713309
65.340000 2033.166803 2035.893849 2038.431703 2038.428774 2040.946688 2043.407005
65.390000 2035.166829 2037.791168 2040.239427 2040.179271 2042.551049 2045.084648
65.440000 2036.986926 2039.393832 2041.848033 2041.782694 2044.173590 2046.556326
65.490000 2038.751034 2040.875052 2043.498164 2043.331050 2045.563817 2047.941020
65.540000 2040.508636 2042.475863 2044.934979 2044.851794 2047.061184 2049.127512
65.590000 2041.647558 2044.127548 2046.438074 2046.344072 2048.587758 2050.427293
65.640000 2043.107584 2045.619841 2047.934792 2047.831431 2050.025452 2051.965059
65.690000 2044.448183 2047.112104 2049.352112 2049.256288 2051.405900 2053.302065
65.765000 2046.412436 2049.073958 2051.229476 2051.102311 2053.093405 2055.255573
65.840000 2048.531790 2050.987997 2052.944628 2052.873372 2054.869547 2056.996799
65.940000 2050.799343 2053.022816 2055.060844 2055.013235 2056.934654 2059.006244
66.040000 2053.176703 2055.200337 2057.240814 2057.126931 2059.045219 2061.251149
66.140000 2055.240701 2057.448227 2059.362881 2059.306106 2061.163483 2062.957067
66.240000 2058.276174 2059.929260 2061.731438 2061.730211 2063.512119 2065.272090
66.340000 2061.079528 2062.810313 2064.483948 2064.623595 2066.363573 2069.365787
66.390000 2062.983206 2064.660478 2066.393798 2066.683229 2068.680438 2072.098048
66.440000 2064.679883 2066.434513 2068.299234 2068.646253 2071.102441 2074.536691
66.540000 2067.379566 2069.484713 2072.197557 2072.417139 2075.318247 2078.522608
66.615000 2069.576688 2072.125682 2075.262666 2075.337930 2078.389104 2081.900382
66.690000 2072.294842 2075.076656 2078.163808 2078.090377 2081.119672 2084.163020
66.765000 2074.119945 2077.247691 2080.550554 2080.425880 2083.456786 2086.413264
66.840000 2076.541361 2079.652286 2082.948175 2082.744588 2085.656407 2088.485481
66.890000 2078.025607 2081.270048 2084.531442 2084.329047 2087.233410 2089.929247
66.940000 2079.667678 2082.805868 2086.097151 2085.813206 2088.738887 2091.257858
67.040000 2083.111711 2086.223110 2089.129328 2088.971620 2091.827411 2093.873447
67.140000 2087.242752 2089.866659 2092.480259 2092.389580 2094.885074 2097.066842
