depth(m) lower_95(kyr) lower_68(kyr) median(kyr) mean(kyr) upper_68(kyr) upper_95(kyr)
1781.000000 1400.579108 1401.623492 1402.560934 1402.560590 1403.490475 1404.443809
1781.144928 1400.656328 1401.696690 1402.640542 1402.638783 1403.554751 1404.510574
1781.289855 1400.731312 1401.769102 1402.710679 1402.718069 1403.635195 1404.584636
1781.434783 1400.811017 1401.859147 1402.782769 1402.798847 1403.695494 1404.648600
1781.579710 1400.908503 1401.957055 1402.854163 1402.879504 1403.792234 1404.740976
1781.724638 1400.989654 1402.064228 1402.925962 1402.962501 1403.873903 1404.845645
1781.869565 1401.066179 1402.140179 1403.011244 1403.042610 1403.948558 1404.913884
1782.014493 1401.228817 1402.212941 1403.082259 1403.121470 1404.022164 1404.989968
1782.159420 1401.354368 1402.275436 1403.160879 1403.203593 1404.101642 1405.082527
1782.304348 1401.440210 1402.337659 1403.246421 1403.281463 1404.199404 1405.135628
1782.449275 1401.540303 1402.443128 1403.323209 1403.364565 1404.282682 1405.202014
1782.594203 1401.616726 1402.523837 1403.401456 1403.443400 1404.376974 1405.249733
1782.739130 1401.737867 1402.591688 1403.485948 1403.521322 1404.451897 1405.326970
1782.884058 1401.797126 1402.661324 1403.564002 1403.596927 1404.520787 1405.459072
1783.028986 1401.872942 1402.738751 1403.655237 1403.676826 1404.618626 1405.517750
1783.173913 1401.994951 1402.836486 1403.742577 1403.754669 1404.696116 1405.589428
1783.318841 1402.077694 1402.891840 1403.814089 1403.834902 1404.768226 1405.643000
1783.463768 1402.154264 1402.969827 1403.889477 1403.917016 1404.885377 1405.721018
1783.608696 1402.210948 1403.034654 1403.967530 1403.996883 1404.974689 1405.782941
1783.753623 1402.329232 1403.143546 1404.047967 1404.076288 1405.082146 1405.908352
1783.898551 1402.393077 1403.205484 1404.110066 1404.155694 1405.159529 1406.032141
1784.043478 1402.452270 1403.274653 1404.190412 1404.237206 1405.242890 1406.116084
1784.188406 1402.522521 1403.339661 1404.280062 1404.313238 1405.331088 1406.298994
1784.333333 1402.603649 1403.429349 1404.362742 1404.391303 1405.415643 1406.365613
1784.478261 1402.663935 1403.495743 1404.432472 1404.467045 1405.486996 1406.474559
1784.623188 1402.761268 1403.562922 1404.510962 1404.546887 1405.573441 1406.598416
1784.768116 1402.837461 1403.645377 1404.590740 1404.627173 1405.669993 1406.771706
1784.913043 1402.909175 1403.713581 1404.664754 1404.708317 1405.751026 1406.888262
1785.057971 1402.948254 1403.768284 1404.730349 1404.786012 1405.829674 1406.985179
1785.202899 1402.997191 1403.842081 1404.804855 1404.863997 1405.929772 1407.125715
1785.347826 1403.051319 1403.917769 1404.886010 1404.940282 1406.002586 1407.265636
1785.492754 1403.096534 1403.986590 1404.960472 1405.017895 1406.087029 1407.405315
1785.637681 1403.185610 1404.053905 1405.037983 1405.098562 1406.157299 1407.520498
1785.782609 1403.235863 1404.106245 1405.105048 1405.177916 1406.240201 1407.695928
1785.927536 1403.300688 1404.195490 1405.171110 1405.256767 1406.326499 1407.843603
1786.072464 1403.360510 1404.244742 1405.257961 1405.338604 1406.417824 1408.072563
1786.217391 1403.420943 1404.329116 1405.329490 1405.420314 1406.501893 1408.227287
1786.362319 1403.461419 1404.397182 1405.402460 1405.499103 1406.638359 1408.402089
1786.507246 1403.498529 1404.444930 1405.495344 1405.579496 1406.716460 1408.497019
1786.652174 1403.549912 1404.524878 1405.573231 1405.660634 1406.801762 1408.615625
1786.797101 1403.600544 1404.581433 1405.647063 1405.735817 1406.867626 1408.676561
1786.942029 1403.642833 1404.681494 1405.712970 1405.815525 1406.947791 1408.831742
1787.086957 1403.677379 1404.737592 1405.768471 1405.891587 1407.062104 1408.943462
1787.231884 1403.731988 1404.795762 1405.831929 1405.966470 1407.160899 1409.035798
1787.376812 1403.777661 1404.853549 1405.891490 1406.043852 1407.246010 1409.256441
1787.521739 1403.854262 1404.927281 1405.960546 1406.120248 1407.305095 1409.354648
1787.666667 1403.921504 1404.987359 1406.048235 1406.201350 1407.386958 1409.548861
1787.811594 1403.959700 1405.058823 1406.135781 1406.279025 1407.455966 1409.621678
1787.956522 1403.998617 1405.126937 1406.216826 1406.356981 1407.549470 1409.676908
1788.101449 1404.046727 1405.204703 1406.277442 1406.436280 1407.620255 1409.833307
1788.246377 1404.110149 1405.294050 1406.352642 1406.515336 1407.711265 1410.020165
1788.391304 1404.159363 1405.345619 1406.416557 1406.592664 1407.817312 1410.162440
1788.536232 1404.200356 1405.399938 1406.498266 1406.670164 1407.901798 1410.252827
1788.681159 1404.245692 1405.477557 1406.564068 1406.748543 1407.978260 1410.396697
1788.826087 1404.289233 1405.549479 1406.640746 1406.825688 1408.040896 1410.522326
1788.971014 1404.318629 1405.624128 1406.711608 1406.904165 1408.135107 1410.706535
1789.115942 1404.385192 1405.685790 1406.772419 1406.983152 1408.219006 1410.856158
1789.260870 1404.442910 1405.749313 1406.859761 1407.064881 1408.321659 1410.959064
1789.405797 1404.490209 1405.828820 1406.934002 1407.144309 1408.408927 1411.064862
1789.550725 1404.543076 1405.875885 1406.993586 1407.223925 1408.529347 1411.158237
1789.695652 1404.596376 1405.917680 1407.081421 1407.303052 1408.624946 1411.285673
1789.840580 1404.664993 1405.975272 1407.159618 1407.381453 1408.698271 1411.540098
1789.985507 1404.726946 1406.056255 1407.218660 1407.461865 1408.837783 1411.779526
1790.130435 1404.760383 1406.109641 1407.303889 1407.542493 1408.958114 1411.918118
1790.275362 1404.814823 1406.174466 1407.369193 1407.618313 1409.046942 1411.997223
1790.420290 1404.871549 1406.248943 1407.439910 1407.693656 1409.105982 1412.159407
1790.565217 1404.915247 1406.291136 1407.497181 1407.769154 1409.210008 1412.342350
1790.710145 1404.968550 1406.345941 1407.572877 1407.843506 1409.333832 1412.412604
1790.855072 1405.008878 1406.415356 1407.651606 1407.917294 1409.407454 1412.512993
1791.000000 1405.073505 1406.482553 1407.727139 1407.991591 1409.500999 1412.581388
1791.144928 1405.118158 1406.536789 1407.794647 1408.064495 1409.560089 1412.695626
1791.289855 1405.162642 1406.585666 1407.868061 1408.136875 1409.625278 1412.781194
1791.434783 1405.223697 1406.629606 1407.957346 1408.209630 1409.732106 1412.844923
1791.579710 1405.256736 1406.680302 1408.030220 1408.281383 1409.793556 1412.878216
1791.724638 1405.313728 1406.747406 1408.108066 1408.350876 1409.849246 1412.951843
1791.869565 1405.376610 1406.824890 1408.191771 1408.419400 1409.906121 1413.008662
1792.014493 1405.415834 1406.879911 1408.265611 1408.488412 1409.995623 1413.053892
1792.159420 1405.466580 1406.940509 1408.337607 1408.556958 1410.059970 1413.103599
1792.304348 1405.513397 1406.994823 1408.415341 1408.625398 1410.102767 1413.181572
1792.449275 1405.583032 1407.042431 1408.491415 1408.696051 1410.205204 1413.286953
1792.594203 1405.649267 1407.093466 1408.588216 1408.763280 1410.291441 1413.342858
1792.739130 1405.716830 1407.150453 1408.668736 1408.830785 1410.329425 1413.398754
1792.884058 1405.810568 1407.223098 1408.730506 1408.899267 1410.422034 1413.427297
1793.028986 1405.911749 1407.282427 1408.800578 1408.970269 1410.485170 1413.468702
1793.173913 1405.951869 1407.374289 1408.875533 1409.040449 1410.551126 1413.582156
1793.318841 1406.005760 1407.421267 1408.945124 1409.108618 1410.630752 1413.652814
1793.463768 1406.039323 1407.468976 1409.010606 1409.176637 1410.703579 1413.708835
1793.608696 1406.074415 1407.547429 1409.106086 1409.243521 1410.758895 1413.807631
1793.753623 1406.122129 1407.593347 1409.157895 1409.312042 1410.852753 1413.881589
1793.898551 1406.181302 1407.668994 1409.230648 1409.378745 1410.932800 1413.955423
1794.043478 1406.228206 1407.734762 1409.318033 1409.446319 1410.975027 1414.067304
1794.188406 1406.275077 1407.786932 1409.398614 1409.517606 1411.046050 1414.127501
1794.333333 1406.329244 1407.859319 1409.482629 1409.585017 1411.097034 1414.189940
1794.478261 1406.381542 1407.910116 1409.555679 1409.652254 1411.179804 1414.235753
1794.623188 1406.428544 1407.977671 1409.639390 1409.720715 1411.256232 1414.297324
1794.768116 1406.485839 1408.029015 1409.720522 1409.790676 1411.335291 1414.342112
1794.913043 1406.511587 1408.082471 1409.800699 1409.857189 1411.390786 1414.509580
1795.057971 1406.549433 1408.124655 1409.891868 1409.922194 1411.453310 1414.657115
1795.202899 1406.576641 1408.177012 1409.956378 1409.990050 1411.539540 1414.736675
1795.347826 1406.610673 1408.258752 1410.049917 1410.060890 1411.591663 1414.769053
1795.492754 1406.643419 1408.320617 1410.113676 1410.128079 1411.651180 1414.838320
1795.637681 1406.665576 1408.374658 1410.185944 1410.194902 1411.765724 1414.895285
1795.782609 1406.698808 1408.418842 1410.262431 1410.263313 1411.884111 1414.988957
1795.927536 1406.731492 1408.461759 1410.334125 1410.330782 1412.025711 1415.067727
1796.072464 1406.794678 1408.515278 1410.411841 1410.400327 1412.101813 1415.163868
1796.217391 1406.865568 1408.574617 1410.506237 1410.469695 1412.134406 1415.261405
1796.362319 1406.902262 1408.616012 1410.586599 1410.540061 1412.202712 1415.359222
1796.507246 1406.957608 1408.661121 1410.643974 1410.608373 1412.274825 1415.451949
1796.652174 1406.985147 1408.695787 1410.724392 1410.674670 1412.384533 1415.487937
1796.797101 1407.019175 1408.735573 1410.798149 1410.742713 1412.450351 1415.542084
1796.942029 1407.071717 1408.776439 1410.873416 1410.813249 1412.567897 1415.640031
1797.086957 1407.160262 1408.821731 1410.945627 1410.882341 1412.629117 1415.804405
1797.231884 1407.194465 1408.857783 1411.020031 1410.953954 1412.678234 1415.866198
1797.376812 1407.229896 1408.897438 1411.077061 1411.022139 1412.774725 1415.963108
1797.521739 1407.280387 1408.946021 1411.156757 1411.090872 1412.869763 1416.040831
1797.666667 1407.303970 1408.989595 1411.201169 1411.157353 1412.943888 1416.151699
1797.811594 1407.338198 1409.034240 1411.287180 1411.225567 1413.009141 1416.218459
1797.956522 1407.370040 1409.083443 1411.382708 1411.293895 1413.081383 1416.292855
1798.101449 1407.393286 1409.143216 1411.452634 1411.360199 1413.157849 1416.433607
1798.246377 1407.418188 1409.171398 1411.527868 1411.425973 1413.219183 1416.490539
1798.391304 1407.455756 1409.202756 1411.617546 1411.495367 1413.304810 1416.595422
1798.536232 1407.491141 1409.255603 1411.705392 1411.562078 1413.415421 1416.700483
1798.681159 1407.530217 1409.300933 1411.773100 1411.630209 1413.488495 1416.870599
1798.826087 1407.572494 1409.351734 1411.825079 1411.699139 1413.541543 1417.026317
1798.971014 1407.610243 1409.399552 1411.884560 1411.766940 1413.636135 1417.092520
1799.115942 1407.645620 1409.440429 1411.946522 1411.836500 1413.702349 1417.207461
1799.260870 1407.705901 1409.471344 1412.000113 1411.905888 1413.781511 1417.317340
1799.405797 1407.745827 1409.518001 1412.085670 1411.974006 1413.850704 1417.376794
1799.550725 1407.787771 1409.566280 1412.169686 1412.044557 1413.971750 1417.465112
1799.695652 1407.825424 1409.612242 1412.251271 1412.115664 1414.052826 1417.545732
1799.840580 1407.867083 1409.668705 1412.314793 1412.182785 1414.132116 1417.640518
1799.985507 1407.906179 1409.719024 1412.397016 1412.252635 1414.208320 1417.706404
1800.130435 1407.978446 1409.774078 1412.467394 1412.321678 1414.295957 1417.806035
1800.275362 1408.010884 1409.846374 1412.547146 1412.388330 1414.372740 1417.892905
1800.420290 1408.047321 1409.898826 1412.609956 1412.456960 1414.452966 1417.987927
1800.565217 1408.084676 1409.952692 1412.691132 1412.529550 1414.532706 1418.160439
1800.710145 1408.163213 1410.001780 1412.754044 1412.602422 1414.618881 1418.223986
1800.855072 1408.232886 1410.048558 1412.820393 1412.676878 1414.684821 1418.265326
1801.000000 1408.281075 1410.123211 1412.916824 1412.754104 1414.774622 1418.305236
1801.144928 1408.321990 1410.206201 1412.982135 1412.831203 1414.838207 1418.355339
1801.289855 1408.380683 1410.276624 1413.068478 1412.909199 1414.941562 1418.452266
1801.434783 1408.442322 1410.334405 1413.109413 1412.987344 1415.041364 1418.515943
1801.579710 1408.504826 1410.408020 1413.190853 1413.069651 1415.155980 1418.675298
1801.724638 1408.579935 1410.514068 1413.303029 1413.151364 1415.239123 1418.734260
1801.869565 1408.650756 1410.609650 1413.421839 1413.233924 1415.323182 1418.803312
1802.014493 1408.763266 1410.700527 1413.511307 1413.316820 1415.394740 1418.890254
1802.159420 1408.855077 1410.779018 1413.602437 1413.401981 1415.489797 1418.980965
1802.304348 1408.931199 1410.831831 1413.705025 1413.485348 1415.562364 1419.041003
1802.449275 1408.997902 1410.881011 1413.787766 1413.566290 1415.654155 1419.139527
1802.594203 1409.037435 1410.924682 1413.878585 1413.648561 1415.726364 1419.222974
1802.739130 1409.112909 1411.016122 1414.002386 1413.734526 1415.824201 1419.290497
1802.884058 1409.158583 1411.085723 1414.086751 1413.819823 1415.951686 1419.384728
1803.028986 1409.195661 1411.132836 1414.167608 1413.906397 1416.046332 1419.449784
1803.173913 1409.244335 1411.178911 1414.262763 1413.990063 1416.157049 1419.510732
1803.318841 1409.273866 1411.262246 1414.351514 1414.073848 1416.244213 1419.573746
1803.463768 1409.325680 1411.349457 1414.409864 1414.156318 1416.316177 1419.673401
1803.608696 1409.358492 1411.431980 1414.495742 1414.239373 1416.428938 1419.818883
1803.753623 1409.463555 1411.515498 1414.581391 1414.323634 1416.553876 1419.897613
1803.898551 1409.480515 1411.581971 1414.644454 1414.409624 1416.706600 1419.948361
1804.043478 1409.526115 1411.656506 1414.737956 1414.493054 1416.811824 1420.101309
1804.188406 1409.604879 1411.714558 1414.819721 1414.578410 1416.925884 1420.214290
1804.333333 1409.664100 1411.744489 1414.907244 1414.662479 1417.013619 1420.281449
1804.478261 1409.699262 1411.765408 1415.010283 1414.748591 1417.132994 1420.463700
1804.623188 1409.745690 1411.817115 1415.087512 1414.834615 1417.255016 1420.542103
1804.768116 1409.792137 1411.856738 1415.172589 1414.922501 1417.335900 1420.604984
1804.913043 1409.826935 1411.910857 1415.286456 1415.011652 1417.453241 1420.657084
1805.057971 1409.882706 1411.950886 1415.396669 1415.096623 1417.617637 1420.736023
1805.202899 1409.938593 1411.990309 1415.466519 1415.178538 1417.670651 1420.806741
1805.347826 1410.048815 1412.023162 1415.562694 1415.264004 1417.777291 1420.967818
1805.492754 1410.135718 1412.073989 1415.661843 1415.347575 1417.915363 1421.017972
1805.637681 1410.203021 1412.115350 1415.775623 1415.431507 1418.006071 1421.069755
1805.782609 1410.257087 1412.156474 1415.852728 1415.518187 1418.096818 1421.212691
1805.927536 1410.305150 1412.200028 1415.933112 1415.601394 1418.181141 1421.275165
1806.072464 1410.357008 1412.243383 1416.002262 1415.687423 1418.300234 1421.319315
1806.217391 1410.401186 1412.288720 1416.092357 1415.771737 1418.415723 1421.429963
1806.362319 1410.441229 1412.328107 1416.165500 1415.857541 1418.541903 1421.545382
1806.507246 1410.492333 1412.379599 1416.274037 1415.941156 1418.616740 1421.602170
1806.652174 1410.560420 1412.454229 1416.365589 1416.024240 1418.737507 1421.692296
1806.797101 1410.605705 1412.509394 1416.453725 1416.109318 1418.818766 1421.844535
1806.942029 1410.657718 1412.567661 1416.519844 1416.194029 1418.936829 1422.019555
1807.086957 1410.694079 1412.604681 1416.610694 1416.276404 1419.082571 1422.147470
1807.231884 1410.751606 1412.659654 1416.681384 1416.363244 1419.164245 1422.185271
1807.376812 1410.799736 1412.700933 1416.789965 1416.448860 1419.299343 1422.329992
1807.521739 1410.842693 1412.753123 1416.876439 1416.532900 1419.410434 1422.377036
1807.666667 1410.869523 1412.787653 1416.943849 1416.616324 1419.499524 1422.442025
1807.811594 1410.900934 1412.822199 1417.007503 1416.697304 1419.612838 1422.494337
1807.956522 1410.990998 1412.856660 1417.115426 1416.780152 1419.727766 1422.556519
1808.101449 1411.039951 1412.897288 1417.185516 1416.865131 1419.831314 1422.622819
1808.246377 1411.105259 1412.927353 1417.309113 1416.954500 1419.942184 1422.701382
1808.391304 1411.140591 1412.959655 1417.422553 1417.038944 1420.039488 1422.808418
1808.536232 1411.161403 1412.987836 1417.508805 1417.126665 1420.187552 1422.959581
1808.681159 1411.214003 1413.013619 1417.626490 1417.212058 1420.279113 1423.044243
1808.826087 1411.248257 1413.044508 1417.713154 1417.298867 1420.394287 1423.150412
1808.971014 1411.317431 1413.092604 1417.812618 1417.386416 1420.544270 1423.286197
1809.115942 1411.376942 1413.160723 1417.879869 1417.472337 1420.701518 1423.365636
1809.260870 1411.437364 1413.217976 1417.954348 1417.558485 1420.832869 1423.590194
1809.405797 1411.482332 1413.266000 1418.024557 1417.643568 1420.992551 1423.690809
1809.550725 1411.542166 1413.310147 1418.141400 1417.733390 1421.102897 1423.816723
1809.695652 1411.595735 1413.348660 1418.252493 1417.821394 1421.233054 1423.950233
1809.840580 1411.664487 1413.434683 1418.360628 1417.907187 1421.317341 1424.013021
1809.985507 1411.721880 1413.503708 1418.492344 1417.997433 1421.400314 1424.098811
1810.130435 1411.797554 1413.579041 1418.611773 1418.094794 1421.561984 1424.212171
1810.275362 1411.856048 1413.659089 1418.709616 1418.195093 1421.668706 1424.439651
1810.420290 1411.958677 1413.739616 1418.872187 1418.296129 1421.822130 1424.509003
1810.565217 1412.131448 1413.867610 1418.956013 1418.404187 1421.928962 1424.751080
1810.710145 1412.290146 1413.969544 1419.071974 1418.518257 1422.063183 1424.866159
1810.855072 1412.353080 1414.114563 1419.166512 1418.646310 1422.195855 1424.980937
1811.000000 1412.439671 1414.269073 1419.276866 1418.777248 1422.321111 1425.128929
1811.144928 1412.557878 1414.416654 1419.397554 1418.922485 1422.449125 1425.269491
1811.289855 1412.747937 1414.607637 1419.487969 1419.070168 1422.576488 1425.416730
1811.434783 1412.915643 1414.848656 1419.639198 1419.220849 1422.723737 1425.498778
1811.579710 1413.349723 1415.066314 1419.783585 1419.373872 1422.809347 1425.640070
1811.724638 1413.531951 1415.267394 1419.953575 1419.536780 1422.935196 1425.778330
1811.869565 1413.837591 1415.556440 1420.083816 1419.701631 1423.052163 1425.861043
1812.014493 1414.112797 1415.813333 1420.205960 1419.875086 1423.202731 1426.158396
1812.159420 1414.344516 1416.033791 1420.366982 1420.049737 1423.295396 1426.353556
1812.304348 1414.591887 1416.241867 1420.525531 1420.221009 1423.436069 1426.484641
1812.449275 1414.870574 1416.493552 1420.680410 1420.395203 1423.559979 1426.745313
1812.594203 1414.998054 1416.763728 1420.852223 1420.573260 1423.727563 1426.902059
1812.739130 1415.200094 1417.013276 1421.043967 1420.754837 1423.845910 1427.045519
1812.884058 1415.316535 1417.245341 1421.185632 1420.934149 1423.989842 1427.149995
1813.028986 1415.601563 1417.527697 1421.377154 1421.113092 1424.148718 1427.282555
1813.173913 1415.757747 1417.762783 1421.539523 1421.298724 1424.275086 1427.472070
1813.318841 1415.877298 1417.933398 1421.762549 1421.477003 1424.439395 1427.629061
1813.463768 1416.087444 1418.198544 1421.885919 1421.660240 1424.582380 1427.814690
1813.608696 1416.259607 1418.429974 1422.031898 1421.842846 1424.752256 1428.016748
1813.753623 1416.430188 1418.737224 1422.179652 1422.030634 1424.921808 1428.188204
1813.898551 1416.731362 1418.917229 1422.423111 1422.211743 1425.092693 1428.275019
1814.043478 1416.944792 1419.143229 1422.569408 1422.391899 1425.208074 1428.341816
1814.188406 1417.227542 1419.354533 1422.704562 1422.576148 1425.403824 1428.573649
1814.333333 1417.382404 1419.615609 1422.880796 1422.760857 1425.545162 1428.659376
1814.478261 1417.686126 1419.926526 1423.031694 1422.944705 1425.729403 1428.821010
1814.623188 1417.835671 1420.098877 1423.151506 1423.131807 1425.905790 1428.978386
1814.768116 1418.023432 1420.267473 1423.347937 1423.320498 1426.173333 1429.229756
1814.913043 1418.193512 1420.461535 1423.513394 1423.495515 1426.294826 1429.341064
1815.057971 1418.304604 1420.661260 1423.664973 1423.678606 1426.408050 1429.454605
1815.202899 1418.511504 1420.868621 1423.786005 1423.858693 1426.604032 1429.639334
