depth(m) lower_95(kyr) lower_68(kyr) median(kyr) mean(kyr) upper_68(kyr) upper_95(kyr)
173.410000 1709.089518 1710.095932 1711.101435 1711.151721 1712.191704 1713.410777
173.510000 1709.849159 1710.918441 1712.296722 1712.547761 1714.062539 1716.966917
173.610000 1710.518588 1711.705527 1713.358340 1713.948236 1716.169157 1720.070001
173.745714 1711.347651 1712.736281 1715.135672 1716.343859 1720.698244 1725.592124
173.881429 1712.206396 1713.859175 1717.231874 1718.882624 1725.056154 1731.090722
174.017143 1713.042061 1715.028418 1719.289608 1721.377084 1729.915495 1736.216789
174.152857 1713.922116 1716.010422 1721.530194 1723.874348 1733.907014 1741.213690
174.288571 1714.854120 1717.173439 1723.454933 1726.303909 1738.146415 1745.174463
174.424286 1715.707889 1718.336986 1725.979758 1728.663593 1742.749795 1748.621454
174.560000 1716.655936 1719.445148 1728.428943 1731.128527 1747.073981 1753.090681
174.660000 1717.164731 1720.642011 1730.062211 1732.611249 1749.887825 1755.232830
174.760000 1717.986473 1721.667782 1731.472874 1734.028174 1751.877822 1756.459297
174.860000 1718.571310 1722.756005 1732.751090 1735.370313 1753.498875 1757.652053
174.960000 1719.479127 1723.936822 1734.181103 1736.701762 1754.979055 1758.971881
175.060000 1720.199209 1725.211654 1735.520613 1738.026856 1756.283736 1760.150457
175.160000 1720.906924 1726.706780 1736.978937 1739.362654 1757.390579 1760.902399
175.260000 1721.527938 1728.349345 1738.211920 1740.731609 1758.241996 1761.780023
175.360000 1722.141567 1730.171471 1739.724533 1742.160556 1759.084738 1762.468985
175.460000 1722.847512 1732.108291 1741.359678 1743.674829 1759.835725 1763.212509
175.560000 1723.507639 1733.918622 1743.080188 1745.166286 1760.485614 1763.872275
175.700000 1724.327941 1738.370012 1747.300931 1748.026067 1761.438051 1764.699689
175.840000 1725.257487 1742.956790 1751.107608 1750.815074 1762.327996 1765.570872
175.980000 1726.136918 1747.199994 1754.770060 1753.565265 1763.210207 1766.475357
176.120000 1726.989286 1751.746452 1758.335311 1756.310020 1764.305569 1767.359068
176.260000 1727.942592 1755.979827 1761.750036 1758.986230 1765.673669 1768.024899
176.360000 1728.525360 1758.510693 1763.282063 1760.365621 1766.654329 1768.730156
176.460000 1729.081977 1760.084082 1764.637539 1761.645827 1767.714185 1769.574450
176.560000 1729.775529 1761.337443 1765.785251 1762.699600 1768.535928 1770.753980
176.660000 1730.431979 1762.622023 1766.806333 1763.679350 1769.339397 1771.514877
176.760000 1730.975772 1763.605158 1767.701829 1764.534940 1770.072282 1772.213331
176.860000 1731.709902 1764.478972 1768.484110 1765.363571 1770.799787 1773.036376
176.960000 1732.154474 1765.207369 1769.311118 1766.173920 1771.457814 1774.027908
177.060000 1732.728654 1766.073689 1770.142941 1766.942369 1772.153971 1775.253202
177.188571 1733.583844 1766.994034 1771.163205 1767.941573 1772.990688 1776.357175
177.317143 1734.284367 1767.847224 1772.124727 1768.881541 1773.726652 1777.503752
177.445714 1734.971043 1768.758698 1772.960668 1769.787956 1774.589004 1778.565404
177.574286 1735.733994 1769.816543 1773.789792 1770.677980 1775.439991 1779.544541
177.702857 1736.358572 1770.721620 1774.534772 1771.542484 1776.267213 1780.285211
177.831429 1736.970299 1771.770209 1775.346841 1772.420088 1777.051838 1781.115667
177.960000 1737.703420 1772.477381 1776.188283 1773.294234 1777.872028 1782.212481
178.060000 1738.390544 1772.958714 1776.868382 1773.984654 1778.562930 1783.055030
178.160000 1739.029521 1773.687299 1777.464716 1774.692533 1779.288547 1783.906386
178.302857 1740.340117 1774.596416 1778.275723 1775.672206 1780.141971 1785.134655
178.445714 1741.528709 1775.391271 1779.103381 1776.639307 1781.019551 1786.374971
178.588571 1742.387839 1776.191219 1779.904128 1777.575716 1781.974301 1787.390066
178.731429 1743.315620 1777.038720 1780.728755 1778.492194 1782.933692 1788.714826
178.874286 1744.300769 1777.882195 1781.574264 1779.413336 1783.873578 1789.627174
179.017143 1745.190672 1778.854594 1782.374268 1780.341030 1784.705475 1790.603749
179.160000 1745.969032 1779.876635 1783.208466 1781.238743 1785.595916 1791.510608
179.303448 1747.373452 1780.670119 1784.076891 1782.159780 1786.601320 1792.267034
179.446897 1748.329179 1781.560219 1784.949393 1783.099174 1787.543861 1793.024885
179.590345 1749.664230 1782.437161 1785.823672 1784.035759 1788.569538 1793.981443
179.733793 1750.468756 1783.376709 1786.691411 1784.980170 1789.431021 1795.466748
179.877241 1751.324561 1784.349153 1787.558741 1785.949567 1790.402723 1796.272777
180.020690 1751.816708 1785.198704 1788.370690 1786.910249 1791.455710 1796.912015
180.164138 1752.336765 1786.171954 1789.229033 1787.840436 1792.289388 1797.743671
180.307586 1753.207287 1787.100739 1790.055775 1788.755655 1793.244419 1798.416862
180.451034 1753.762486 1788.043789 1791.029068 1789.699122 1794.164764 1799.260408
180.594483 1754.061912 1788.892276 1791.952468 1790.624640 1795.222164 1799.926985
180.737931 1754.566149 1789.867392 1792.806475 1791.576106 1796.062228 1800.775487
180.881379 1755.089823 1790.905474 1793.849897 1792.576390 1797.106284 1802.022756
181.024828 1755.654919 1791.837153 1794.777084 1793.512379 1797.985193 1802.822151
181.168276 1756.223329 1792.709897 1795.725564 1794.460192 1798.920437 1803.844588
181.311724 1756.742911 1793.585039 1796.498283 1795.384223 1799.876810 1804.528177
181.455172 1757.249044 1794.403846 1797.399888 1796.316577 1800.820036 1805.482686
181.598621 1757.970059 1795.248541 1798.235173 1797.232335 1801.816611 1806.314808
181.742069 1758.173001 1796.203964 1799.089573 1798.194935 1802.765018 1807.179227
181.885517 1758.567659 1797.101404 1799.957519 1799.154365 1803.811542 1808.087899
182.028966 1758.980617 1798.041574 1800.899448 1800.133975 1804.878233 1808.869817
182.172414 1759.482320 1798.867388 1801.848999 1801.070377 1805.884775 1809.744590
182.315862 1759.879047 1799.692517 1802.793169 1801.993218 1806.862935 1810.847559
182.459310 1760.473160 1800.514431 1803.805691 1802.954999 1807.959734 1811.955565
182.602759 1761.019380 1801.565814 1804.838561 1803.941127 1808.910834 1812.562919
182.746207 1761.530959 1802.514583 1805.928055 1804.935988 1809.928430 1813.540372
182.889655 1762.184412 1803.554703 1806.908558 1805.936932 1811.002120 1814.382596
183.033103 1762.718209 1804.401980 1807.994380 1806.940131 1812.095646 1815.282734
183.176552 1763.469234 1805.350202 1809.036991 1807.976502 1813.158729 1816.243969
183.320000 1764.112386 1806.266853 1810.087192 1809.003779 1814.252520 1817.007048
183.420000 1764.700309 1806.907250 1811.000867 1809.728921 1814.970148 1817.519010
183.520000 1765.203153 1807.610849 1811.855474 1810.521038 1815.781873 1818.278684
183.620000 1765.653912 1808.146648 1812.718543 1811.329146 1816.705939 1818.996419
183.720000 1766.088653 1808.734342 1813.620895 1812.120971 1817.578832 1819.564035
183.815000 1766.537719 1809.260422 1814.476670 1812.915275 1818.409620 1820.136060
183.910000 1767.073960 1809.738269 1815.687949 1813.714633 1819.262600 1820.827220
183.920000 1767.135631 1809.818694 1815.767115 1813.795154 1819.341129 1820.888162
184.020000 1767.683767 1810.592302 1816.385799 1814.638291 1820.288660 1821.540282
184.120000 1768.218855 1811.391285 1817.098189 1815.516430 1821.258659 1822.291383
184.215000 1768.963720 1812.356968 1817.778879 1816.318619 1822.070459 1823.001171
184.310000 1769.368304 1813.194759 1818.391335 1817.100968 1822.779464 1823.529503
184.320000 1769.431637 1813.282010 1818.440339 1817.176286 1822.859140 1823.583253
184.420000 1770.146424 1814.166562 1819.060472 1817.877950 1823.352703 1824.407505
184.520000 1772.147304 1815.119344 1819.742935 1818.554627 1823.859629 1825.192518
184.615000 1772.784192 1815.835502 1820.413686 1819.187585 1824.311205 1826.399471
184.710000 1773.294646 1816.562332 1821.051003 1819.818961 1824.784188 1827.039146
184.820000 1774.239342 1817.296566 1821.955254 1820.534749 1825.348435 1827.777596
184.920000 1774.879377 1817.896201 1822.853616 1821.208487 1825.812868 1828.732036
185.020000 1775.567882 1818.493214 1823.881513 1821.865329 1826.282177 1830.023645
185.120000 1775.892361 1819.193666 1824.740263 1822.519782 1826.790153 1831.098020
185.220000 1776.582239 1819.718443 1825.698769 1823.192970 1827.296446 1832.107680
185.315000 1777.125887 1820.191734 1826.495109 1823.841507 1827.863279 1832.971443
185.410000 1777.750105 1820.781070 1827.123113 1824.501306 1828.430344 1833.750281
185.420000 1777.897847 1820.920055 1827.176316 1824.580046 1828.529211 1833.931266
185.555000 1779.486777 1822.759207 1828.026192 1825.819073 1830.221453 1834.902262
185.690000 1784.599045 1823.794020 1829.028638 1827.163912 1832.053391 1836.661851
185.825000 1786.840969 1824.582830 1830.026432 1828.459902 1833.926920 1838.404524
185.960000 1790.858523 1825.304545 1831.188349 1829.726703 1835.636161 1840.002785
186.088571 1794.569761 1826.142936 1832.440312 1830.987894 1837.082546 1841.633758
186.217143 1799.045936 1826.872664 1833.730945 1832.214404 1838.564344 1842.975133
186.345714 1800.277132 1827.517338 1835.053874 1833.445376 1839.980147 1844.430743
186.474286 1802.214896 1828.086356 1836.313261 1834.632079 1841.418831 1845.762446
186.602857 1804.887139 1828.730950 1837.496500 1835.816572 1842.738353 1847.981739
186.731429 1808.076638 1829.698761 1838.555517 1837.000516 1844.185702 1849.425619
186.860000 1814.457233 1830.530025 1839.601297 1838.155960 1845.271150 1851.967862
186.997500 1817.465121 1831.597627 1840.718612 1839.328026 1846.380640 1853.971129
187.135000 1818.946787 1832.690169 1841.726675 1840.538562 1847.561413 1857.277696
187.272500 1820.824205 1833.817602 1843.205855 1841.757744 1848.761499 1860.353816
187.410000 1823.152498 1834.948208 1844.509919 1842.920766 1849.755021 1862.799643
187.547500 1824.188948 1835.775676 1845.648089 1844.059026 1850.747607 1865.142898
187.685000 1825.229814 1836.816438 1846.891252 1845.196948 1851.773354 1868.911081
187.822500 1827.160294 1838.021044 1847.785597 1846.335813 1853.150317 1871.417130
187.960000 1827.934990 1839.308941 1848.813400 1847.476849 1854.170531 1873.898435
188.102791 1828.851190 1840.762185 1849.995260 1848.742430 1855.689613 1875.978982
188.245581 1829.102082 1842.023303 1851.125098 1850.012349 1857.125300 1878.572691
188.388372 1829.630289 1843.121379 1852.046815 1851.208812 1858.338168 1879.922191
188.531163 1830.513368 1844.136126 1853.118082 1852.429638 1860.030424 1881.782051
188.673953 1831.257503 1845.209997 1854.035736 1853.647906 1861.690588 1884.020956
188.816744 1832.030518 1846.230294 1855.151983 1854.891587 1863.160137 1885.240154
188.959535 1832.481426 1847.491069 1855.982931 1856.122124 1865.097198 1886.150335
189.102326 1833.171280 1848.645285 1857.025123 1857.296488 1866.617467 1887.074128
189.245116 1833.715090 1849.775107 1857.844541 1858.451855 1868.266839 1888.262529
189.387907 1834.132894 1850.705552 1858.742797 1859.633159 1869.915952 1889.792470
189.530698 1834.549010 1851.686611 1859.760072 1860.864718 1871.170167 1890.549343
189.673488 1834.878569 1852.396549 1860.950915 1862.078417 1872.982654 1891.573449
189.816279 1835.473214 1853.293431 1861.747884 1863.278729 1874.839372 1892.855945
189.959070 1836.036374 1854.361098 1862.630547 1864.518496 1876.337981 1894.015644
190.101860 1836.443459 1855.289995 1863.565532 1865.720870 1878.141476 1895.872356
190.244651 1836.829458 1855.986326 1864.310990 1866.914954 1880.074748 1897.150413
190.387442 1837.501053 1856.947670 1865.143365 1868.155455 1881.626821 1898.269142
190.530233 1837.839394 1857.911619 1866.097371 1869.370880 1883.469242 1899.919981
190.673023 1838.306445 1858.961581 1866.917569 1870.575757 1884.959777 1900.810870
190.815814 1838.700496 1859.699638 1867.603018 1871.838464 1886.697717 1902.535048
190.958605 1838.998852 1860.748343 1868.498717 1873.007580 1888.635295 1903.719767
191.101395 1839.236967 1861.744089 1869.199655 1874.277773 1890.155822 1905.795853
191.244186 1839.644540 1862.621358 1869.972242 1875.505438 1891.927930 1907.035668
191.386977 1839.987621 1863.441923 1870.769361 1876.728985 1893.525274 1909.100622
191.529767 1840.343429 1864.173337 1871.522945 1877.940466 1895.588221 1910.640043
191.672558 1840.783141 1865.034129 1872.283759 1879.144983 1897.155581 1911.847256
191.815349 1841.158578 1865.745218 1872.947738 1880.305632 1898.789780 1912.622677
191.958140 1841.595347 1866.533107 1873.718751 1881.535828 1900.590322 1913.859172
192.100930 1842.112644 1867.332212 1874.472290 1882.723096 1902.034846 1914.426594
192.243721 1842.415859 1868.119738 1875.232882 1883.958574 1903.938985 1915.125153
192.386512 1842.728750 1868.956842 1875.840712 1885.184871 1905.557736 1915.677523
192.529302 1843.132291 1869.802282 1876.633311 1886.389094 1907.540139 1916.226977
192.672093 1843.482918 1870.778839 1877.377491 1887.619753 1909.122322 1917.279517
192.814884 1843.921540 1871.629705 1878.159011 1888.767203 1910.527694 1918.618169
192.957674 1844.229669 1872.456748 1878.940756 1889.956026 1912.170975 1919.770886
193.100465 1844.482413 1873.195388 1879.730681 1891.136232 1914.073086 1920.898607
193.243256 1844.941170 1874.018721 1880.422004 1892.372991 1915.694142 1921.848324
193.386047 1845.546373 1874.806967 1881.248888 1893.566453 1917.410891 1923.254295
193.528837 1845.951517 1875.629023 1881.917117 1894.790646 1919.088013 1924.472796
193.671628 1846.503437 1876.635042 1882.512396 1895.982111 1920.649510 1925.491305
193.814419 1846.914586 1877.403965 1883.208233 1897.103204 1922.192909 1926.757295
193.957209 1847.527167 1878.345056 1883.987892 1898.213481 1923.437967 1927.862034
194.100000 1847.890135 1879.143671 1884.613758 1899.280339 1924.558851 1928.809992
194.228750 1848.437519 1879.732119 1885.258388 1900.185755 1925.597970 1930.371548
194.357500 1848.806332 1880.432958 1885.874075 1901.092298 1926.709208 1931.456710
194.486250 1849.190406 1881.111075 1886.467583 1901.991904 1927.606993 1932.597874
194.615000 1849.540731 1881.858141 1887.078863 1902.857030 1928.529728 1933.134273
194.743750 1850.108711 1882.692574 1887.671028 1903.697390 1929.257186 1934.078594
194.872500 1850.625157 1883.339295 1888.358319 1904.557182 1930.059573 1934.775885
195.001250 1851.165562 1884.147854 1889.044911 1905.395289 1931.050463 1935.370676
195.130000 1851.670214 1884.951821 1889.650429 1906.193957 1931.738827 1936.018689
195.270000 1852.086867 1885.812033 1890.289447 1907.045571 1932.473028 1936.666818
195.410000 1852.854021 1886.621068 1890.900940 1907.871139 1933.250004 1937.334837
195.550000 1853.254094 1887.378602 1891.633396 1908.703010 1934.007843 1938.098291
195.690000 1853.815008 1888.197730 1892.289494 1909.520345 1934.687040 1938.761309
195.830000 1854.782905 1888.935176 1892.950721 1910.370594 1935.373544 1939.405793
195.970000 1855.410710 1889.769736 1893.593096 1911.218258 1936.244315 1940.057157
196.110000 1856.105651 1890.639632 1894.344334 1912.089037 1937.045547 1940.730921
196.250000 1856.602977 1891.602547 1895.206322 1912.956536 1937.838110 1941.647470
196.385714 1857.652352 1892.440600 1896.644449 1913.992517 1938.923651 1942.745648
196.521429 1859.219955 1893.380666 1898.117923 1915.074187 1940.027133 1943.993753
196.657143 1860.199490 1894.364745 1899.534365 1916.156185 1941.056897 1945.944946
196.792857 1861.135538 1895.415221 1901.575900 1917.281010 1941.964539 1947.738352
196.928571 1862.656952 1896.529764 1903.199086 1918.364774 1943.039722 1948.485545
197.064286 1863.646480 1897.530543 1904.771012 1919.417847 1944.140251 1950.110537
197.200000 1864.937887 1898.474334 1906.173572 1920.495700 1945.097618 1951.851321
197.343750 1866.632560 1899.330141 1907.746766 1921.572495 1945.972434 1953.375533
197.487500 1867.519270 1900.198717 1909.349858 1922.617922 1946.706539 1954.833798
197.631250 1868.771221 1901.056635 1911.210506 1923.648786 1947.775392 1956.568568
197.775000 1870.507184 1902.051090 1913.467791 1924.626611 1948.715427 1957.978127
197.918750 1872.466634 1902.939149 1914.673145 1925.638766 1949.535074 1960.033924
198.062500 1873.559890 1903.897074 1916.053693 1926.627702 1950.298184 1961.691211
198.206250 1874.224273 1904.837301 1917.062729 1927.596510 1951.081111 1963.283085
198.350000 1875.818622 1906.024278 1918.623053 1928.556416 1951.815126 1964.577512
198.494948 1876.660699 1906.810571 1919.814099 1929.512133 1952.499783 1965.389624
198.639897 1878.597361 1907.954833 1921.576108 1930.469561 1953.443346 1966.215615
198.784845 1880.458519 1908.791782 1923.373260 1931.387668 1954.195977 1967.351952
198.929794 1881.577680 1909.919778 1924.782008 1932.268656 1954.894567 1968.118569
199.074742 1883.352639 1910.767235 1926.242249 1933.214170 1955.636157 1968.923968
199.219691 1884.227276 1911.503447 1927.451705 1934.142183 1956.417219 1969.782858
199.364639 1885.299772 1912.446987 1928.532070 1935.035001 1957.169944 1970.788508
199.509588 1886.303895 1913.464800 1929.707487 1935.906319 1957.783276 1971.555728
199.654536 1887.336150 1914.113492 1930.772213 1936.785015 1958.392848 1972.314246
199.799485 1890.254265 1915.151300 1932.357487 1937.682803 1959.031334 1972.993907
199.944433 1891.450373 1915.797325 1933.235686 1938.566131 1959.593430 1974.069390
200.089381 1892.791407 1916.833456 1934.661053 1939.429635 1960.241867 1975.488188
200.234330 1893.311124 1917.740083 1935.964272 1940.320037 1961.040669 1976.631233
200.379278 1895.321163 1918.697305 1937.340223 1941.165040 1961.551900 1977.863052
200.524227 1896.508388 1919.297893 1938.917842 1942.049186 1962.337146 1979.336447
200.669175 1897.592572 1920.452958 1940.336619 1942.941440 1962.989945 1980.056482
200.814124 1899.495240 1921.298621 1942.735233 1943.849367 1963.597367 1981.465116
200.959072 1902.261877 1921.880925 1943.568342 1944.743891 1964.143339 1983.567163
201.104021 1904.696181 1922.707359 1944.853742 1945.626328 1965.002824 1985.124659
201.248969 1905.912664 1923.412257 1946.511197 1946.517422 1965.645048 1986.069237
201.393918 1907.368060 1924.410150 1947.648822 1947.363139 1966.325077 1986.984635
201.538866 1908.699078 1925.208660 1949.000673 1948.283018 1967.054135 1987.820463
201.683814 1909.910373 1925.958006 1951.152684 1949.177127 1967.876190 1989.034939
201.828763 1911.149514 1926.704939 1951.646962 1950.080070 1968.781307 1991.609847
201.973711 1912.563164 1927.496010 1952.242136 1950.975436 1969.534409 1993.274426
202.118660 1914.627558 1928.455392 1953.398649 1951.896510 1970.161922 1995.517171
202.263608 1915.542393 1929.477318 1954.588175 1952.809325 1970.957553 1996.400134
202.408557 1916.579494 1930.195156 1955.502268 1953.716360 1971.653062 1998.326065
202.553505 1918.150271 1930.928493 1956.894287 1954.606812 1972.443991 1999.375005
202.698454 1918.632756 1931.897602 1957.749109 1955.495742 1973.028332 2000.334802
202.843402 1919.568620 1932.640329 1958.418419 1956.370936 1973.790430 2000.713460
202.988351 1920.706498 1933.445925 1959.161480 1957.265210 1974.732431 2002.073200
203.133299 1921.724517 1934.175154 1960.062172 1958.154420 1975.721446 2002.707313
203.278247 1922.732678 1934.795820 1961.154675 1959.012980 1976.596329 2004.621323
203.423196 1923.708145 1935.521996 1962.029837 1959.903691 1977.238139 2005.714884
203.568144 1924.554863 1936.155650 1962.974009 1960.799657 1977.857250 2006.885845
203.713093 1925.407884 1936.888435 1963.789518 1961.659716 1978.782581 2008.087199
203.858041 1926.389205 1937.573176 1964.597045 1962.536040 1979.507769 2008.981633
204.002990 1927.205125 1938.075853 1965.576868 1963.395534 1980.424146 2010.258221
204.147938 1927.932908 1939.028871 1966.681413 1964.270973 1981.073212 2011.346322
204.292887 1928.793084 1939.921215 1967.657814 1965.153753 1981.999086 2013.105224
204.437835 1929.483295 1940.627958 1968.485578 1966.061984 1982.943728 2014.033030
204.582784 1930.266293 1941.304694 1969.151573 1966.974402 1983.584947 2015.112913
204.727732 1930.983457 1942.010333 1970.148821 1967.865456 1984.331006 2016.400842
