depth(m) lower_95(kyr) lower_68(kyr) median(kyr) mean(kyr) upper_68(kyr) upper_95(kyr)
91.380000 1401.654423 1402.526177 1403.437826 1403.438445 1404.333905 1405.309834
91.520000 1403.005536 1403.984942 1405.114057 1405.287953 1406.465653 1408.634357
91.660000 1404.346247 1405.335400 1406.842527 1407.150373 1408.692087 1412.506599
91.800000 1405.460176 1406.776334 1408.457879 1408.972050 1411.270005 1415.006749
91.940000 1406.701252 1408.124407 1410.181763 1410.823541 1413.819964 1417.420998
92.080000 1407.979691 1409.672715 1411.900472 1412.694426 1416.121669 1420.229891
92.216364 1409.534668 1411.114800 1413.677121 1414.465511 1418.228816 1422.200717
92.352727 1410.821511 1412.715536 1415.593193 1416.224256 1419.968399 1425.066522
92.489091 1412.210526 1414.317256 1417.564755 1418.061677 1421.960684 1426.789772
92.625455 1413.643721 1415.819060 1419.282284 1419.882875 1423.830564 1429.049391
92.761818 1415.261311 1417.366085 1421.014744 1421.684653 1425.899166 1431.162041
92.898182 1416.692969 1419.183667 1422.925376 1423.566565 1427.794303 1433.512785
93.034545 1418.219914 1421.086216 1424.791333 1425.458939 1429.528771 1435.460818
93.170909 1419.959463 1422.810179 1426.504335 1427.292150 1431.447336 1437.603771
93.307273 1421.909013 1424.806136 1428.475758 1429.255382 1433.638790 1439.202147
93.443636 1423.771800 1426.910001 1430.419059 1431.239762 1435.492267 1440.915705
93.580000 1425.727043 1428.882207 1432.442760 1433.261318 1437.519035 1442.730983
93.705000 1427.162921 1430.582525 1434.404545 1435.085227 1439.446140 1444.198293
93.830000 1428.787048 1432.180839 1436.134082 1436.935053 1441.503340 1445.886549
93.955000 1430.382416 1433.951307 1438.206475 1438.792072 1443.520283 1447.435244
94.080000 1431.940190 1435.786885 1440.082974 1440.678855 1445.413886 1449.273562
94.205000 1433.610418 1437.741726 1442.524587 1442.698965 1447.277301 1450.890197
94.330000 1435.479226 1439.924518 1444.804549 1444.813234 1449.200978 1452.532265
94.470000 1438.204130 1442.442174 1447.502438 1447.496690 1451.628199 1455.359231
94.610000 1440.970281 1445.487753 1450.447189 1450.295158 1454.152460 1458.438227
94.750000 1444.007602 1448.573388 1452.940464 1453.080325 1456.817594 1460.635197
94.890000 1448.340323 1451.973849 1455.618055 1455.890931 1459.243418 1462.714301
95.030000 1452.738038 1454.826340 1458.260334 1458.704248 1461.778701 1465.209130
95.166364 1454.773181 1457.205123 1460.876002 1461.315232 1464.556915 1469.092254
95.302727 1456.489638 1459.458024 1463.262281 1463.759214 1467.417510 1472.575778
95.439091 1458.264920 1461.525734 1465.660765 1466.171214 1470.292094 1474.940079
95.575455 1460.292606 1463.967328 1467.961204 1468.610235 1472.837942 1477.549051
95.711818 1462.196799 1466.091754 1470.632800 1470.931999 1475.201044 1479.418933
95.848182 1463.915224 1468.189746 1472.936683 1473.251868 1477.716345 1481.432123
95.984545 1466.134208 1470.539259 1475.285353 1475.573312 1479.993839 1483.838241
96.120909 1468.533844 1472.970485 1477.758301 1477.862924 1481.994457 1485.573753
96.257273 1471.018672 1475.317021 1480.281777 1480.232821 1484.229002 1487.197209
96.393636 1473.672542 1477.496285 1482.720035 1482.541476 1486.197438 1488.836871
96.530000 1475.849521 1480.229219 1485.177929 1484.977504 1488.241813 1490.834256
96.663333 1478.144518 1483.071214 1487.289706 1487.338023 1490.371229 1493.667339
96.796667 1480.790069 1485.808228 1489.583811 1489.707078 1492.601773 1497.414293
96.930000 1482.954566 1488.284697 1491.920050 1492.132445 1494.881042 1500.868601
97.063333 1486.470476 1490.813648 1494.027153 1494.606519 1497.221755 1503.688608
97.196667 1490.610438 1493.590764 1496.045584 1497.064304 1499.714368 1508.412977
97.330000 1494.070171 1495.881972 1498.084625 1499.368009 1501.801104 1510.760056
97.470000 1495.569483 1497.652733 1500.179395 1501.637767 1504.418530 1518.512617
97.610000 1497.073550 1499.353341 1502.146363 1503.908174 1507.306985 1530.011172
97.750000 1498.959136 1501.154184 1504.175573 1506.144952 1509.791574 1535.444103
97.890000 1500.354692 1503.072975 1506.189929 1508.472966 1513.359524 1538.001080
98.030000 1502.081267 1504.903232 1508.106311 1510.774751 1515.985990 1540.676384
98.130000 1503.295735 1506.329169 1509.695656 1512.431941 1517.672311 1541.451099
98.266000 1504.929342 1508.158589 1512.613321 1515.261102 1521.705336 1543.962454
98.402000 1506.445906 1510.348469 1515.742160 1518.063494 1524.341627 1545.804570
98.538000 1507.955164 1512.448353 1519.654913 1521.019593 1526.855048 1547.371747
98.674000 1509.465830 1514.662930 1523.367166 1523.973369 1529.300744 1551.847345
98.810000 1510.951527 1517.271649 1526.703064 1526.915917 1531.575126 1553.122872
98.930000 1512.855081 1519.969018 1528.612945 1529.123930 1533.723105 1556.182954
99.070000 1515.378540 1523.460255 1530.802947 1531.685858 1536.508797 1559.969411
99.210000 1518.619112 1526.512849 1532.959353 1534.212054 1539.100370 1564.688644
99.350000 1521.876182 1529.771598 1535.118651 1536.822475 1541.859566 1568.432515
99.490000 1526.533424 1532.452958 1537.455373 1539.486818 1544.173815 1572.988004
99.630000 1530.467163 1535.436931 1539.796946 1542.238988 1546.515055 1577.805387
99.763333 1533.211546 1537.641559 1542.388115 1544.963890 1549.581655 1582.901831
99.896667 1535.711722 1540.378137 1545.386720 1547.907350 1552.607442 1588.816781
100.030000 1538.611421 1542.976067 1548.187588 1550.872401 1555.497267 1593.666473
100.163333 1540.770447 1545.346569 1550.907380 1553.645493 1558.215934 1598.171583
100.296667 1543.421169 1547.830662 1554.095518 1556.428957 1560.498977 1600.918411
100.430000 1545.972579 1550.659166 1556.772372 1559.186531 1562.681718 1605.672893
100.570000 1547.654710 1553.175640 1559.487512 1561.980701 1564.932503 1610.828226
100.710000 1549.049564 1555.455322 1561.930632 1564.656882 1566.880790 1617.878632
100.850000 1551.277204 1557.306220 1564.350774 1567.143603 1569.069286 1625.943157
100.990000 1553.251528 1559.707139 1566.403099 1569.601447 1570.923783 1632.192388
101.130000 1555.543259 1562.076643 1568.509585 1572.002975 1572.863339 1639.324261
101.263333 1557.870859 1564.326029 1570.176420 1574.157630 1574.605394 1642.102372
101.396667 1560.055478 1566.406392 1571.727254 1576.312932 1576.442968 1645.144275
101.530000 1562.612622 1568.782739 1573.547963 1578.421849 1578.125380 1648.824180
101.663333 1565.694120 1570.940124 1575.317802 1580.530022 1579.808753 1651.811793
101.796667 1568.380868 1572.964905 1576.961812 1582.641698 1581.583344 1653.995488
101.930000 1571.346774 1575.068251 1578.698865 1584.752571 1583.375258 1656.865357
102.050000 1573.614434 1576.790742 1580.611622 1586.742808 1585.344666 1659.080720
102.170000 1575.412988 1578.545009 1582.515901 1588.675554 1586.975132 1661.530508
102.290000 1577.187030 1580.496364 1584.505902 1590.661860 1588.821323 1663.767731
102.410000 1579.011805 1582.185705 1586.388309 1592.592307 1590.754412 1666.339685
102.530000 1580.775973 1584.135507 1588.188390 1594.451601 1592.523482 1668.426001
102.663333 1582.192724 1586.202222 1590.318899 1596.581982 1594.642625 1670.682748
102.796667 1584.190873 1588.284939 1592.382002 1598.694312 1596.542840 1672.616229
102.930000 1586.437473 1590.715859 1594.516087 1600.973788 1598.478407 1674.722526
103.063333 1588.903358 1593.424005 1596.782482 1603.314867 1600.408382 1676.834822
103.196667 1591.274971 1595.999651 1598.902383 1605.601460 1602.502750 1678.418272
103.330000 1594.066654 1598.594879 1601.125983 1607.964264 1604.555180 1680.200015
103.400000 1595.290800 1599.802538 1602.316786 1609.189104 1606.113649 1680.996373
103.526000 1596.996973 1601.472170 1604.471560 1611.616998 1610.238279 1682.900482
103.652000 1598.538115 1603.278146 1606.726381 1614.169053 1614.690571 1684.471443
103.778000 1600.406743 1605.060294 1608.945616 1616.730103 1619.023351 1686.238120
103.904000 1602.574032 1606.958526 1611.709848 1619.428964 1623.076945 1687.998291
104.030000 1604.280053 1608.767155 1614.163039 1622.143803 1627.670342 1689.856651
104.115000 1605.617534 1610.137320 1616.365846 1623.955577 1629.860909 1691.196817
104.200000 1607.430940 1611.593133 1618.217157 1625.785953 1631.725317 1692.515378
104.326000 1609.168414 1613.818137 1621.151650 1628.582515 1634.350172 1694.654530
104.452000 1611.819317 1616.462717 1624.789813 1631.563701 1636.971022 1696.374236
104.578000 1613.418616 1619.074401 1628.255667 1634.495895 1639.281741 1698.351901
104.704000 1615.619410 1621.614084 1631.457445 1637.521541 1641.805783 1700.378240
104.830000 1617.942154 1624.592531 1634.635506 1640.585495 1644.569227 1702.365568
104.970000 1620.095869 1629.005774 1638.748297 1644.444743 1649.169966 1705.080703
105.110000 1622.070493 1632.844615 1642.732571 1648.352553 1655.258615 1707.305877
105.250000 1623.691545 1637.734413 1646.625850 1652.319469 1660.724639 1710.074819
105.390000 1625.649319 1642.418208 1650.566426 1656.321930 1664.253484 1712.735240
105.530000 1627.585900 1647.039460 1654.465413 1660.283140 1668.598973 1714.794814
105.663333 1629.566106 1650.211351 1658.587851 1664.165782 1678.966689 1717.624191
105.796667 1631.203626 1652.830823 1662.622845 1668.016346 1686.342786 1720.017976
105.930000 1633.492164 1655.337477 1666.247655 1671.789403 1692.927576 1722.760462
106.063333 1635.506439 1658.398414 1670.360471 1675.679213 1699.779227 1726.494689
106.196667 1637.815058 1661.630779 1674.104064 1679.404268 1707.065360 1728.968306
106.330000 1639.786822 1665.777110 1677.652236 1683.024891 1712.048411 1730.107436
106.466364 1641.463330 1668.588884 1682.544899 1686.841716 1715.838885 1732.988630
106.602727 1643.227124 1671.110800 1687.236777 1690.792037 1719.491341 1735.513581
106.739091 1645.320945 1674.333841 1692.550115 1694.624776 1721.941129 1738.155524
106.875455 1647.053462 1677.593859 1697.910137 1698.667406 1726.341960 1740.720329
107.011818 1649.101714 1681.274493 1703.458572 1702.568013 1729.953051 1743.159643
107.148182 1651.133372 1684.508052 1709.124186 1706.549310 1733.216368 1746.026719
107.284545 1653.638533 1687.451602 1714.985264 1710.449980 1736.979939 1748.444530
107.420909 1655.373872 1690.785621 1719.562304 1714.258169 1740.290207 1751.438784
107.557273 1657.955371 1694.598570 1724.856004 1717.980917 1743.563695 1753.716286
107.693636 1659.654013 1697.868140 1730.007289 1721.751352 1746.984033 1755.779165
107.830000 1662.293027 1701.220932 1736.388979 1725.506647 1750.250101 1758.567773
107.970000 1664.546214 1703.864275 1741.447300 1729.350188 1753.816887 1762.024675
108.110000 1667.860695 1707.265105 1746.759052 1733.214772 1757.672728 1766.751743
108.250000 1671.089768 1710.068579 1751.668268 1737.010647 1761.489519 1769.082785
108.390000 1673.240250 1713.054839 1756.195422 1740.650129 1765.284183 1772.670420
108.530000 1675.957072 1716.098075 1760.216039 1744.173786 1768.678429 1774.853383
108.580000 1676.922275 1717.071454 1761.490466 1745.301757 1769.785399 1775.810020
108.705000 1678.692316 1719.639151 1763.756317 1747.923789 1772.278275 1777.858038
108.830000 1680.698007 1721.736419 1766.274171 1750.506594 1774.809033 1779.948096
108.955000 1682.598464 1724.136351 1768.933312 1753.011862 1777.126613 1782.926829
109.080000 1684.586159 1726.307994 1771.427862 1755.635775 1779.227585 1784.976802
109.205000 1687.135102 1729.018100 1774.268451 1758.173010 1781.630462 1788.699262
109.330000 1689.000876 1731.568024 1776.810253 1760.725295 1783.784705 1790.170177
109.380000 1689.661507 1732.647804 1778.161472 1761.837558 1784.744398 1790.875849
109.520000 1692.179333 1736.269118 1780.855353 1764.903627 1787.622346 1794.830031
109.660000 1694.130136 1738.975622 1783.536015 1767.862599 1790.377644 1798.215697
109.800000 1696.762424 1741.911078 1786.345440 1770.832849 1793.007435 1804.933456
109.940000 1698.976968 1744.650011 1789.289990 1773.889441 1795.681213 1808.124855
110.080000 1702.257145 1747.734516 1792.439028 1776.931056 1798.637857 1814.552960
110.213333 1705.420696 1749.841307 1795.260277 1780.193570 1801.887542 1817.736290
110.346667 1708.148048 1752.632028 1798.159992 1783.288540 1805.420737 1820.862409
110.480000 1711.036507 1754.884769 1800.907316 1786.498163 1809.218005 1824.404862
110.613333 1713.333369 1757.574079 1803.920618 1789.753173 1812.797569 1829.489364
110.746667 1716.294219 1760.361796 1806.738911 1792.945772 1816.740028 1834.406881
110.880000 1718.912240 1762.820635 1809.622557 1796.118826 1820.383950 1837.830546
111.022000 1721.687183 1765.840384 1812.607525 1799.505362 1824.179931 1840.821654
111.164000 1724.662539 1768.878765 1815.168446 1802.805096 1828.393618 1845.094618
111.306000 1726.290501 1771.345864 1817.760809 1805.962110 1832.899112 1846.944255
111.448000 1729.016344 1774.001054 1820.603827 1809.302992 1836.881575 1850.492966
111.590000 1732.177962 1777.074159 1823.230698 1812.582210 1841.572073 1853.862380
111.723333 1734.905767 1780.327918 1825.415669 1815.654365 1845.634561 1857.411556
111.856667 1737.731311 1783.134832 1827.707092 1818.674477 1849.268847 1860.344999
111.990000 1740.204696 1786.560180 1829.571400 1821.578688 1853.117057 1863.315921
112.123333 1742.951216 1789.213619 1831.544712 1824.566432 1856.918845 1866.176226
112.256667 1746.147132 1792.167374 1834.017419 1827.637727 1860.729551 1869.555018
112.390000 1748.906499 1794.841266 1836.017814 1830.677116 1864.587968 1872.181628
112.523333 1751.702812 1797.660766 1838.095801 1833.819184 1868.612561 1875.480161
112.656667 1754.429172 1800.373335 1840.469580 1836.902780 1872.655509 1878.828539
112.790000 1757.405224 1804.053765 1842.490038 1839.970406 1876.676746 1881.806744
112.896667 1760.681149 1806.640849 1844.049630 1842.382235 1879.205393 1885.239846
113.003333 1763.753674 1809.126608 1845.703944 1844.888402 1881.916327 1887.658931
113.110000 1767.053980 1811.933326 1847.324188 1847.254215 1884.626598 1889.784981
113.230000 1770.197626 1814.671582 1849.084321 1849.734385 1887.157564 1891.803932
113.350000 1773.096760 1817.465138 1850.831774 1852.213201 1889.767797 1893.575440
113.470000 1776.250189 1820.993621 1852.737576 1854.698974 1892.195702 1895.671033
113.590000 1780.102491 1823.958628 1854.756517 1857.197903 1894.499717 1897.426288
113.696667 1783.845528 1826.788233 1856.814318 1859.470524 1896.687790 1899.782125
113.803333 1786.627910 1829.477463 1858.720093 1861.791377 1898.860699 1902.048415
113.910000 1789.373278 1831.800052 1860.780014 1863.944756 1900.893173 1904.171052
114.041111 1792.881887 1834.925808 1862.805513 1866.291721 1902.916103 1906.308351
114.172222 1796.566508 1837.471744 1865.061301 1868.622442 1904.920704 1908.346387
114.303333 1799.262433 1840.761439 1866.679073 1870.906618 1906.756593 1910.183407
114.434444 1802.012385 1843.131120 1868.674403 1873.193761 1908.625112 1912.447797
114.565556 1806.144083 1846.020979 1870.595336 1875.412107 1910.447256 1914.549474
114.696667 1810.592532 1849.186299 1872.645899 1877.614727 1912.338550 1916.702443
114.827778 1812.553721 1852.241017 1874.647590 1879.819223 1914.094664 1918.669845
114.958889 1816.716870 1854.453697 1876.473719 1881.994704 1915.953846 1920.268798
115.090000 1819.586163 1856.980814 1878.293418 1884.147757 1917.804921 1921.984982
115.230000 1822.924177 1860.379460 1880.125633 1886.375059 1919.661793 1923.850699
115.370000 1824.908948 1862.814963 1881.843143 1888.667306 1921.329447 1925.992697
115.510000 1829.131496 1865.534254 1883.630613 1890.939731 1923.094729 1927.496930
115.650000 1833.246911 1868.638928 1885.209225 1893.340579 1924.926447 1929.251639
115.790000 1836.572866 1871.746583 1886.879572 1895.652487 1926.749023 1930.984522
115.923333 1838.720773 1874.757162 1888.426180 1897.895559 1928.538508 1932.458585
116.056667 1840.703150 1877.307646 1889.912606 1900.117143 1930.254926 1934.301558
116.190000 1843.219625 1880.867241 1891.468689 1902.463731 1932.033843 1936.008730
116.323333 1846.433795 1883.308439 1893.147235 1904.826697 1933.916283 1937.596643
116.456667 1849.184131 1885.981383 1894.745611 1907.240578 1935.792690 1939.529314
116.590000 1851.478410 1888.776144 1896.419667 1909.582852 1937.677097 1941.800332
116.730000 1854.614916 1891.008931 1898.791611 1912.145629 1939.799858 1944.290731
116.870000 1857.660042 1894.029255 1901.418791 1914.707170 1942.185533 1946.763916
117.010000 1859.812628 1896.583506 1903.677777 1917.371722 1944.751722 1950.396095
117.150000 1862.954421 1899.138744 1906.051133 1920.065418 1946.973986 1953.267391
117.290000 1866.435629 1901.806209 1908.908683 1922.826452 1949.468617 1956.461868
117.423333 1869.217906 1904.325008 1912.521131 1925.586257 1952.009636 1959.425115
117.556667 1871.299296 1906.567658 1915.994964 1928.166406 1954.622994 1962.081482
117.690000 1874.176969 1909.061246 1919.206412 1930.980601 1957.678644 1965.834222
117.823333 1876.706773 1911.596892 1922.192127 1933.692809 1960.694075 1968.444753
117.956667 1879.364006 1914.031922 1924.854481 1936.505696 1963.573248 1971.582695
118.090000 1882.293416 1917.078148 1928.005658 1939.321346 1966.425437 1974.443545
118.230000 1884.295473 1920.175776 1931.027052 1942.299693 1969.584798 1977.421215
118.370000 1886.551849 1922.848057 1933.639103 1945.376096 1972.774949 1980.465988
118.510000 1888.876789 1926.331192 1936.248926 1948.515516 1975.812843 1984.931277
118.650000 1891.459986 1930.122345 1939.213709 1951.721543 1978.892404 1987.379433
118.790000 1894.012812 1933.635209 1941.797672 1954.896739 1982.475723 1990.754577
118.934000 1901.050782 1937.097989 1947.450193 1958.560548 1986.682003 1995.644501
119.078000 1909.345533 1940.411729 1954.225037 1962.345391 1990.396812 2002.072725
119.222000 1913.211495 1943.874272 1960.014179 1966.181353 1994.342143 2006.648928
119.366000 1919.749171 1948.172982 1963.694048 1969.916035 1998.135166 2010.959658
119.510000 1924.559647 1952.958286 1968.554079 1973.806645 2002.149371 2013.666492
119.650000 1929.274743 1957.811640 1972.279952 1977.682833 2006.795503 2016.875922
119.790000 1933.424670 1962.460127 1976.102724 1981.550695 2011.270329 2019.597253
119.930000 1941.100396 1967.627424 1979.262480 1985.395865 2015.687566 2022.324763
120.070000 1948.971187 1972.634602 1982.523494 1989.219153 2019.322803 2025.053866
120.210000 1950.443481 1977.166543 1985.921605 1992.754437 2022.632707 2027.490119
120.343333 1951.218746 1980.936127 1989.216717 1995.778001 2024.622590 2029.180120
120.476667 1953.205609 1984.694589 1992.413687 1998.749122 2027.008825 2031.392093
120.610000 1955.680525 1987.943024 1995.706344 2001.612491 2029.182509 2033.500285
120.743333 1963.192275 1991.163294 1998.769417 2004.463140 2031.274299 2035.556897
120.876667 1965.758116 1994.749682 2001.698639 2007.266057 2033.426020 2037.389215
121.010000 1968.685060 1997.894651 2004.412438 2009.964024 2035.217231 2039.353461
121.148889 1977.943559 2000.600952 2007.638250 2012.835136 2036.906577 2041.123463
121.287778 1982.265602 2003.560814 2010.313338 2015.479401 2038.717365 2042.820415
121.426667 1989.822826 2006.298566 2013.209935 2018.169088 2040.548288 2044.555198
121.565556 1995.874499 2008.945727 2016.285119 2020.831665 2042.476309 2046.453863
121.704444 2001.908269 2011.566910 2019.178424 2023.431041 2044.303096 2048.161841
121.843333 2006.848909 2014.386899 2021.905731 2025.979390 2045.984471 2049.846146
121.982222 2010.640308 2017.294094 2024.670304 2028.580087 2047.807318 2051.584560
122.121111 2013.929125 2020.285373 2027.431943 2031.237770 2049.447207 2053.315485
122.260000 2017.204853 2023.290929 2030.474445 2033.960394 2051.422691 2055.034733
122.393333 2020.063640 2026.111400 2033.354154 2036.649606 2053.248571 2056.886721
122.526667 2022.860877 2028.923535 2037.008191 2039.483461 2055.008385 2058.805884
122.660000 2025.517064 2031.753202 2040.656187 2042.295022 2056.416943 2060.509333
122.793333 2028.466883 2034.720016 2044.022722 2045.217524 2058.111469 2062.370389
122.926667 2030.934275 2038.102717 2047.472396 2048.145982 2059.958208 2063.976145
123.060000 2033.578623 2041.404950 2050.529643 2051.037356 2061.698044 2065.818521
