depth(m) lower_95(kyr) lower_68(kyr) median(kyr) mean(kyr) upper_68(kyr) upper_95(kyr)
46.440000 1399.184402 1400.044789 1400.851004 1400.875799 1401.724258 1402.612678
46.540000 1401.858097 1402.818174 1403.799866 1403.889179 1404.928060 1406.305914
46.640000 1404.493929 1405.544187 1406.839596 1407.097121 1408.658823 1410.984576
46.720000 1406.686484 1407.825897 1409.606277 1409.979929 1412.198570 1414.759411
46.740000 1407.260866 1408.453656 1410.455783 1410.695580 1412.974755 1415.522288
46.820000 1409.454924 1410.994976 1413.436754 1413.627679 1416.151533 1419.054633
46.920000 1412.474052 1415.008879 1418.301779 1418.402463 1421.815760 1425.145097
47.020000 1417.723296 1423.256135 1429.112795 1428.185901 1432.412281 1435.408143
47.120000 1421.466153 1427.258219 1432.404869 1431.597531 1435.619463 1438.255395
47.220000 1425.915392 1430.698883 1434.985360 1434.601432 1438.237169 1440.443368
47.320000 1429.744358 1433.823100 1437.757394 1437.269979 1440.567763 1442.603992
47.420000 1432.696350 1436.651411 1440.226266 1439.787677 1442.789926 1444.616767
47.520000 1435.877685 1439.319206 1442.741493 1442.291947 1444.982280 1446.809225
47.620000 1438.833349 1442.247401 1445.203419 1444.793167 1447.287156 1448.769832
47.720000 1441.955382 1445.246293 1447.620470 1447.338683 1449.439171 1450.709974
47.820000 1445.857052 1448.637120 1450.478225 1450.208520 1451.773015 1453.016080
47.920000 1451.163674 1452.532438 1453.752480 1453.830000 1455.132984 1456.813681
48.020000 1454.063510 1455.235572 1456.559562 1456.635505 1458.119012 1459.612135
48.120000 1456.102083 1457.397185 1458.988502 1459.066357 1460.612092 1462.166674
48.220000 1458.130824 1459.786601 1461.501603 1461.451096 1463.110587 1464.523811
48.320000 1460.984339 1462.729653 1464.261874 1464.262648 1465.902748 1467.676125
48.420000 1464.195510 1465.829379 1467.741979 1468.031661 1470.190817 1473.549540
48.520000 1466.892024 1468.513343 1470.654840 1471.132565 1473.491873 1478.744372
48.620000 1469.456286 1471.176794 1474.055953 1474.641492 1478.430915 1482.584074
48.720000 1472.128954 1474.449079 1478.485433 1478.715683 1483.136111 1486.172058
48.820000 1474.745785 1478.186882 1483.201226 1482.656766 1486.690752 1488.583858
48.920000 1478.245644 1482.916110 1487.583932 1486.600613 1489.677503 1491.214838
49.020000 1482.691738 1487.954571 1490.654497 1490.097595 1492.329844 1493.916037
49.120000 1488.237530 1490.939172 1492.539817 1492.592063 1494.291148 1497.485225
49.220000 1491.994137 1493.290372 1494.703055 1495.202411 1497.165168 1501.264169
49.320000 1493.925738 1495.361492 1497.287865 1497.821123 1500.633253 1504.069671
49.420000 1496.370161 1497.871378 1500.282121 1500.668135 1503.734630 1506.594693
49.520000 1498.728751 1500.670169 1503.613994 1503.690221 1506.729366 1509.003013
49.620000 1501.468594 1504.008702 1507.050691 1506.913805 1509.690124 1512.503764
49.720000 1505.167167 1507.878285 1510.109072 1510.280604 1512.795002 1515.635659
49.820000 1509.238156 1511.274953 1513.487350 1513.670691 1516.147611 1519.035821
49.920000 1511.609004 1514.025573 1516.450950 1516.616646 1519.212530 1522.431846
50.020000 1513.970723 1516.457463 1519.267673 1519.331386 1522.119667 1524.962866
50.120000 1517.019937 1519.403642 1522.377273 1522.283953 1525.095573 1527.445666
50.220000 1520.065715 1523.270108 1526.151421 1526.059077 1528.934856 1531.228483
50.320000 1526.995740 1529.957487 1532.449624 1532.363885 1534.727494 1536.965584
50.420000 1531.503470 1533.750494 1535.843981 1535.840428 1538.037299 1539.896385
50.520000 1533.989394 1536.769312 1538.859697 1538.690082 1540.668746 1542.355121
50.620000 1537.200999 1539.645181 1541.545233 1541.520923 1543.294600 1545.502715
50.720000 1540.306208 1542.171827 1544.050905 1544.193228 1546.177677 1549.158224
50.820000 1542.964933 1544.655291 1546.726470 1547.077765 1549.456864 1553.795929
50.920000 1545.091928 1546.957352 1549.366757 1549.986155 1553.309348 1557.488223
51.020000 1547.482597 1549.460512 1552.498203 1553.020589 1557.000483 1560.231365
51.120000 1550.097573 1552.457912 1556.661224 1556.646599 1560.825017 1563.390411
51.220000 1552.944475 1556.310297 1561.031616 1560.388425 1564.069329 1566.256507
51.320000 1556.066210 1560.262340 1564.620225 1563.788225 1566.892231 1568.624151
51.420000 1559.194872 1564.553926 1567.628840 1567.109993 1569.666825 1571.747813
51.520000 1564.058778 1568.328236 1570.372513 1570.172179 1572.232245 1574.381370
51.620000 1569.507967 1571.577637 1573.199883 1573.222958 1575.038361 1576.954824
51.720000 1572.163217 1574.034778 1575.724339 1575.809033 1577.638252 1579.454522
51.820000 1574.828257 1576.462948 1578.301232 1578.350873 1580.246271 1582.507461
51.920000 1577.236211 1578.862344 1580.746192 1580.896142 1582.992684 1585.681849
52.020000 1579.513852 1581.169575 1583.307088 1583.478544 1585.786348 1588.592045
52.120000 1582.125138 1583.769341 1585.924333 1586.215870 1588.809388 1591.695106
52.210000 1584.147468 1585.998297 1588.525598 1588.737229 1591.646912 1594.202151
52.220000 1584.476839 1586.259451 1588.877891 1589.053530 1591.961855 1594.512001
52.320000 1587.093224 1589.277453 1592.067391 1592.163279 1595.047006 1597.706793
52.410000 1589.811921 1592.522570 1595.275120 1595.282563 1597.937518 1600.990463
52.510000 1593.442212 1596.241851 1599.001739 1598.992237 1601.692060 1605.071063
52.610000 1596.883245 1599.664505 1602.455603 1602.617701 1605.392632 1609.499663
52.710000 1599.821128 1603.234112 1606.274211 1606.503199 1609.843140 1615.277768
52.810000 1603.469893 1607.122030 1610.126088 1610.550218 1614.181300 1619.604688
52.910000 1607.105354 1610.520269 1613.998471 1614.312557 1618.162009 1623.129793
53.010000 1610.124344 1613.492079 1617.496324 1617.836782 1622.463894 1626.661573
53.110000 1613.334992 1616.695067 1621.492357 1621.478589 1626.394289 1629.688557
53.210000 1616.654764 1620.483631 1625.692923 1625.315721 1629.662579 1632.480521
53.310000 1620.264974 1624.833466 1630.145362 1629.293039 1633.002566 1635.592126
53.410000 1623.432027 1628.691843 1633.165298 1632.464116 1635.923357 1638.275821
53.510000 1627.780590 1632.355934 1636.122330 1635.563707 1638.515171 1640.699841
53.610000 1631.382018 1636.155839 1639.209222 1638.832277 1641.631413 1644.006457
53.710000 1635.478361 1639.991472 1642.498721 1642.490712 1645.099831 1648.140205
53.810000 1640.455386 1643.180198 1645.854334 1646.125389 1649.166189 1653.203205
53.910000 1643.394611 1646.246002 1649.494831 1649.749656 1653.544122 1657.192531
54.010000 1645.512345 1648.850631 1653.034265 1653.086917 1657.371641 1660.522046
54.110000 1648.218105 1651.712325 1656.481814 1656.176686 1660.115492 1663.036244
54.210000 1651.086477 1655.082081 1659.498015 1659.147544 1662.801647 1665.266917
54.310000 1654.549775 1658.560386 1662.643296 1662.203939 1665.453907 1668.250317
54.410000 1657.808018 1662.223175 1665.875753 1665.386470 1668.139569 1671.100099
54.510000 1662.740175 1665.834428 1668.664149 1668.613134 1671.090596 1673.744488
54.610000 1667.058529 1669.731300 1672.017148 1672.317054 1674.748512 1678.474058
54.710000 1670.055237 1672.619757 1675.087853 1675.482609 1678.171212 1682.032453
54.810000 1672.519903 1675.128242 1677.812385 1678.375515 1681.085892 1685.878668
54.910000 1675.070221 1677.559072 1680.499813 1681.188966 1683.866531 1688.925398
55.010000 1677.578931 1680.095907 1683.080787 1683.885655 1686.452837 1691.080295
55.110000 1680.276835 1682.857399 1685.865769 1686.730192 1689.260492 1693.377539
55.210000 1682.980637 1685.660255 1688.964589 1689.712030 1692.198193 1695.801379
55.310000 1685.904680 1688.823788 1692.328918 1693.017634 1695.437818 1707.004828
55.410000 1689.878734 1693.127641 1696.346440 1697.101119 1699.146525 1714.481345
55.510000 1694.754294 1697.977274 1700.342972 1701.523953 1703.464092 1721.392187
55.610000 1698.435017 1701.356170 1703.876986 1705.378417 1707.488662 1734.552718
55.710000 1701.710891 1704.602810 1707.605248 1709.729141 1713.083491 1744.839579
55.810000 1705.647456 1708.308622 1712.417424 1715.474670 1722.851386 1749.950692
55.910000 1709.419818 1713.172517 1720.426853 1722.117272 1729.689581 1756.060703
56.010000 1714.540243 1719.556138 1729.801287 1729.424956 1735.867241 1760.947679
56.090000 1718.433380 1727.298230 1735.805517 1735.226244 1739.996387 1764.517005
56.110000 1719.365410 1728.473825 1737.078205 1736.451435 1741.285802 1765.562650
56.190000 1723.259693 1734.048492 1741.733575 1741.350482 1746.178080 1768.409530
56.290000 1727.807803 1742.220715 1747.122947 1747.714448 1752.690110 1773.785371
56.390000 1733.670088 1747.820119 1752.405695 1754.675980 1763.129403 1778.723216
56.410000 1735.082778 1748.846764 1753.533164 1755.889201 1764.795764 1779.572970
56.490000 1741.932998 1752.774723 1757.761172 1761.367524 1777.691547 1782.336022
56.510000 1742.790974 1753.837331 1758.942281 1762.600084 1778.950538 1783.135573
56.590000 1749.391212 1758.251254 1769.832117 1769.817985 1782.810525 1785.724061
56.610000 1751.196470 1759.518905 1771.067728 1771.159171 1783.701052 1786.487752
56.710000 1761.294357 1775.673960 1783.884958 1781.358613 1787.527475 1790.174877
56.790000 1778.714614 1786.687296 1789.239774 1788.221911 1791.387745 1793.704352
56.810000 1779.779800 1788.159261 1790.383839 1789.467829 1792.491137 1794.678330
56.890000 1788.806086 1791.950137 1793.999279 1793.184353 1796.059272 1797.667574
56.910000 1789.875129 1792.987518 1795.010312 1794.215809 1797.048757 1798.954358
56.990000 1792.525451 1796.843920 1798.965829 1798.400719 1801.440792 1804.699835
57.010000 1793.250507 1797.697047 1800.071117 1799.479041 1802.743045 1806.427729
57.090000 1797.544097 1800.788678 1803.504343 1803.263729 1807.000159 1813.245798
57.190000 1801.784009 1805.074098 1808.289474 1808.614932 1813.119925 1822.812013
57.290000 1805.350278 1808.707030 1812.885711 1813.807047 1819.708680 1831.943557
57.390000 1808.659230 1812.532590 1817.968214 1819.272646 1826.412711 1841.547162
57.490000 1812.273153 1816.588602 1823.365216 1824.882869 1834.013975 1849.883594
57.590000 1816.173836 1821.074147 1828.519954 1830.919186 1843.200696 1860.246742
57.690000 1819.956645 1825.449759 1834.108374 1837.472654 1852.147107 1870.763127
57.790000 1823.428353 1830.156677 1840.099991 1844.208258 1864.235701 1879.999632
57.890000 1827.759422 1835.996817 1846.380543 1850.836844 1874.138809 1884.817712
57.990000 1832.403562 1842.287891 1853.065461 1857.447690 1881.165701 1888.269425
58.090000 1836.365711 1848.574857 1862.193459 1864.804858 1885.839631 1891.788867
58.190000 1841.662849 1855.094833 1872.817762 1872.574447 1890.947899 1894.961975
58.290000 1848.039819 1862.053268 1882.568466 1880.141296 1895.427059 1898.165195
58.390000 1852.827561 1873.541567 1894.400151 1888.158251 1898.972409 1901.504075
58.490000 1857.769950 1894.633305 1900.551129 1895.152667 1902.541248 1904.641614
58.590000 1860.979468 1900.461034 1903.879441 1899.028653 1905.967256 1908.046768
58.690000 1864.495369 1904.216480 1907.090089 1902.503719 1909.257035 1911.403266
58.790000 1868.384612 1907.462646 1910.377788 1905.985401 1912.664805 1915.068549
58.890000 1871.948131 1910.523186 1913.832238 1909.503250 1916.258400 1918.819930
58.990000 1875.655416 1913.725177 1917.094619 1913.111216 1919.775532 1922.408711
59.090000 1879.068693 1916.762385 1920.308387 1916.779230 1923.094491 1925.921384
59.190000 1881.834093 1919.462061 1923.564164 1920.721290 1926.409383 1928.860711
59.290000 1885.141188 1923.363998 1926.777816 1924.704443 1929.739322 1932.022105
59.390000 1888.312823 1927.086158 1930.337010 1928.456504 1933.017360 1934.829267
59.490000 1891.136427 1930.494546 1933.797839 1931.945146 1936.383491 1937.921634
59.590000 1894.451321 1934.775740 1937.536778 1935.636218 1939.602554 1941.316002
59.690000 1897.804742 1939.425371 1941.674375 1939.931877 1943.498191 1946.096035
59.790000 1901.272621 1943.714769 1945.887253 1944.374582 1948.355265 1951.497211
59.890000 1905.611224 1947.295174 1949.963132 1948.529903 1952.999063 1956.251887
59.990000 1910.386367 1950.935014 1954.616577 1953.260360 1958.596269 1963.953160
60.090000 1914.667750 1955.187833 1959.969610 1958.861383 1965.461842 1971.344492
60.190000 1920.173456 1959.629891 1965.676733 1964.841394 1972.221788 1982.334557
60.290000 1924.664459 1964.357891 1971.747433 1971.289112 1981.521596 1991.894860
60.390000 1931.164396 1968.242996 1978.494902 1977.923547 1989.609122 1999.591005
60.490000 1940.641202 1973.068232 1987.526769 1985.054710 1996.258518 2008.367761
60.590000 1958.652961 1978.751936 1994.581521 1992.669001 2005.368497 2013.887442
60.690000 1966.933563 1984.774439 2003.389666 1999.649714 2011.504902 2018.564870
60.790000 1976.229734 1990.554731 2009.670454 2005.726814 2016.336633 2023.541425
60.890000 1981.318048 2000.865417 2014.135284 2011.263652 2020.169943 2028.408161
60.990000 1988.692356 2011.153750 2018.246353 2016.636172 2024.384952 2031.328153
61.090000 2004.902399 2016.257958 2021.862931 2021.546482 2028.367634 2035.093811
61.150000 2011.008824 2019.363581 2024.501821 2024.313367 2030.671701 2037.265268
61.190000 2013.946591 2020.900002 2026.246246 2026.064153 2032.351489 2039.096816
61.250000 2016.234495 2023.128387 2028.892749 2028.659356 2034.894436 2043.463633
61.290000 2018.758143 2024.590297 2030.738754 2030.457589 2036.838480 2047.101425
61.370000 2022.269399 2027.886325 2033.811614 2034.475540 2042.407366 2052.240269
61.470000 2026.432806 2032.130658 2039.712368 2041.020234 2051.730438 2056.743459
61.530000 2028.940888 2034.781058 2044.921455 2044.764522 2055.332361 2059.071631
61.650000 2036.671681 2045.082959 2056.805135 2053.963778 2061.440398 2064.373697
61.750000 2042.790088 2058.001122 2063.896290 2061.931622 2067.236855 2071.357452
61.850000 2055.484391 2064.221310 2068.062393 2067.285485 2071.642739 2075.523401
61.950000 2064.487732 2068.549606 2071.869022 2071.383444 2075.511424 2078.904124
62.050000 2068.781128 2072.437426 2075.586038 2075.192502 2079.375994 2082.766781
62.150000 2072.865390 2076.071765 2079.499099 2079.089044 2083.105611 2086.547875
62.240000 2075.926057 2079.253402 2082.897048 2082.392612 2086.488813 2089.829706
62.340000 2078.940029 2082.690988 2086.301234 2085.848301 2090.025633 2093.465544
62.440000 2082.146617 2085.450838 2089.229320 2088.798042 2092.997365 2096.253592
62.540000 2084.995082 2088.153616 2092.270303 2091.830028 2096.406916 2099.538510
62.640000 2087.680585 2091.104461 2095.075693 2094.842783 2099.296726 2102.800360
62.740000 2090.262353 2094.106296 2098.215594 2097.884155 2102.421943 2105.505238
62.860000 2093.608533 2097.600880 2102.024555 2101.495708 2105.898777 2108.745101
62.960000 2096.194980 2100.664397 2105.204583 2104.501965 2108.894746 2111.607357
63.040000 2098.875226 2103.202238 2107.683977 2107.036251 2111.209688 2113.621425
63.140000 2102.036393 2106.555227 2110.760561 2110.044584 2113.903358 2116.321750
63.240000 2104.868494 2109.765977 2113.700540 2113.003645 2116.624460 2118.578670
63.340000 2108.207130 2112.913489 2116.469220 2115.794149 2118.986938 2121.046637
63.440000 2111.111923 2115.770510 2118.919529 2118.421029 2121.368747 2123.375674
63.540000 2114.024915 2118.402989 2121.494741 2120.977452 2123.812761 2125.895100
63.640000 2117.725858 2121.135688 2123.808832 2123.515122 2126.072720 2128.161091
63.730000 2120.681210 2123.688063 2126.094769 2125.939967 2128.373531 2130.847363
63.830000 2123.607488 2126.436433 2128.758618 2128.703081 2131.172721 2133.669714
63.930000 2127.063934 2129.444231 2131.812026 2131.817438 2134.294363 2136.714827
64.030000 2130.314873 2132.710034 2135.071827 2135.041191 2137.480376 2139.798510
64.130000 2133.149614 2135.925768 2138.570976 2138.488830 2141.184303 2143.188348
64.230000 2137.655041 2140.471592 2143.080305 2142.972584 2145.394597 2147.822245
64.350000 2145.432526 2148.067116 2151.264840 2151.455864 2154.862494 2158.479323
64.450000 2149.078402 2153.211340 2156.939232 2156.685282 2160.105024 2163.173883
64.530000 2153.072826 2157.581646 2160.749607 2160.503272 2163.514587 2165.863891
64.630000 2158.951032 2162.395825 2165.267256 2165.048936 2167.655156 2169.724561
64.730000 2164.339311 2166.879913 2169.504113 2169.277517 2171.502833 2173.383354
64.830000 2168.451314 2170.935281 2173.029993 2172.918397 2174.930233 2177.035131
64.930000 2172.199379 2174.143641 2176.186955 2176.149319 2178.005088 2180.443061
65.030000 2175.690333 2177.242883 2179.056543 2179.173594 2181.148736 2183.104395
65.130000 2178.501717 2179.986760 2181.928936 2182.049139 2184.128863 2186.227686
65.220000 2180.864134 2182.699758 2184.540893 2184.701012 2186.766208 2188.814608
65.320000 2183.805181 2185.644156 2187.970300 2188.027542 2190.243927 2192.944336
65.420000 2186.553297 2188.902349 2191.580977 2191.604799 2194.048807 2198.292399
65.520000 2189.613151 2191.736668 2194.595074 2194.860717 2197.701346 2202.306988
65.620000 2192.765566 2194.970286 2198.188425 2198.448885 2201.757996 2206.200970
65.720000 2196.101747 2198.698730 2202.152179 2202.275542 2205.592215 2210.292286
65.840000 2199.819425 2203.606721 2207.235301 2207.426843 2210.936138 2216.873694
65.940000 2203.819856 2207.596176 2211.231894 2211.759320 2215.900695 2222.040973
66.020000 2206.733476 2210.694804 2214.717778 2215.291553 2220.201142 2225.851421
66.120000 2210.458366 2214.924799 2219.404024 2220.016029 2225.476823 2229.867183
66.220000 2214.924810 2219.678291 2225.644179 2225.353163 2230.449659 2233.784176
66.320000 2219.068396 2226.083917 2231.530446 2230.897589 2234.590784 2237.472405
66.420000 2226.867521 2232.955287 2236.066828 2236.048501 2238.525564 2242.096064
66.520000 2233.557924 2236.781573 2239.186763 2239.841095 2241.915048 2248.538699
66.620000 2237.232148 2239.636480 2242.036232 2243.324505 2244.986852 2274.556200
66.710000 2239.798270 2242.268694 2244.619240 2246.574492 2248.239454 2279.450067
66.810000 2242.789634 2244.937140 2247.908105 2251.741567 2257.701843 2283.105248
66.910000 2245.764677 2248.517581 2252.825294 2259.466622 2274.690061 2287.451266
67.010000 2250.191689 2255.700545 2271.768287 2270.845390 2278.630547 2307.258279
67.110000 2265.899302 2274.875555 2278.944734 2280.512250 2282.943854 2316.249797
67.210000 2276.965801 2280.544752 2283.688955 2285.907604 2286.933736 2322.015339
67.330000 2283.109560 2286.199626 2288.868752 2291.937582 2292.298696 2328.267914
67.430000 2288.578462 2291.048812 2293.405109 2297.186961 2298.150026 2334.778749
67.510000 2292.450753 2294.630558 2297.435427 2301.407703 2303.272806 2339.774984
67.610000 2296.891761 2299.111629 2302.776031 2307.389200 2313.793770 2346.065255
67.710000 2302.028054 2305.565642 2311.682835 2316.314748 2325.849834 2357.458249
67.810000 2307.661075 2315.218241 2324.474463 2326.856930 2333.660784 2370.299214
67.890000 2312.762068 2325.379486 2333.742345 2335.500210 2341.498685 2376.900683
67.910000 2314.483986 2327.087632 2335.856390 2337.222234 2342.925160 2378.362991
67.990000 2320.226772 2332.914198 2341.727933 2343.124559 2348.148189 2384.275291
68.010000 2321.930032 2334.331009 2343.265929 2344.523045 2349.559498 2386.015886
68.090000 2328.004764 2339.617818 2349.694263 2350.298931 2355.607908 2390.939082
68.190000 2337.110439 2347.291033 2354.213847 2356.517978 2362.232021 2395.047880
68.290000 2350.188098 2354.955420 2360.013672 2363.088958 2367.309830 2399.000837
68.390000 2356.498688 2361.196527 2366.321994 2369.275960 2373.185691 2402.423643
68.490000 2363.467677 2369.207409 2373.552918 2376.696801 2382.808956 2406.400368
68.590000 2373.572485 2377.953011 2383.065019 2385.794497 2394.513424 2411.406252
68.690000 2380.706429 2385.891132 2392.534525 2394.732363 2405.283436 2415.815447
68.790000 2388.709975 2395.312091 2403.990752 2403.918836 2412.449341 2420.614827
68.890000 2396.203925 2407.896751 2414.333497 2413.349189 2419.141939 2423.738793
68.990000 2407.683708 2416.771544 2422.155463 2421.098932 2425.556591 2427.671007
69.090000 2422.372884 2426.720150 2428.967033 2428.493523 2430.647114 2432.541650
