depth(m) lower_95(kyr) lower_68(kyr) median(kyr) mean(kyr) upper_68(kyr) upper_95(kyr)
114.120000 2412.053967 2412.799763 2413.820425 2413.836672 2414.837587 2415.827307
114.220000 2413.243962 2414.195776 2415.383851 2415.442646 2416.578570 2418.003073
114.320000 2414.467804 2415.518691 2416.886215 2417.009713 2418.518339 2420.283650
114.420000 2415.760719 2417.016186 2418.389627 2418.573436 2420.320911 2422.339134
114.520000 2417.130810 2418.434451 2420.003692 2420.166889 2421.937732 2423.868312
114.620000 2418.676898 2420.084617 2421.911993 2421.997478 2424.001969 2425.600413
114.720000 2420.423068 2422.083963 2424.167531 2424.065301 2425.989950 2427.372466
114.820000 2422.732132 2424.909168 2426.962488 2426.721753 2428.351566 2429.806632
114.920000 2425.798054 2427.971023 2429.463242 2429.438214 2430.905441 2432.655109
115.020000 2428.292999 2429.933539 2431.460755 2431.528492 2433.200602 2434.989092
115.120000 2429.989928 2431.548286 2433.254778 2433.289593 2435.023333 2436.860918
115.220000 2431.417247 2432.883503 2434.771139 2434.834516 2436.715219 2438.409721
115.320000 2432.636102 2434.261964 2436.311171 2436.315067 2438.325929 2439.979966
115.420000 2434.039861 2435.747658 2437.715375 2437.804813 2439.838431 2441.795661
115.520000 2435.436395 2437.303096 2439.269309 2439.346196 2441.456886 2443.603606
115.620000 2436.943872 2438.749957 2440.828524 2440.895844 2443.123962 2445.541730
115.720000 2438.138479 2440.193821 2442.418824 2442.409590 2444.586139 2447.047845
115.820000 2439.585221 2441.616813 2443.907240 2443.837244 2445.916981 2448.165447
115.920000 2441.066880 2443.297134 2445.397240 2445.349614 2447.426761 2449.498247
116.040000 2443.009210 2445.298218 2447.329875 2447.338409 2449.448928 2451.350397
116.140000 2444.896820 2447.175967 2449.133182 2449.192333 2451.329313 2453.322797
116.240000 2446.912811 2449.020950 2451.125079 2451.118576 2453.184965 2455.206914
116.340000 2449.291047 2451.344479 2453.327387 2453.368571 2455.466256 2457.578674
116.440000 2451.862128 2453.829839 2455.848086 2455.885413 2457.987781 2460.263493
116.540000 2454.000915 2455.992601 2458.050073 2458.114109 2460.245201 2462.531419
116.620000 2455.985129 2457.947960 2459.920605 2459.983470 2462.075939 2464.457672
116.720000 2458.180658 2459.902304 2461.904086 2462.023831 2464.174097 2466.378299
116.820000 2459.722242 2461.505677 2463.766330 2463.793371 2466.114301 2468.200152
116.920000 2461.416167 2463.140379 2465.535283 2465.508064 2467.901245 2469.899318
117.020000 2462.986034 2464.951428 2467.401738 2467.305550 2469.751678 2471.459323
117.120000 2464.819244 2466.778662 2469.221456 2469.142630 2471.431298 2473.011553
117.220000 2466.426681 2469.050473 2471.256865 2471.053693 2473.055408 2474.657719
117.320000 2468.754450 2471.372608 2473.356780 2473.176907 2474.954130 2476.495492
117.420000 2471.544909 2473.560047 2475.338592 2475.284759 2477.074283 2478.805797
117.520000 2474.058165 2475.806890 2477.554487 2477.500374 2479.211269 2480.533267
117.620000 2476.087096 2477.828574 2479.562097 2479.519780 2481.181989 2482.516886
117.720000 2478.061445 2479.910780 2481.463667 2481.431976 2483.013473 2484.321299
117.820000 2480.255022 2481.767672 2483.417833 2483.303396 2484.744791 2485.996299
117.920000 2481.982796 2483.543011 2485.029591 2484.971693 2486.373887 2487.765036
118.020000 2483.432753 2485.172221 2486.612632 2486.540673 2487.924680 2489.214393
118.120000 2484.942183 2486.652798 2488.201415 2488.124908 2489.495294 2490.945355
118.220000 2486.827693 2488.437695 2489.828296 2489.851726 2491.288223 2492.820763
118.320000 2488.781696 2490.284621 2491.638341 2491.768193 2493.276471 2495.371455
118.420000 2490.634340 2492.262729 2493.751753 2493.920305 2495.510093 2497.850743
118.520000 2492.936801 2494.345645 2496.277848 2496.457236 2498.460879 2501.494260
118.620000 2495.115089 2496.850790 2499.085481 2499.206658 2501.478839 2504.433361
118.720000 2497.009821 2499.189301 2501.758389 2501.701635 2504.270089 2506.478394
118.820000 2499.239334 2501.465552 2504.118244 2504.079428 2506.647099 2508.625490
118.920000 2501.559710 2503.950749 2506.566773 2506.409549 2508.674500 2510.734251
119.020000 2504.045377 2506.776380 2509.073947 2508.858497 2511.036962 2512.585643
119.120000 2506.877359 2509.408444 2511.368172 2511.181905 2512.992763 2514.338236
119.220000 2509.849608 2511.988462 2513.640900 2513.507930 2515.008823 2516.227590
119.320000 2513.304170 2514.620072 2515.960976 2515.977184 2517.289584 2518.730667
119.420000 2515.036943 2516.270236 2517.628673 2517.657656 2519.020711 2520.540678
119.520000 2516.495636 2517.753295 2519.011672 2519.094207 2520.435641 2522.076174
119.620000 2517.721740 2519.070347 2520.387186 2520.439021 2521.822511 2523.534809
119.720000 2518.993893 2520.282090 2521.752024 2521.756820 2523.165174 2524.857118
119.820000 2520.244528 2521.553243 2523.014947 2523.071164 2524.543068 2526.300348
119.920000 2521.500341 2522.973515 2524.347770 2524.456365 2526.058834 2527.863422
120.020000 2522.986302 2524.390310 2525.872506 2525.982119 2527.710345 2529.359705
120.120000 2524.698883 2526.029153 2527.694144 2527.760805 2529.495878 2531.274769
120.220000 2526.555708 2528.017686 2529.689806 2529.759117 2531.507868 2533.279648
120.320000 2528.493105 2530.301441 2532.056530 2532.104360 2533.934878 2535.676765
120.420000 2530.902048 2532.717725 2534.641140 2534.546464 2536.382507 2537.594393
120.440000 2531.461098 2533.254442 2535.153486 2535.079868 2536.892915 2538.082248
120.540000 2534.378019 2536.176048 2537.892640 2537.759703 2539.271327 2540.608728
120.640000 2537.131022 2538.700486 2540.178245 2540.164330 2541.555752 2543.176936
120.740000 2539.432583 2540.922421 2542.368636 2542.389330 2543.899513 2545.684219
120.840000 2541.459039 2542.664907 2544.158192 2544.299228 2545.883731 2547.965688
120.940000 2542.941057 2544.507693 2545.998053 2546.101738 2547.828925 2549.696818
121.040000 2544.520318 2546.072142 2547.738764 2547.821544 2549.647457 2551.581106
121.140000 2546.169288 2547.696779 2549.447272 2549.550473 2551.446474 2553.334251
121.240000 2547.765742 2549.521583 2551.417314 2551.491167 2553.530192 2555.503640
121.340000 2549.432783 2551.361326 2553.423585 2553.506706 2555.614375 2558.015823
121.460000 2551.368033 2553.537650 2555.530846 2555.790304 2558.129376 2561.188829
121.560000 2553.285664 2555.303008 2557.434414 2557.759944 2560.295923 2563.899992
121.660000 2555.230603 2557.104923 2559.415423 2559.812475 2562.656878 2566.167774
121.760000 2556.931248 2558.936592 2561.587658 2561.867844 2565.053124 2568.254030
121.860000 2558.584288 2560.833677 2563.760814 2564.037187 2567.363550 2570.264441
121.960000 2560.532243 2562.935079 2566.138364 2566.212297 2569.495402 2572.141644
122.060000 2562.350556 2565.161026 2568.694465 2568.421741 2571.502530 2573.906405
122.160000 2563.942290 2567.287579 2570.835290 2570.416819 2573.222254 2575.457852
122.260000 2566.289659 2569.768732 2572.788310 2572.469307 2575.065937 2577.157760
122.360000 2568.808902 2572.243497 2574.803695 2574.569962 2576.953042 2579.192985
122.460000 2571.602098 2574.389594 2576.683975 2576.620953 2578.785525 2581.298714
122.560000 2574.638636 2576.660865 2578.742491 2578.805154 2580.968023 2583.416189
122.660000 2576.958837 2578.706658 2580.914371 2581.025396 2583.258331 2586.022317
122.740000 2578.360147 2580.373538 2582.670991 2582.773666 2585.251754 2587.735866
122.800000 2579.456221 2581.506944 2583.958203 2584.050767 2586.581197 2588.831558
122.840000 2580.321912 2582.467368 2584.878071 2584.955166 2587.480212 2589.565774
122.940000 2582.411459 2584.594403 2587.273873 2587.313915 2589.977923 2592.519505
123.040000 2584.330441 2587.057857 2589.700752 2589.676337 2592.313308 2594.702508
123.140000 2586.856043 2589.818207 2592.664181 2592.458732 2594.979767 2597.393151
123.240000 2591.209629 2593.754658 2596.014049 2596.053553 2598.328921 2600.809402
123.340000 2594.340717 2596.481997 2598.647128 2598.703604 2600.877618 2603.531034
123.440000 2596.671823 2598.911572 2600.902397 2601.023596 2603.215011 2605.642175
123.540000 2598.578723 2600.921237 2603.137871 2603.135589 2605.418721 2607.740986
123.640000 2600.476804 2602.724198 2605.068930 2605.056414 2607.297246 2609.778248
123.740000 2602.269350 2604.552212 2607.138720 2607.041570 2609.429937 2611.908217
123.840000 2604.068650 2606.434783 2608.968211 2608.923029 2611.408606 2613.834492
123.940000 2606.088338 2608.578287 2610.972410 2611.029731 2613.451887 2615.956385
124.040000 2608.638885 2611.111635 2613.451995 2613.520232 2616.037321 2618.311635
124.140000 2612.245223 2614.069171 2616.355575 2616.456389 2618.841070 2621.123661
124.240000 2614.457685 2616.633633 2619.039177 2618.934220 2621.216940 2623.144146
124.360000 2616.783642 2618.926171 2621.262456 2621.199771 2623.397250 2625.250205
124.460000 2618.681977 2620.669813 2622.991289 2622.889537 2624.984895 2626.929356
124.560000 2620.316125 2622.272804 2624.440889 2624.414304 2626.540409 2628.573455
124.650000 2621.548685 2623.592691 2625.799720 2625.805398 2627.876751 2630.178257
124.740000 2623.039979 2625.139511 2627.253432 2627.237210 2629.238449 2631.580770
124.840000 2624.851826 2626.842707 2628.808434 2628.844271 2630.840959 2633.126768
124.940000 2626.730760 2628.473068 2630.551213 2630.561918 2632.610537 2634.716328
125.040000 2628.410515 2630.438487 2632.529358 2632.556859 2634.645562 2636.892018
125.140000 2630.340347 2632.467897 2634.680918 2634.689864 2636.884185 2639.390294
125.240000 2632.783001 2634.771040 2636.961959 2637.086413 2639.409869 2641.890434
125.340000 2634.652342 2636.871352 2639.239232 2639.273677 2641.740780 2643.880245
125.440000 2637.589875 2639.360943 2641.865515 2641.822238 2644.282264 2646.003527
125.550000 2639.838176 2641.990175 2644.569275 2644.344614 2646.659750 2648.191004
125.650000 2641.822150 2644.280069 2646.811063 2646.519047 2648.538812 2650.092167
125.760000 2644.133452 2646.899323 2649.117338 2648.848901 2650.764108 2652.203207
125.860000 2647.031041 2649.318344 2651.083365 2650.995903 2652.630607 2654.720060
125.960000 2649.590634 2651.620412 2653.202740 2653.314571 2655.178897 2657.120975
126.060000 2652.110698 2653.561263 2655.407936 2655.591676 2657.652805 2660.129190
126.160000 2654.187513 2655.661083 2657.641405 2657.897434 2660.137644 2663.207721
126.260000 2655.819909 2657.408453 2659.703083 2659.934800 2662.484175 2665.443769
126.360000 2657.319501 2659.225769 2661.635337 2661.908063 2664.797505 2667.583924
126.460000 2658.853309 2661.032349 2663.699167 2663.830397 2666.691922 2669.456163
126.560000 2660.570365 2662.852229 2665.684707 2665.808370 2668.804990 2671.689469
126.660000 2662.352525 2664.872091 2667.905337 2667.908492 2670.842376 2673.597304
126.760000 2664.475903 2667.060320 2670.174099 2670.142566 2673.182919 2675.552484
126.860000 2666.711853 2669.859815 2672.826807 2672.723498 2675.492796 2678.227972
126.960000 2669.818057 2673.024616 2675.726746 2675.627041 2678.200048 2680.763762
127.060000 2672.715407 2675.376599 2678.109538 2677.948919 2680.493598 2682.761628
127.160000 2675.137767 2677.786428 2680.268373 2680.207943 2682.661468 2684.765342
127.260000 2677.405414 2680.068797 2682.328763 2682.329083 2684.673696 2686.892548
127.360000 2680.092179 2682.235500 2684.518297 2684.468743 2686.615825 2688.802214
127.460000 2682.425600 2684.245392 2686.495652 2686.427807 2688.598498 2690.332871
127.560000 2684.043153 2686.020486 2688.262575 2688.164453 2690.311075 2692.062661
127.660000 2685.624647 2687.675867 2689.974540 2689.862550 2691.872315 2693.562828
127.760000 2687.153537 2689.503469 2691.792780 2691.616514 2693.533536 2695.050905
127.860000 2689.322342 2691.480925 2693.494952 2693.299985 2695.108775 2696.467230
127.960000 2691.440373 2693.562514 2695.209858 2695.093046 2696.637756 2697.897863
128.060000 2693.953764 2695.736816 2697.027927 2696.932512 2698.163995 2699.302475
128.160000 2697.021570 2697.941296 2698.883531 2698.886944 2699.819264 2700.763553
