depth(m) lower_95(kyr) lower_68(kyr) median(kyr) mean(kyr) upper_68(kyr) upper_95(kyr)
418.195000 1400.809235 1401.785679 1403.156863 1403.175779 1404.568380 1405.634999
418.338333 1401.199865 1402.255235 1403.908629 1403.980687 1405.666634 1407.342194
418.481667 1401.615218 1402.655206 1404.688612 1404.808797 1407.055913 1408.907485
418.625000 1401.903095 1403.008839 1405.365693 1405.653305 1408.337530 1410.393294
418.768333 1402.225645 1403.395796 1406.224055 1406.489531 1409.588063 1411.795780
418.911667 1402.545032 1403.757940 1407.224726 1407.352200 1411.087841 1413.623611
419.055000 1402.868754 1404.112654 1408.400202 1408.236045 1412.423832 1414.781058
419.198333 1403.220718 1404.459475 1409.822574 1409.152629 1413.894835 1416.298504
419.341667 1403.506535 1404.764479 1411.171229 1410.098673 1415.378605 1417.930848
419.485000 1403.743163 1405.114788 1412.389094 1410.997428 1416.723367 1419.478668
419.628333 1404.071683 1405.434095 1413.822118 1411.915011 1417.910943 1420.642263
419.771667 1404.319271 1405.724736 1415.275502 1412.893535 1419.624979 1421.902281
419.915000 1404.674599 1406.061404 1416.658805 1413.793282 1420.984846 1423.599061
420.058333 1404.931340 1406.362408 1418.155515 1414.689720 1422.204705 1424.876417
420.201667 1405.128075 1406.645773 1419.582963 1415.624213 1423.636574 1426.429655
420.345000 1405.320321 1406.956184 1420.596441 1416.469417 1424.987975 1427.643823
420.488333 1405.500401 1407.251829 1421.972294 1417.361617 1426.472730 1429.557709
420.631667 1405.804228 1407.535251 1423.460615 1418.272834 1427.915467 1430.796862
420.775000 1405.975313 1407.801942 1424.754793 1419.198439 1429.321966 1432.346601
420.918333 1406.216185 1408.108055 1426.179710 1420.101674 1430.518956 1433.980744
421.061667 1406.405523 1408.397021 1427.574453 1420.993626 1431.975477 1435.463706
421.205000 1406.646681 1408.675787 1429.257980 1421.889930 1433.462375 1436.984908
421.348333 1406.895294 1408.937897 1430.229208 1422.807327 1434.723962 1438.783896
421.491667 1407.139438 1409.209872 1431.721856 1423.749652 1436.294174 1439.925847
421.635000 1407.340024 1409.531684 1433.022459 1424.670596 1437.811457 1441.185036
421.778333 1407.541772 1409.789717 1434.352600 1425.566746 1439.346769 1442.587134
421.921667 1407.754764 1410.122516 1435.651640 1426.475787 1440.772630 1443.783271
422.065000 1408.068116 1410.403554 1437.105222 1427.402229 1442.166952 1445.333249
422.208333 1408.273308 1410.705167 1438.416890 1428.312217 1443.458772 1447.005495
422.351667 1408.566503 1411.013764 1439.711018 1429.186575 1444.702083 1448.354270
422.495000 1408.767728 1411.260121 1441.077306 1430.057799 1446.181236 1449.697263
422.638333 1409.045367 1411.612694 1442.432090 1430.984098 1447.549305 1451.352655
422.781667 1409.323072 1411.863237 1443.709636 1431.912923 1448.914244 1452.940265
422.925000 1409.633623 1412.253010 1445.108606 1432.798036 1450.182179 1454.315289
423.068333 1409.924143 1412.603604 1446.430631 1433.675591 1451.407431 1456.104902
423.211667 1410.269833 1412.997176 1447.548491 1434.508450 1452.748039 1457.339041
423.355000 1410.651320 1413.379414 1448.851512 1435.363208 1453.860352 1458.635998
423.498333 1411.134675 1413.852216 1450.160043 1436.239263 1455.079706 1459.707986
423.641667 1411.631998 1414.276101 1451.496242 1437.109653 1456.015910 1460.585097
423.785000 1412.167595 1414.765909 1452.500812 1437.932072 1457.032781 1461.476761
423.929694 1412.528309 1415.479887 1453.391128 1438.709227 1457.918116 1462.446787
424.074388 1412.894191 1416.023349 1454.231196 1439.496688 1458.796822 1463.171829
424.219082 1413.390345 1416.818354 1455.129591 1440.319978 1459.612585 1463.986472
424.363776 1414.028652 1417.654482 1455.830882 1441.129391 1460.371185 1464.872955
424.508469 1414.400592 1418.450862 1456.654980 1441.901829 1461.186719 1465.608866
424.653163 1414.896202 1419.302020 1457.250118 1442.712690 1461.953596 1466.093626
424.797857 1415.454142 1419.892267 1457.890085 1443.448065 1462.547873 1466.911571
424.942551 1415.823271 1420.632549 1458.373317 1444.234084 1463.229675 1467.531599
425.087245 1416.293746 1421.339698 1458.778820 1444.963943 1463.792878 1468.059326
425.231939 1416.782161 1422.145227 1459.358097 1445.704091 1464.401493 1468.823321
425.376633 1417.130467 1422.688287 1459.947710 1446.441554 1464.908373 1469.269928
425.521327 1417.691045 1423.352201 1460.433808 1447.184574 1465.493173 1469.713646
425.666020 1418.123610 1424.146694 1460.902889 1447.936602 1466.066264 1470.027647
425.810714 1418.430228 1424.655597 1461.446218 1448.705509 1466.696190 1470.572852
425.955408 1418.770261 1425.266486 1461.818919 1449.443538 1467.324466 1471.146816
426.100102 1419.074827 1425.802412 1462.346126 1450.197142 1467.878822 1471.819936
426.244796 1419.690221 1426.378715 1462.952945 1450.967317 1468.490099 1472.397293
426.389490 1419.944971 1426.942590 1463.409402 1451.709349 1469.165384 1473.002560
426.534184 1420.246332 1427.418635 1463.863429 1452.441968 1469.809361 1473.649594
426.678878 1420.597385 1428.053107 1464.463548 1453.188766 1470.283887 1474.028955
426.823571 1420.995279 1428.467635 1464.943603 1453.941955 1470.765996 1474.445201
426.968265 1421.442399 1429.292734 1465.403008 1454.683954 1471.448764 1474.930759
427.112959 1421.775572 1429.715113 1465.807482 1455.457385 1472.141955 1475.495697
427.257653 1422.315829 1430.280457 1466.386473 1456.207209 1472.733525 1475.798975
427.402347 1422.934471 1430.802716 1466.990779 1456.946794 1473.219748 1476.799623
427.547041 1423.365533 1431.518644 1467.403460 1457.678794 1473.804233 1477.321159
427.691735 1423.952344 1432.209480 1467.755940 1458.418001 1474.286564 1477.940384
427.836429 1424.241437 1432.739722 1468.387811 1459.167492 1474.802176 1478.280563
427.981122 1424.525063 1433.610514 1468.773821 1459.945392 1475.434201 1479.118315
428.125816 1425.073726 1434.069579 1469.061122 1460.677634 1475.953885 1479.676965
428.270510 1425.469920 1434.659186 1469.617314 1461.424166 1476.693911 1480.540522
428.415204 1425.823711 1435.204485 1470.029836 1462.155641 1477.315658 1481.122301
428.559898 1426.145583 1435.794996 1470.614703 1462.874670 1477.887233 1482.028632
428.704592 1426.449911 1436.270140 1471.150018 1463.613176 1478.571290 1482.442408
428.849286 1426.752848 1436.840998 1471.529086 1464.364452 1479.200661 1482.838698
428.993980 1427.121537 1437.575146 1472.284033 1465.153516 1479.900922 1483.626445
429.138673 1427.430334 1438.017567 1472.996604 1465.869924 1480.485150 1484.269435
429.283367 1427.879840 1438.831636 1473.825454 1466.614843 1481.060688 1485.040511
429.428061 1428.272172 1439.186297 1474.775464 1467.338070 1481.610741 1485.710702
429.572755 1428.579484 1440.007963 1475.643817 1468.091820 1482.357571 1486.152786
429.717449 1428.760038 1440.616988 1476.575793 1468.851218 1482.996069 1486.677902
429.862143 1429.163186 1441.265393 1477.393303 1469.583456 1483.661267 1487.356428
430.006837 1429.567873 1441.777413 1478.024898 1470.312548 1484.175465 1487.888984
430.151531 1429.794945 1442.561012 1478.668933 1471.032642 1484.870230 1488.445539
430.296224 1430.388524 1443.225539 1479.563179 1471.739653 1485.500268 1489.061034
430.440918 1431.152203 1443.940203 1480.400974 1472.450707 1486.149366 1489.578966
430.585612 1431.617709 1444.761142 1481.067073 1473.188428 1486.841038 1490.106952
430.730306 1432.423615 1445.621975 1481.708358 1473.919183 1487.444404 1490.430337
430.875000 1433.035185 1446.384990 1482.353863 1474.647406 1488.099456 1490.906358
431.020000 1433.790558 1447.170978 1483.182278 1475.356327 1488.760985 1491.569569
431.165000 1434.918734 1447.695374 1483.828970 1476.050612 1489.273205 1492.133009
431.310000 1435.695763 1448.314096 1484.523072 1476.751874 1489.766329 1492.557492
431.455000 1436.581362 1448.879124 1485.230547 1477.425031 1490.259713 1492.973104
431.600000 1437.458723 1449.365402 1485.871120 1478.132617 1490.861250 1493.583896
431.745000 1439.051255 1449.892377 1486.516913 1478.807451 1491.201712 1493.956061
431.890000 1439.944888 1450.465615 1487.179415 1479.475988 1491.617481 1494.222830
432.035000 1441.009352 1451.059438 1487.795358 1480.150872 1491.985405 1494.616458
432.180000 1442.053015 1451.216668 1488.445832 1480.809769 1492.432080 1494.969789
432.325000 1443.091453 1451.618427 1488.988107 1481.481746 1492.885594 1495.410584
432.470000 1444.450368 1452.242785 1489.603743 1482.125150 1493.227278 1496.055338
432.615000 1444.972611 1452.773470 1490.148783 1482.770486 1493.672781 1496.625995
432.760000 1446.151558 1453.732983 1490.681094 1483.400079 1494.051118 1497.342343
432.905000 1447.464453 1454.211761 1491.166351 1484.027820 1494.496904 1497.806208
433.050000 1448.794027 1454.908418 1491.669029 1484.634125 1494.901880 1498.361351
433.195000 1449.644458 1455.714615 1492.230524 1485.291188 1495.329177 1498.676218
433.340000 1450.275837 1456.596717 1492.683560 1485.916773 1495.733016 1499.084148
433.485000 1451.121177 1457.666478 1493.169676 1486.574141 1496.190317 1499.716606
433.630000 1452.068891 1458.432293 1493.680116 1487.184213 1496.594925 1500.027647
433.775000 1452.833280 1459.391170 1494.204953 1487.804473 1497.006532 1500.607410
433.920000 1453.342211 1460.426465 1494.633468 1488.394262 1497.423922 1501.066803
434.065000 1454.246367 1461.569349 1495.047282 1488.985992 1497.836317 1501.683526
434.208824 1454.689873 1462.743936 1495.440219 1489.504367 1498.210742 1502.070249
434.352647 1455.068062 1463.809877 1495.837796 1489.990017 1498.594127 1502.436060
434.496471 1455.748310 1464.980706 1496.200971 1490.480052 1498.926121 1502.739019
434.640294 1456.004582 1466.151557 1496.554518 1490.964097 1499.226328 1503.148314
434.784118 1456.374486 1467.440634 1496.873288 1491.442336 1499.605577 1503.682802
434.927941 1456.671520 1468.729971 1497.204806 1491.912431 1499.905251 1503.957062
435.071765 1456.990803 1470.237373 1497.442581 1492.376020 1500.187927 1504.332394
435.215588 1457.202723 1471.194723 1497.761427 1492.831824 1500.435061 1504.605208
435.359412 1457.385821 1472.449095 1498.028853 1493.276409 1500.712944 1504.848806
435.503235 1457.608876 1473.842491 1498.360905 1493.717472 1500.979153 1505.329624
435.647059 1457.883960 1475.424072 1498.685911 1494.175643 1501.182974 1505.675732
435.790882 1458.137328 1476.514953 1498.956122 1494.615511 1501.426188 1505.913549
435.934706 1458.409488 1477.533451 1499.243608 1495.059859 1501.679051 1506.197134
436.078529 1458.668209 1479.004247 1499.525748 1495.488989 1501.939417 1506.487434
436.222353 1458.949753 1480.295880 1499.768431 1495.931264 1502.223257 1506.771979
436.366176 1459.136590 1481.399995 1500.081220 1496.373828 1502.475834 1507.078996
436.510000 1459.456051 1482.839588 1500.365908 1496.825806 1502.742620 1507.215502
436.653824 1459.672069 1484.142381 1500.631593 1497.270830 1503.009004 1507.462812
436.797647 1459.920330 1485.522766 1500.907551 1497.726697 1503.309631 1507.907295
436.941471 1460.387245 1486.649223 1501.146083 1498.171041 1503.572522 1508.225722
437.085294 1460.522124 1488.197664 1501.391869 1498.599704 1503.921092 1508.688264
437.229118 1460.777435 1489.411691 1501.672809 1499.034936 1504.259037 1509.106218
437.372941 1461.035526 1490.514539 1501.926838 1499.439796 1504.522808 1509.286902
437.516765 1461.306890 1491.912815 1502.204916 1499.856532 1504.778282 1509.512102
437.660588 1461.572037 1493.460182 1502.494513 1500.299911 1505.033770 1509.786705
437.804412 1461.831892 1494.508108 1502.769856 1500.719596 1505.277657 1510.095417
437.948235 1462.075228 1495.883726 1503.022250 1501.147253 1505.458766 1510.315305
438.092059 1462.391879 1497.073039 1503.239639 1501.565766 1505.749989 1510.588339
438.235882 1462.621323 1497.973069 1503.505121 1501.970273 1506.029056 1510.877459
438.379706 1462.920581 1499.154462 1503.748473 1502.380442 1506.299435 1511.112890
438.523529 1463.236712 1499.911726 1504.025518 1502.777950 1506.572753 1511.350563
438.667353 1463.562081 1500.610301 1504.255370 1503.169556 1506.783302 1511.588033
438.811176 1463.909361 1501.279076 1504.584120 1503.556595 1507.086113 1511.858177
438.955000 1464.113618 1501.947957 1504.909441 1503.951170 1507.373447 1512.036405
439.098056 1464.730723 1502.564235 1505.181108 1504.336475 1507.645950 1512.267793
439.241111 1464.989171 1502.983552 1505.474772 1504.692724 1507.895900 1512.502926
439.384167 1465.673254 1503.309296 1505.719879 1505.037448 1508.178580 1512.806942
439.527222 1465.948782 1503.641614 1506.058063 1505.373424 1508.434312 1513.201100
439.670278 1466.184982 1504.005598 1506.333059 1505.714318 1508.726803 1513.426687
439.813333 1466.411083 1504.362928 1506.653939 1506.022365 1509.033266 1513.632061
439.956389 1466.832938 1504.637982 1506.944928 1506.342607 1509.246849 1514.178091
440.099444 1467.220696 1504.895860 1507.203711 1506.654487 1509.524878 1514.642416
440.242500 1467.413468 1505.159203 1507.470599 1506.969865 1509.824380 1515.140315
440.385556 1467.744260 1505.430795 1507.717120 1507.287962 1510.133262 1515.686773
440.528611 1467.905756 1505.691306 1507.997595 1507.588382 1510.366003 1516.426380
440.671667 1468.314273 1505.959376 1508.262784 1507.888814 1510.624390 1516.635608
440.814722 1469.114934 1506.219266 1508.498445 1508.174450 1510.887919 1516.896918
440.957778 1469.639357 1506.493613 1508.759500 1508.463707 1511.220120 1517.125370
441.100833 1470.845584 1506.811097 1508.979694 1508.752658 1511.520601 1517.674925
441.243889 1472.943109 1507.103739 1509.268684 1509.041689 1511.804442 1518.009399
441.386944 1473.617534 1507.321599 1509.521151 1509.325802 1512.059916 1518.298870
441.530000 1474.809871 1507.520866 1509.787444 1509.607856 1512.401550 1518.553772
441.669250 1475.934500 1507.781349 1510.003281 1509.873546 1512.721715 1518.731199
441.808500 1477.041636 1507.959284 1510.236671 1510.142237 1513.097702 1519.091882
441.947750 1478.657288 1508.248276 1510.489881 1510.407652 1513.429313 1520.302734
442.087000 1480.180808 1508.470024 1510.718632 1510.666422 1513.827987 1521.110207
442.226250 1481.745114 1508.714969 1510.973979 1510.937808 1514.133107 1521.728403
442.365500 1483.213589 1508.903557 1511.162897 1511.199711 1514.411399 1522.283347
442.504750 1485.149708 1509.134195 1511.410333 1511.467517 1514.854237 1522.709511
442.644000 1486.296602 1509.352473 1511.631666 1511.729508 1515.193044 1523.005595
442.783250 1487.465937 1509.546333 1511.862137 1511.996060 1515.565014 1523.249402
442.922500 1488.264446 1509.775215 1512.085990 1512.250948 1515.829437 1523.517015
443.061750 1488.732793 1510.025902 1512.336545 1512.512408 1516.188301 1523.717681
443.201000 1489.068370 1510.242141 1512.576584 1512.779108 1516.487801 1524.328468
443.340250 1489.424128 1510.445610 1512.788515 1513.040936 1516.790773 1524.845563
443.479500 1489.744069 1510.675458 1512.993055 1513.295350 1517.077365 1525.138814
443.618750 1490.228265 1510.897524 1513.213027 1513.545542 1517.338472 1525.387006
443.758000 1490.616103 1511.098919 1513.421948 1513.801635 1517.637169 1525.716673
443.897250 1490.951689 1511.277417 1513.663570 1514.058515 1518.081216 1526.145234
444.036500 1491.367003 1511.484528 1513.852699 1514.317363 1518.380978 1526.443958
444.175750 1492.148541 1511.711205 1514.092277 1514.564331 1518.632241 1526.672603
444.315000 1493.057305 1511.917148 1514.297878 1514.823022 1518.813465 1527.005141
444.455714 1494.108985 1512.137387 1514.520661 1515.080620 1519.115487 1527.869813
444.596429 1495.532672 1512.331647 1514.739801 1515.337630 1519.380793 1528.600996
444.737143 1496.694318 1512.550093 1514.931064 1515.595926 1519.599257 1529.152360
444.877857 1498.177022 1512.789656 1515.171684 1515.852563 1519.871901 1529.772850
445.018571 1500.134796 1512.998193 1515.392358 1516.105251 1520.111105 1530.901302
445.159286 1501.129863 1513.203088 1515.626297 1516.357276 1520.347003 1531.547816
445.300000 1501.505116 1513.396940 1515.863744 1516.620758 1520.626024 1532.682850
445.440714 1503.019293 1513.625931 1516.112307 1516.880863 1520.880122 1533.772719
445.581429 1503.849566 1513.857746 1516.363774 1517.136173 1521.134220 1535.476110
445.722143 1504.426524 1514.061311 1516.639588 1517.393754 1521.412896 1536.650722
445.862857 1505.141717 1514.274792 1516.875939 1517.656700 1521.684909 1537.147170
446.003571 1505.744672 1514.446708 1517.116637 1517.914277 1522.014615 1538.617074
446.144286 1506.896738 1514.658130 1517.348930 1518.173854 1522.233437 1539.814636
446.285000 1507.219625 1514.882031 1517.622343 1518.433361 1522.470388 1540.320551
446.425714 1507.618437 1515.098978 1517.811481 1518.687913 1522.770230 1541.132227
446.566429 1508.777339 1515.317915 1518.019877 1518.946132 1522.987701 1542.354136
446.707143 1509.174723 1515.529451 1518.229435 1519.208847 1523.239096 1543.079948
446.847857 1510.239160 1515.733030 1518.502952 1519.472553 1523.457543 1544.008776
446.988571 1511.177325 1515.956690 1518.761846 1519.736998 1523.833946 1545.422726
447.129286 1512.200816 1516.236482 1519.033054 1520.010936 1524.036097 1546.047993
447.270000 1512.600905 1516.465169 1519.303226 1520.282799 1524.277482 1546.453007
447.394000 1512.886240 1516.674182 1519.482745 1520.524418 1524.549835 1547.227330
447.518000 1513.272562 1516.859821 1519.763545 1520.765074 1524.785750 1547.647849
447.642000 1513.679242 1517.072341 1519.974371 1521.006737 1525.023879 1547.937310
447.766000 1514.085982 1517.267069 1520.195429 1521.252014 1525.239235 1548.982932
447.890000 1514.459569 1517.476767 1520.389036 1521.499200 1525.460859 1549.402974
448.031136 1514.814649 1517.709216 1520.686727 1521.783641 1525.878111 1549.580234
448.172273 1514.991404 1517.958150 1520.975387 1522.075437 1526.189016 1550.103294
448.313409 1515.367923 1518.161432 1521.207446 1522.377661 1526.458484 1550.432521
448.454545 1515.672071 1518.365668 1521.487181 1522.685976 1526.843263 1550.963386
448.595682 1516.051721 1518.623837 1521.745424 1522.983319 1527.125483 1551.573362
448.736818 1516.606204 1518.845611 1522.000457 1523.286439 1527.541970 1551.993600
448.877955 1516.789890 1519.077070 1522.249285 1523.586344 1527.966754 1552.318601
449.019091 1516.922401 1519.349228 1522.520826 1523.902324 1528.320367 1552.650009
449.160227 1517.136413 1519.589378 1522.788656 1524.201404 1528.723726 1552.945113
449.301364 1517.443341 1519.806278 1523.124179 1524.510850 1529.253493 1553.338560
449.442500 1517.649550 1520.030288 1523.366411 1524.817960 1529.655025 1553.899787
449.583636 1517.811606 1520.255729 1523.694137 1525.123961 1530.150203 1554.284523
449.724773 1518.039572 1520.523395 1524.002580 1525.432066 1530.599656 1554.849748
449.865909 1518.201334 1520.740658 1524.276133 1525.740949 1530.904489 1555.040552
450.007045 1518.396809 1521.017680 1524.519872 1526.041812 1531.388694 1555.293696
450.148182 1518.681708 1521.249385 1524.815368 1526.353268 1531.915616 1555.731012
450.289318 1518.939439 1521.521793 1525.093782 1526.665911 1532.315821 1556.069570
450.430455 1519.141399 1521.813478 1525.305874 1526.965216 1532.879586 1556.433275
450.571591 1519.306293 1522.106638 1525.538827 1527.263174 1533.183833 1556.768901
450.712727 1519.621541 1522.376938 1525.798244 1527.566644 1533.449089 1557.476666
450.853864 1519.978956 1522.576824 1526.029735 1527.861904 1533.789353 1558.707830
450.995000 1520.239218 1522.849529 1526.285543 1528.157017 1534.102794 1559.181109
451.137105 1520.467905 1523.091324 1526.547567 1528.452080 1534.506903 1559.689319
451.279211 1520.596556 1523.279070 1526.778200 1528.746771 1534.969992 1559.997927
451.421316 1520.825648 1523.515070 1526.970969 1529.044857 1535.363330 1560.522823
451.563421 1521.058265 1523.786229 1527.209628 1529.346133 1536.049749 1561.199888
451.705526 1521.205351 1524.059344 1527.354023 1529.654801 1536.422398 1562.023643
451.847632 1521.400278 1524.268437 1527.561792 1529.959909 1536.857974 1562.469926
451.989737 1521.723472 1524.505235 1527.815355 1530.252638 1537.496015 1562.879099
452.131842 1521.999460 1524.730787 1527.969027 1530.539908 1537.931955 1563.232802
